frame_number,force
0,650.2851600000205
1,650.620513191453
2,650.9418840587764
3,651.2369579544151
4,651.4964229790203
5,651.7147327533104
6,651.8902067619869
7,652.024538099692
8,652.1219028877064
9,652.1879164993783
10,652.2286549513217
11,652.2498884416299
12,652.2565932650822
13,652.2527362824364
14,652.2412759163425
15,652.2243052464006
16,652.203269160734
17,652.1791997965973
18,652.1529237959847
19,652.125207746784
20,652.0968317212655
21,652.0686095810444
22,652.0413903552504
23,652.0160629930554
24,651.9935572446817
25,651.974814272896
26,651.9607081747477
27,651.951927348299
28,651.9488543725151
29,651.9514969084503
30,651.9595126812268
31,651.9723452771016
32,651.9894544854681
33,652.010591545032
34,652.0360428933996
35,652.0667585733785
36,652.1043051689583
37,652.1506330925588
38,652.2077004441111
39,652.2770307767481
40,652.359297735074
41,652.4540259065437
42,652.5594695294011
43,652.6726836473038
44,652.7897547841081
45,652.9061290042462
46,653.0169704997617
47,653.1174980779564
48,653.2032713310165
49,653.2704248370932
50,653.3158703181707
51,653.3374982185011
52,653.3344068864064
53,653.3071651740465
54,653.2580763483354
55,653.1913695293821
56,653.1132146672702
57,653.0314601436687
58,652.9550478295996
59,652.8931556504239
60,652.8542030902532
61,652.8448867472857
62,652.8693867211531
63,652.928830987415
64,653.0210626762531
65,653.1407381787792
66,653.2797711655056
67,653.42810540862
68,653.5747527736912
69,653.7089897869935
70,653.8215722167397
71,653.9058046753913
72,653.9583065355847
73,653.9793606181314
74,653.9728078975885
75,653.9455277659058
76,653.9065914908023
77,653.8661977802561
78,653.8345112393698
79,653.8205307115697
80,653.8311073280066
81,653.8702119572965
82,653.9385238111864
83,654.0333750022844
84,654.1490399097713
85,654.277315109095
86,654.4083105398942
87,654.531366083593
88,654.6360059651712
89,654.7128406043354
90,654.7543327575206
91,654.755369124312
92,654.713611036822
93,654.6296275077515
94,654.5068354873579
95,654.351278392224
96,654.1712604486772
97,653.9768328084272
98,653.7791199799416
99,653.5894946327509
100,653.4186478268083
101,653.2756415931232
102,653.167057542664
103,653.0963612943322
104,653.0635825407023
105,653.0653688035741
106,653.0954224291654
107,653.1452812957667
108,653.2053475279074
109,653.2660120424241
110,653.3186954952321
111,653.3566520744806
112,653.3754514673716
113,653.3731276591509
114,653.3500312943877
115,653.3084514369375
116,653.2520992951748
117,653.1855588244073
118,653.1137862516192
119,653.0416950275253
120,652.9738271392816
121,652.9140989699385
122,652.8656116844279
123,652.8305252613022
124,652.8100093644357
125,652.8042928420602
126,652.8128177756789
127,652.8344619427302
128,652.867757244153
129,652.9110336406915
130,652.962453103244
131,653.0199383364582
132,653.0810331557026
133,653.1427588154501
134,653.2015513213059
135,653.25336190496
136,653.2939613091037
137,653.3194172391868
138,653.3266460217042
139,653.3139069702748
140,653.2811206410898
141,653.2299357240429
142,653.1635238437395
143,653.0861327881121
144,653.0024688259707
145,652.9170093069785
146,652.8333716499815
147,652.7538732269294
148,652.6793883425601
149,652.6095401304841
150,652.5431758832317
151,652.4789916857503
152,652.4161258015155
153,652.3545549256694
154,652.2952027261549
155,652.2397698719565
156,652.1903708870401
157,652.149090837712
158,652.117560688385
159,652.0966172804119
160,652.0860877477377
161,652.0847291464391
162,652.0903442823387
163,652.1000618495543
164,652.1107225771158
165,652.1192843560108
166,652.123164028847
167,652.1204631237185
168,652.1100601681844
169,652.0915762312733
170,652.0652298764238
171,652.0316050049859
172,651.9913715846454
173,651.9450217340269
174,651.892697576376
175,651.8341789941786
176,651.7690628214295
177,651.6971054087238
178,651.6186403204653
179,651.5349523045343
180,651.4485002296045
181,651.3629252795806
182,651.2828398258046
183,651.2134479472375
184,651.1600771389839
185,651.1276918276293
186,651.120428799935
187,651.1411697161062
188,651.1911626903702
189,651.269723217215
190,651.3740712877984
191,651.4993734922201
192,651.6390360385997
193,651.7852399985404
194,651.9296515553334
195,652.0642055838583
196,652.1818594833801
197,652.2772368141844
198,652.3471090196497
199,652.3906824602592
200,652.4096625052387
201,652.4080651628509
202,652.3917570411892
203,652.367740363066
204,652.3432574735704
205,652.3248466189001
206,652.3175121455099
207,652.324161675246
208,652.3454090877775
209,652.3797579097302
210,652.4240864941372
211,652.4742845688044
212,652.5258735609997
213,652.5744892453613
214,652.6161824840368
215,652.647557129294
216,652.6657956421874
217,652.6686338940227
218,652.6543466243882
219,652.6217872899468
220,652.5704896037323
221,652.5008049919165
222,652.4140419183515
223,652.3125828737956
224,652.1999583914659
225,652.0808418975124
226,651.9609086909384
227,651.846509144252
228,651.7441577025949
229,651.6599101367237
230,651.5987445750409
231,651.5640574646045
232,651.5573524281372
233,651.5781618155759
234,651.6242058453216
235,651.6917616043136
236,651.7761806762197
237,651.8724611547542
238,651.9757637984183
239,652.0817867172576
240,652.1869766410738
241,652.2886172575363
242,652.3848536881936
243,652.4746852085452
244,652.5579200938852
245,652.635068633575
246,652.7071600341462
247,652.7754954867032
248,652.8413762112735
249,652.9058550509043
250,652.9695476507846
251,653.0325177112023
252,653.0942402814675
253,653.1536544837473
254,653.2093284187042
255,653.259749028413
256,653.3037063234167
257,653.3406852364087
258,653.3711498736878
259,653.3966274656207
260,653.4195583421559
261,653.4429376764101
262,653.4698112486534
263,653.5027050501176
264,653.5430794367851
265,653.5909029341284
266,653.6444315433832
267,653.7002545057503
268,653.7536302426872
269,653.7990893913106
270,653.831228987773
271,653.8455736136982
272,653.8393511902266
273,653.8120336158869
274,653.7655280929873
275,653.7039693745323
276,653.6331446884748
277,653.5596636891772
278,653.4900414697248
279,653.4298703732595
280,653.3832139250414
281,653.352290201894
282,653.3374508204159
283,653.3374124985385
284,653.3496623439364
285,653.3709461566019
286,653.3977602132906
287,653.4267801249821
288,653.4551648283639
289,653.4806873114794
290,653.5016843415037
291,653.516874896704
292,653.5251421419053
293,653.5253854879456
294,653.5165254498091
295,653.49769214419
296,653.4685559829379
297,653.429686204743
298,653.3827881032798
299,653.3307002960554
300,653.2771157033771
301,653.2260841964832
302,653.1814237849377
303,653.1461874279746
304,653.1222976298623
305,653.1103879801678
306,653.1098208180638
307,653.118824586319
308,653.1347160657964
309,653.1542001189897
310,653.1737346306202
311,653.1899177552931
312,653.1998317133342
313,653.2012804102753
314,653.1928826616455
315,653.1740207649283
316,653.1446875343644
317,653.1053038220126
318,653.0565742098748
319,652.9994210371107
320,652.9350118850915
321,652.864876736046
322,652.7910826344589
323,652.7163955598731
324,652.6443371239816
325,652.5790621020644
326,652.5250359691429
327,652.4865499661922
328,652.4671509116448
329,652.4690810287859
330,652.4928288655466
331,652.5368889293894
332,652.5978031834658
333,652.6705017709168
334,652.7488851840233
335,652.8265273701501
336,652.8973596327472
337,652.9562246998086
338,652.9992433104487
339,653.0239792465624
340,653.0294128794412
341,653.0157483108975
342,652.9840932694161
343,652.9360629851861
344,652.8733700808104
345,652.7974777001258
346,652.7094057122516
347,652.6097640854501
348,652.4990293338402
349,652.3780040237473
350,652.2483452697894
351,652.1130284185574
352,651.9766138071702
353,651.8452026820145
354,651.7260158140858
355,651.6266121326644
356,651.5538650625151
357,651.512892490714
358,651.506162167896
359,651.5329616447684
360,651.5893433906696
361,651.6685551529137
362,651.7618709462138
363,651.859672135126
364,651.9526004568079
365,652.0326126124877
366,652.0938010580028
367,652.1328976270559
368,652.1494305539236
369,652.1455463197657
370,652.1255340849578
371,652.0951151587603
372,652.0605914029082
373,652.0279732900221
374,652.002210801122
375,651.9866268815543
376,651.98262200317
377,651.9896879596968
378,652.0057263165241
379,652.0276064625355
380,652.051844501016
381,652.0752705267716
382,652.0955856805742
383,652.1117664477781
384,652.1243122085746
385,652.135327747629
386,652.1484010812136
387,652.1682274370193
388,652.1999754965016
389,652.2484740581037
390,652.3173647186346
391,652.4083798322423
392,652.5208664370916
393,652.6516176334445
394,652.7950241449308
395,652.9435320353231
396,653.0883771433342
397,653.2205405805436
398,653.3318219002067
399,653.4158746592486
400,653.4690271768092
401,653.490740486231
402,653.4836279729734
403,653.4530483486375
404,653.406354298523
405,653.3519175808865
406,653.2980628410146
407,653.2520404362448
408,653.219159784856
409,653.202187602277
410,653.2010881272803
411,653.2131461024381
412,653.2334664676822
413,653.2557874821872
414,653.2734904270378
415,653.2806593007061
416,653.2730404872086
417,653.2487619700125
418,653.2086916510917
419,653.1563600209995
420,653.097451392126
421,653.0389580143092
422,652.9881558328545
423,652.9515811908334
424,652.9341724496867
425,652.9387012339039
426,652.9655563495625
427,653.0128657540142
428,653.0768758172698
429,653.1524835594993
430,653.2338374591916
431,653.3149559306768
432,653.3903308787055
433,653.4554800003709
434,653.5073978654708
435,653.5448487689104
436,653.5684489045839
437,653.5804993285846
438,653.5845626098312
439,653.5848321656412
440,653.5854037907392
441,653.5895897256895
442,653.5994048797761
443,653.6153150084023
444,653.6362807338221
445,653.6600659230686
446,653.6837189533362
447,653.7041060772447
448,653.7183886726812
449,653.7243734588938
450,653.7207038067302
451,653.7068969109649
452,653.6832689858685
453,653.6508143298228
454,653.6110915466234
455,653.5661262165542
456,653.5183004545403
457,653.4701983372508
458,653.4244109568804
459,653.383344311269
460,653.3490803748876
461,653.3233059314666
462,653.3072743350705
463,653.3017458467777
464,653.3068798094022
465,653.3221050071804
466,653.3460339439001
467,653.3764856672566
468,653.4106428331183
469,653.4453198039307
470,653.4772890168309
471,653.5036088050359
472,653.5219023494111
473,653.5305445736013
474,653.5287272759028
475,653.5163966626397
476,653.4940859702822
477,653.4626934780634
478,653.4232754196067
479,653.376918150229
480,653.3247167139352
481,653.2678361899054
482,653.2075989049912
483,653.1455387115657
484,653.0833826942652
485,653.022945983984
486,652.9659489357589
487,652.9137805943005
488,652.8672380067178
489,652.8262826850888
490,652.789880225052
491,652.7560041551711
492,652.7218610319512
493,652.6843281542618
494,652.640517735905
495,652.5883336753461
496,652.5268944691243
497,652.4567485108739
498,652.379869394198
499,652.2994571101874
500,652.2195859223808
501,652.1447521200638
502,652.0793901174394
503,652.027425191509
504,651.9919058813953
505,651.9747266108404
506,651.9764374193586
507,651.9961490078413
508,652.031558014764
509,652.0791155567451
510,652.1343394295534
511,652.1922439427912
512,652.2478422946539
513,652.2966632696298
514,652.3352183400692
515,652.3613645476953
516,652.3745318155757
517,652.3758059393444
518,652.3678669711459
519,652.3547799903525
520,652.3416342669886
521,652.33403275878
522,652.3374469316584
523,652.3564796157262
524,652.3941225726012
525,652.4511337385226
526,652.5256636126696
527,652.6132236017453
528,652.7070247397105
529,652.7986448215242
530,652.8789267689158
531,652.9389826773963
532,652.9711783914673
533,652.9699987296798
534,652.9327276338745
535,652.8598970482844
536,652.7554573931435
537,652.6266210566514
538,652.4833521885871
539,652.3375260864402
540,652.2018423986116
541,652.088624134503
542,652.0086550237423
543,651.9701982025056
544,651.9783020593345
545,652.034446717006
546,652.1365373814551
547,652.2792156901137
548,652.454427105928
549,652.6521528669214
550,652.8612108539567
551,653.0700608487883
552,653.2675927180345
553,653.4438951385557
554,653.5909835844526
555,653.7034262972919
556,653.7787724268776
557,653.8176784720789
558,653.8236638027166
559,653.8025018547413
560,653.7613393183003
561,653.7076962278221
562,653.6485232562777
563,653.5894759169598
564,653.5345043581502
565,653.4857680960088
566,653.4438091447471
567,653.4078867570864
568,653.3763893426469
569,653.3472685161908
570,653.3184615462822
571,653.2882705184986
572,653.2556579997668
573,653.2204195857988
574,653.1832131755556
575,653.1454539050081
576,653.1091047000132
577,653.0763955795948
578,653.0494962734325
579,653.0301623430206
580,653.0193860677115
581,653.0171057314541
582,653.0220435031797
583,653.0317359146607
584,653.042786402991
585,653.0513148370526
586,653.0535240700348
587,653.0462727918037
588,653.027552600317
589,652.996805474541
590,652.9550551919157
591,652.9048434750088
592,652.8499714021264
593,652.7950698990601
594,652.7450555796153
595,652.7045458255648
596,652.6773013488237
597,652.665754748259
598,652.6706864289691
599,652.6911098588334
600,652.7243993394629
601,652.7666384630082
602,652.813119688104
603,652.8589068442444
604,652.8993755447049
605,652.9306594608959
606,652.9499543279887
607,652.9556661391592
608,652.9474193725924
609,652.9259506671789
610,652.8929119016656
611,652.8506148183664
612,652.8017689657283
613,652.7492732984532
614,652.6961010458105
615,652.6452780745714
616,652.5999241500292
617,652.5633144929858
618,652.5389103585271
619,652.5302922639254
620,652.5409293124819
621,652.5737613154095
622,652.6306508143224
623,652.7118360057805
624,652.8155403459779
625,652.9378613613355
626,653.0729914694941
627,653.2137458680412
628,653.3523065160941
629,653.4810486345843
630,653.5933079276564
631,653.6839787816552
632,653.7498905422486
633,653.7899563478896
634,653.8051064008745
635,653.7980189617385
636,653.7726749335009
637,653.7337926609155
638,653.686230862693
639,653.6344591919632
640,653.5821812867184
641,653.5321577432198
642,653.4862248108907
643,653.4454565275477
644,653.4103928488996
645,653.3812573212803
646,653.3581043886205
647,653.3408627847066
648,653.3292774079289
649,653.3227871765316
650,653.3203929322924
651,653.32056291187
652,653.3212074204573
653,653.3197470658675
654,653.3133033183004
655,653.2990350807122
656,653.2746061709121
657,653.238704702437
658,653.1914866134377
659,653.1348142536001
660,653.0722047684626
661,653.0084688116638
662,652.949087131767
663,652.8994260977486
664,652.8639238060065
665,652.8453850161097
666,652.844504484012
667,652.8596923404675
668,652.8872178657202
669,652.921646013484
670,652.9565172414482
671,652.9851933920698
672,653.0017525428383
673,653.0017878055465
674,652.9829760053743
675,652.9453324453277
676,652.8911360514527
677,652.8245730354075
678,652.7511931249875
679,652.677289217623
680,652.6092923736027
681,652.5532331919992
682,652.5142878367797
683,652.4964169556529
684,652.5021060704279
685,652.5322107634481
686,652.5859002271501
687,652.6606917684144
688,652.7525817910724
689,652.8562921116232
690,652.9656480855393
691,653.0740871739205
692,653.1752733045481
693,653.2637681148952
694,653.335683018476
695,653.3892067136535
696,653.4248851101503
697,653.4455514629263
698,653.4558782070983
699,653.4616259345506
700,653.4687511125629
701,653.4825638278425
702,653.50709418359
703,653.5447555647322
704,653.5963176273489
705,653.6611428637552
706,653.7376028063857
707,653.8235673044043
708,653.916851910599
709,654.0155273235594
710,654.1180452225262
711,654.2231909891634
712,654.329906074744
713,654.4370325575936
714,654.54304007033
715,654.6458070682236
716,654.7425313213201
717,654.829822874795
718,654.9039862909598
719,654.9614473705707
720,654.9992433956243
721,655.0154816017339
722,655.0096780182063
723,654.9829156428301
724,654.9377967700326
725,654.8781971395448
726,654.8088553948611
727,654.7348529570953
728,654.661061005447
729,654.5916490840604
730,654.5297465454639
731,654.4773083458686
732,654.435170801611
733,654.4032238320066
734,654.380604551732
735,654.3658425642897
736,654.3569453250399
737,654.3514675714733
738,654.3466255783817
739,654.3394886621965
740,654.3272383898599
741,654.3074623053509
742,654.2784422429778
743,654.239390333727
744,654.1905810689493
745,654.1333405342069
746,654.0698809156173
747,654.0029911092455
748,653.9356100280309
749,653.8703324639409
750,653.8089285823311
751,653.7519737395277
752,653.6986659915332
753,653.6468649679617
754,653.5933472080371
755,653.5342533875244
756,653.4656859703592
757,653.3843833884706
758,653.288358581316
759,653.1773729111427
760,653.0531380613958
761,652.9191960623219
762,652.7805025491173
763,652.6428030625324
764,652.5119243357937
765,652.3930972529596
766,652.2903984461587
767,652.2063646965289
768,652.1418105548873
769,652.0958560207902
770,652.0661338132905
771,652.0491027096934
772,652.040372388565
773,652.0349668346257
774,652.0275113970606
775,652.0123883234202
776,651.9839284242454
777,651.9366893547048
778,651.8658436086316
779,651.76767492242
780,651.6401439651154
781,651.4834310857972
782,651.3003255996666
783,651.0963334517315
784,650.8794203601024
785,650.6593890969687
786,650.4469853014605
787,650.2528856546048
788,650.0867069552122
789,649.9561092338016
790,649.8660197421531
791,649.8180234958136
792,649.8100260375495
793,649.8363189935694
794,649.8881190254514
795,649.9545367213811
796,650.0238306629091
797,650.0847462699136
798,650.1277299015114
799,650.1458463468282
800,650.1353064014606
801,650.0956036866654
802,650.0293290552798
803,649.9417536735856
804,649.8402570993413
805,649.7336573718102
806,649.6314952639392
807,649.543319690242
808,649.4780009457312
809,649.4430815228919
810,649.4441885308464
811,649.4845706892504
812,649.5648473071168
813,649.6830335395555
814,649.8348396962185
815,650.0141735310174
816,650.2137453257358
817,650.4256899587715
818,650.6421496506053
819,650.8557822614212
820,651.0601696054955
821,651.2501042685353
822,651.4217387772534
823,651.5725944608934
824,651.7014504398676
825,651.8081572144915
826,651.8934318478749
827,651.9586856437076
828,652.0059123308457
829,652.0376366901519
830,652.0569046193681
831,652.0672899322432
832,652.0728930307914
833,652.078302973989
834,652.0884871659435
835,652.108572746604
836,652.1435020363057
837,652.1975784109994
838,652.2739537852153
839,652.3741308951958
840,652.4975588288063
841,652.641394324301
842,652.8004918145766
843,652.9676686092529
844,653.1342554509815
845,653.290885165109
846,653.4284112452161
847,653.5388115932764
848,653.6159409458467
849,653.6560453928513
850,653.6580151542107
851,653.623395272863
852,653.5561822796171
853,653.4624158547739
854,653.3495588809775
855,653.2256810516237
856,653.0985254586972
857,652.9746104258575
858,652.8585495715394
859,652.7527321541342
860,652.6574093652266
861,652.5711276794897
862,652.4913791758482
863,652.4153179183869
864,652.3404174679567
865,652.2649978585634
866,652.1885986753314
867,652.1121920064119
868,652.038218860562
869,651.9704239277769
870,651.9134791817733
871,651.872426329072
872,651.8520153403992
873,651.8560522007874
874,651.8868780080552
875,651.9450770080692
876,652.0294619488354
877,652.1373288312998
878,652.2649181052218
879,652.4079687004116
880,652.5622241962784
881,652.7237729238403
882,652.8891735028928
883,653.055398739648
884,653.2196873656449
885,653.3794088096324
886,653.5320212761328
887,653.6751497047059
888,653.8067516164377
889,653.925301670645
890,654.029924622921
891,654.1204383909176
892,654.1973145764158
893,654.2615958883606
894,654.3148097162738
895,654.3588860519627
896,654.3960485864849
897,654.4286323563267
898,654.4588071874151
899,654.4882385502616
900,654.5177625968952
901,654.5471657796764
902,654.5751401639538
903,654.5994500070581
904,654.6173091841321
905,654.6259296598242
906,654.623152931988
907,654.6080420013027
908,654.5813202326023
909,654.5455827510957
910,654.505239732938
911,654.4661765661314
912,654.4351556525033
913,654.4190359390727
914,654.4239233224469
915,654.4543756235661
916,654.5127762479633
917,654.5989691970631
