acceleration,velocity,displacement
0.04973536755185498,0.0,0.0
0.05115619334101794,2.522289022321823e-05,6.305722555804558e-09
0.05257482784726794,5.11556455202897e-05,2.540035649168154e-08
0.05398909157519408,7.779662537590521e-05,5.7638424215730265e-08
0.055396828450929546,0.00010514310538243611,1.0337335690531559e-07
0.05679591716894875,0.00013319129178740569,1.6295695619777605e-07
0.05818428214287885,0.00016193634161536257,2.3673886454846812e-07
0.05955990396570531,0.00019137238814250862,3.250660469879359e-07
0.060920829285298066,0.00022149257145525947,4.282822868873779e-07
0.06226518000211127,0.0002522890737771118,5.467276981954707e-07
0.06359116171144452,0.00028375315920550076,6.807382564411239e-07
0.06489707134242784,0.00031587521746896885,8.306453506097413e-07
0.06618130397893944,0.00034864481129931067,9.967753578018111e-07
0.06744235887488345,0.0003820507270127664,1.1794492423798303e-06
0.06867884469188466,0.0004160810279044584,1.3789821811091365e-06
0.06988948398663114,0.00045072311007408736,1.595683215603773e-06
0.07107311696163023,0.0004859637603111527,1.8298549332000829e-06
0.07222870448108744,0.0005217892156718321,2.081793177195829e-06
0.07335533035029285,0.0005581852243796772,2.3517867872087065e-06
0.07445220285386499,0.0005951371076807166,2.6401173702238048e-06
0.07551865553842023,0.0006326298222787879,2.947059102713681e-06
0.07655414721797528,0.0006706480229678868,3.2728785640253498e-06
0.07755826118679279,0.0007091761250690788,3.617834601034591e-06
0.07853070363930348,0.0007481983662756029,3.982178223870762e-06
0.07947130130687682,0.0007876988675121479,4.366152532317699e-06
0.08037999832723965,0.000827661692420677,4.769992672300906e-06
0.08125685237639375,0.0008680709050965854,5.1939258216802216e-06
0.08210203011656408,0.0009089106257198249,5.638171204384324e-06
0.08291580203573269,0.000950165083757899,6.102940131753755e-06
0.08369853676672791,0.0009918186684585142,6.588436069807858e-06
0.08445069497929138,0.001033855976395019,7.094854731021242e-06
0.08517282294224778,0.0010762618558754038,7.622384189088847e-06
0.08586554585427802,0.0011190214480745351,8.171205015076332e-06
0.08652956103344046,0.0011621202247964649,8.741490433294082e-06
0.08716563103135125,0.0012055440228126628,9.333406495196363e-06
0.08777457669996712,0.0012492790747454924,9.947112269585902e-06
0.08835727019760722,0.001293312036469886,1.0582760047389747e-05
0.08891462789002398,0.0013376300109917937,1.1240495559255167e-05
0.08944760309378698,0.0013822205687377463,1.1920458204187552e-05
0.08995717862524334,0.0014270717641675038,1.2622781287413865e-05
0.09044435914613745,0.001472172148610349,1.3347592265608328e-05
0.09091016331837326,0.0015175107792264767,1.4095012997567535e-05
0.09135561578989948,0.0015630772240035448,1.486515999837504e-05
0.09178173903934712,0.0016088615627108565,1.565814469505364e-05
0.09218954511711573,0.0016548543837499722,1.6474073681668848e-05
0.09258002733798806,0.0017010467768637481,1.731304897182228e-05
0.09295415200498466,0.0017474303216994914,1.817516824646309e-05
0.09331285026876895,0.0017939970722679298,1.9060525094954945e-05
0.09365701023941116,0.0018407395373949747,1.996920924737067e-05
0.09398746946374172,0.001887650657320763,2.0901306796049603e-05
0.0943050078713965,0.0019347237766545475,2.185690040454343e-05
0.09461034128618691,0.0019819526139439434,2.2836069502193053e-05
0.09490411559727405,0.0020293312281648088,2.383889046272024e-05
0.09518690168231861,0.002076853982484707,2.486543676538262e-05
0.09545919117203834,0.002124515505698296,2.591577913742837e-05
0.09572139314170201,0.0021723106517767313,2.698998567679713e-05
0.09597383180255092,0.0022202344580127945,2.808812195424451e-05
0.0962167452369291,0.0022682821022726647,2.9210251094315875e-05
0.09645028517834336,0.002316448859876483,3.0356433834853162e-05
0.09667451779396044,0.002364730060619559,3.152672856497717e-05
0.09688942539362408,0.002413121046416455,3.272119134173617e-05
0.0970949089718214,0.0024616171300078167,3.393987588584224e-05
0.09729079148777464,0.002510213555122716,3.518283355712487e-05
0.09747682180138095,0.002558905458445005,3.6450113310516804e-05
0.0976526792023857,0.0026076878336959465,3.774176163355204e-05
0.0978179784880451,0.0026565554981185543,3.905782246650566e-05
0.09797227555431702,0.0027055030616291447,4.039833710644259e-05
0.09811507346702611,0.0027545248988844803,4.176334409657099e-05
0.09824582897567515,0.0028036151244951557,4.31528791024159e-05
0.09836395942649676,0.0028527675715956987,4.456697477643861e-05
0.09846885002660598,0.0029019757739589744,4.6005660612827276e-05
0.0985598614107944,0.0029512329518183245,4.74689627942716e-05
0.09863633746284661,0.003000532001536735,4.8956904032610365e-05
0.0986976133361161,0.0030498654892364757,5.046950340530367e-05
0.09874302360120707,0.0030992256484708063,5.200677618973049e-05
0.0987719104272573,0.0031486043819779225,5.356873369734267e-05
0.09878363168116411,0.0031979932675050278,5.5155383109713403e-05
0.0987775688080038,0.0032473835676273197,5.676672731849649e-05
0.09875313433973418,0.003296766243414254,5.840276477125688e-05
0.09870977887545246,0.0033461319717180507,6.006348932503996e-05
0.09864699739056808,0.003395471165784556,6.174889010941561e-05
0.09856433476345647,0.003444773998823062,6.345895140056751e-05
0.09846139044722302,0.003494030430125732,6.519365250780472e-05
0.09833782224864318,0.003543230233299698,6.695296767366107e-05
0.09819334920133325,0.0035923630261621925,6.873686598852654e-05
0.09802775354056009,0.003641418301847666,7.0545311320529e-05
0.09784088180885359,0.0036903854606850192,7.237826226116217e-05
0.09763264514545576,0.0037392538424235967,7.423567208693932e-05
0.09740301883672838,0.003788012758419143,7.611748873715001e-05
0.09715204122960062,0.0038366515234357253,7.802365480761373e-05
0.09687981213563099,0.003885159486777033,7.995410756016691e-05
0.09658649087108251,0.003933526062528712,8.190877894749334e-05
0.09627229407827309,0.003981740758766051,8.388759565281703e-05
0.0959374934557451,0.004029793205649556,8.589047914392093e-05
0.09558241349946092,0.004077673182388357,8.791734574093041e-05
0.09520742932947925,0.004125370643095592,8.99681066973014e-05
0.09481296464408158,0.004172875741588982,9.204266829347255e-05
0.09439948980561098,0.004220178855201406,9.414093194267015e-05
0.09396752002587763,0.004267270607659278,9.626279430838532e-05
0.09351761359656857,0.00431414189106489,9.840814743306636e-05
0.09305037011237138,0.004360783886992125,0.00010057687887758061
0.09256642865958613,0.004407188086685114,0.00010276887187099992
0.09206646597456014,0.0044533463103436505,0.00010498400547025711
0.09155119459635719,0.00449925072548638,0.00010722215472921461
0.0910213610422377,0.004544893864396029,0.00010948319087668522
0.09047774403068387,0.004590268640664259,0.0001117669815029503
0.08992115277412334,0.004635368364865461,0.00011407339075433273
0.08935242536334059,0.004680186759399827,0.00011640227953539905
0.0887724272599438,0.004724717972555648,0.00011875350571838792
0.08818204989402978,0.004768956591844141,0.00012112692435948787
0.08758220933214406,0.004812897656650684,0.00012352238792161157
0.08697384494625376,0.004856536670220284,0.0001259397465033293
0.08635791799085268,0.004899869610954561,0.000128378848073623
0.08573540999214754,0.004942892942950311,0.0001308395387120992
0.08510732087156615,0.004985603625666239,0.00013332166285425333
0.08447466675742175,0.005027999122573486,0.00013582506354131325
0.08383847747059227,0.00507007740863049,0.00013834958267411424
0.08319979369293129,0.005111836976421371,0.0001408950612703772
0.08255966383911777,0.005153276840804383,0.00014346133972468366
0.08191914065938043,0.005194396541929007,0.00014604825807036702
0.0812792776072407,0.005235196146495663,0.00014865565624247318
0.08064112501237652,0.005275676247150567,0.00015128337434088473
0.08000572609990084,0.005315837959928637,0.00015393125289265452
0.07937411289299323,0.00535568291967686,0.00015659913311255589
0.07874730202950617,0.005395213273407485,0.00015928685716082698
0.07812629051854295,0.005434431671544498,0.00016199426839706498
0.0775120514617802,0.0054733412570395785,0.000164721211629211
0.07690552976561635,0.005511945652346428,0.00016746753335655752
0.07630763787198586,0.005550248944255828,0.00017023308200570807
0.0757192515371002,0.0055882556666081,0.00017301770815842405
0.07514120569130167,0.0056259707809152,0.00017582126477030488
0.07457429042323352,0.005663399654943834,0.00017864360737926963
0.07401924714727144,0.00570054803933646,0.0001814845943028397
0.0734767650291234,0.005737422042380559,0.00018434408682326895
0.07294747775393556,0.005774028103076324,0.00018722194935963317
0.07243196072042156,0.005810372962694914,0.00019011804962607598
0.07193072873176111,0.005846463635057959,0.0001930322587755142
0.07144423422832662,0.005882307375797981,0.0001959644515282282
0.07097286607131324,0.005917911650872891,0.0001989145062848959
0.070516948848282,0.00595328410460279,0.00020188230522376482
0.07007674264217821,0.005988432527475405,0.00020486773438178438
0.0696524431893035,0.006023364823933275,0.00020787068371963654
0.06924418234495618,0.0060580889803168395,0.00021089104717069907
0.06885202877260456,0.00609261303309623,0.00021392872267405233
0.06847598877378794,0.006126945037482828,0.0002169836121916971
0.0681160071842719,0.006161093036472344,0.0002200556217101859
0.06777196827764152,0.006195065030337822,0.00022314466122688842
0.06744369663916841,0.006228868946567025,0.00022625064472111463
0.0671309579979018,0.006262512610226292,0.00022937349011031296
0.0668334600285922,0.006296003714732916,0.00023251311919155276
0.06655085315579254,0.006329349793029012,0.00023566945756849325
0.06628273141322547,0.006362558189171266,0.00023884243456404332
0.06602863343060723,0.006395636030382224,0.0002420319831189317
0.0657880436290727,0.006428590199647144,0.00024523803967643905
0.06556039369951933,0.006461427308979292,0.0002484605440535957
0.06534506441818476,0.006494153673508718,0.0002516994392992177
0.06514138782820367,0.0065267752865703155,0.00025495467153923747
0.06494864979089206,0.006559297795975089,0.00025822618980987384
0.0647660928876845,0.006591726481644734,0.00026151394587927877
0.06459291963254227,0.00662406623477479,0.0002648178940583836
0.06442829593560223,0.006656321538666826,0.00026813799100174404
0.06427135474225504,0.006688496451336291,0.00027147419549924484
0.064121199758203,0.006720594589961405,0.0002748264682595693
0.063976909163046,0.006752619117191718,0.00027819477168635756
0.06383753921723818,0.006784572729286789,0.0002815790696479772
0.06370212768359158,0.006816457646011996,0.0002849793272418019
0.06356969701200736,0.006848275602185896,0.00028839551055385136
0.06343925726385488,0.006880027840754861,0.0002918275864145865
0.06330980877017775,0.006911715107263369,0.00029527552215159107
0.0631803445269709,0.006943337645587656,0.00029873928533980383
0.06304985234116112,0.006974895194804689,0.0003022188435499019
0.0629173167580894,0.007006386987079501,0.00030571416409537293
0.06278172082259428,0.007037811746474673,0.00030922521377876145
0.0626420477469451,0.007069167688617058,0.00031275195863753437
0.062497282577446155,0.007100452521198156,0.0003162943636899882
0.062346413963065804,0.007131663445333284,0.000319852392681621
0.062188436129118944,0.00716279715785633,0.00032342600783241845
0.06202235114669034,0.007193849854675282,0.00032701516958555133
0.06184717156463235,0.007224817235353113,0.0003306198363580584
0.061661923435286356,0.007255694509103093,0.00033423996429417246
0.06146564972123603,0.007286476402392224,0.00033787550702204627
0.06125741402922776,0.00731715716832984,0.0003415264154147268
0.06103630459121618,0.007347730597984951,0.0003451926373563055
0.06080143840813459,0.007378190033734788,0.0003488741175142354
0.060551965486698014,0.007408528384708496,0.00035257079711884627
0.06028707312113191,0.007438738144360454,0.0003562826137511135
0.0600059901855433,0.007468811410187123,0.00036000950113975036
0.0597079914003654,0.0074987399055836,0.000363751388968693
0.05939240152061696,0.0075285150038138455,0.0003675082026960424
0.05905859937579257,0.007558127754037948,0.00037127986338550536
0.05870602168324263,0.007587568909302707,0.0003750662875513405
0.05833416656245128,0.007616828956364131,0.0003788673870177572
0.05794259668973778,0.007645898147177178,0.00038268306879364253
0.05753094204031197,0.00767476653185969,0.00038651323496340177
0.05709890216259921,0.007703423992910418,0.0003903577825945943
0.0566462479264629,0.007731860280432683,0.0003942166036629301
0.056172822696804486,0.0077600650480885,0.0003980895849950604
0.055678542911689624,0.007788027889490624,0.00040197660822945515
0.055163398077831695,0.007815738374738004,0.0004058775497955123
0.0546274502189072,0.007843186086812188,0.00040979228091089987
0.05407083281619337,0.007870360657570963,0.00041372066759699566
0.05349374927354756,0.007897251803093398,0.00041766257071216173
0.05289647093183461,0.007923849358144743,0.00042161784600247126
0.052279334656969226,0.007950143309541944,0.00042558634416939295
0.051642740025973424,0.007976123828212679,0.00042956791095383163
0.05098714612943153,0.00800178129975153,0.0004335623872358227
0.050313067996171065,0.008027106353282932,0.0004375696091490813
0.049621072636625164,0.00805208988844113,0.0004415894082095123
0.048911774706947846,0.008076723100277024,0.00044562161145669186
0.04818583181494134,0.008100997501907497,0.000449666041607238
0.04744393950653281,0.008124904944737865,0.0004537225172188993
0.04668682597753986,0.008148437636108882,0.000457790852864111
0.0459152465526088,0.008171588154241419,0.0004618708593116986
0.045129977969140686,0.008194349460371855,0.0004659623437153519
0.04433181250204949,0.008216714907989652,0.0004700651098074423
0.043521551967716815,0.008238678249107094,0.0004741789580967165
0.04270000165264669,0.008260233637512184,0.00047830368606837135
0.04186796421621882,0.0082813756289794,0.00048243908838499424
0.041026233612498984,0.00830209917843658,0.0004865849570868482
0.04017558907426152,0.00832239963410827,0.0004907410817899844
0.03931678921684932,0.008342272728681049,0.0004949072498806817
0.03845056634450255,0.008361714567571387,0.0004990832467047448
0.03757762105699474,0.00838072161442176,0.0005032688557502431
0.0366986172502775,0.00839929067399858,0.0005074638588223482
0.03581417759034279,0.008417418872708735,0.000511668036209025
0.0349248795286267,0.008435103636988477,0.0005158811668364493
0.034031251924468785,0.00845234266985175,0.0005201030284131594
0.03313377233967106,0.008469133925917785,0.0005243333975621017
0.032232865064117294,0.008485475585268732,0.0005285720499398983
0.031328899916190076,0.008501366026513808,0.0005328187603428439
0.030422191840067427,0.008516803799452872,0.0005370733027993356
0.029513001298611976,0.008531787597737543,0.0005413354506486332
0.028601535437217714,0.0085463162319215,0.000545604976606048
0.02768794996875724,0.008560388603272993,0.0005498816528148466
0.02677235170414793,0.00857400367869122,0.0005541652508853376
0.025854801635316536,0.008587160467026086,0.0005584555419217669
0.024935318474029165,0.008599857997053423,0.0005627522965377868
0.024013882557671336,0.008612095297311348,0.000567055284861378
0.02309044004302895,0.008623871377961523,0.0005713642765301962
0.022164907317590403,0.008635185214801678,0.000575679040678387
0.021237175565619226,0.008646035735522481,0.0005799993459159681
0.020307115435673897,0.008656421808272804,0.0005843249603019169
0.019374581770148946,0.008666342232574259,0.0005886556513121287
0.01843941837567452,0.008675795732610715,0.0005929911858034249
0.017501462829336616,0.008684780952911968,0.0005973313299748056
0.016560551320057366,0.008693296456449316,0.0006016758493271459
0.015616523516409074,0.008701340725158432,0.0006060245086225479
0.014669227441628125,0.008708912162897941,0.0006103770718445619
0.013718524331148275,0.008716009100841134,0.0006147333021604967
0.012764293444331528,0.008722629805285004,0.0006190929618870283
0.011806436793633477,0.008728772487844495,0.0006234558124603106
0.01084488374012646,0.008734435317977934,0.0006278216144117662
0.009879595387867481,0.008739616437759933,0.0006321901273507007
0.008910568697159768,0.00874431397878119,0.0006365611099548359
0.007937840234987838,0.008748526081014226,0.0006409343199697848
0.006961489493106011,0.008752250913446249,0.0006453095142184
0.005981641726788148,0.008755486696251223,0.0006496864486208244
0.004998470295334978,0.008758231724256754,0.0006540648782259514
0.004012198514791974,0.008760484391459286,0.0006584445572548804
0.003023101056148214,0.00876224321635202,0.0006628252391568331
0.0020315049277910397,0.008763506867848006,0.0006672066766778832
0.0010377900657118236,0.008764274191596382,0.0006715886219427442
4.238952983940723e-05,0.00876454423649527,0.0006759708265497671
-0.0009542107131726779,0.008764316281199436,0.0006803530416791908
-0.0019514724429841286,0.008763589860410398,0.0006847350182145933
-0.0029488062863210498,0.008762364790728071,0.0006891165068773779
-0.003945573259467239,0.008760641195841624,0.0006934972583740203
-0.004941086726072298,0.00875841953084524,0.000697877023555692
-0.0059346147267097,0.008755700605482043,0.0007022555535897738
-0.006925382629582533,0.00875248560614297,0.00070663260014268
-0.007912576059116869,0.008748776116470795,0.0007110079155733334
-0.008895344079215163,0.008744574136436211,0.0007153812531365602
-0.009872802630402574,0.008739882099758806,0.0007197523671956089
-0.010844038231522675,0.008734702889543325,0.0007241210134429345
-0.011808111950956265,0.008729039851997706,0.0007284869491283198
-0.012764063636309088,0.008722896808100889,0.0007328499332933445
-0.013710916375740173,0.008716278063097877,0.0007372097270111442
-0.014647681151615884,0.008709188413716039,0.0007415660936303477
-0.015573361634567639,0.008701633153019493,0.0007459187990220315
-0.016486959052087167,0.008693618072847829,0.0007502676118284983
-0.017387477051493724,0.008685149463821934,0.0007546123037126658
-0.018273926462296298,0.008676234112943486,0.0007589526496068572
-0.019145329849126775,0.00866687929886563,0.0007632884279598094
-0.02000072574212434,0.008657092784967818,0.0007676194209807678
-0.020839172446467352,0.00864688281042067,0.0007719454148796149
-0.021659751364925147,0.008636258079467822,0.0007762662001020871
-0.022461569804619518,0.008625227749175436,0.0007805815715592479
-0.023243763272194566,0.008613801415906232,0.0007848913288505183
-0.024005497288786773,0.008601989100765987,0.0007891952764796864
-0.02474596877828906,0.008589801234249218,0.0007934932240634402
-0.025464407098890755,0.008577248640279924,0.0007977849865320725
-0.02616007479992517,0.00856434251980522,0.0008020703843220938
-0.026832268193163866,0.008551094434056949,0.0008063492435605593
-0.027480317827975487,0.008537516287551663,0.0008106213962409615
-0.028103588953565926,0.008523620310856277,0.0008148866803905635
-0.028701482042497624,0.008509419043107262,0.0008191449402290544
-0.02927343343970097,0.008494925314236712,0.0008233960263183904
-0.02981891618951822,0.008480152226829407,0.000827639795703657
-0.03033744107926353,0.008465113137512211,0.0008318761120447424
-0.030828557921894244,0.008449821637761923,0.0008361048457385608
-0.03129185708403994,0.00843429153401044,0.0008403258740315039
-0.03172697125079911,0.008418536826926731,0.0008445390811217382
-0.03213357740807115,0.008402571689762014,0.0008487443582509104
-0.032511399019607715,0.008386410445655095,0.0008529416037847647
-0.03286020837739223,0.008370067543805844,0.0008571307232821299
-0.033179829102249814,0.008353557534435934,0.0008613116295516904
-0.03347013876225319,0.008336895042469808,0.0008654842426959169
-0.03373107156538908,0.008320094739887898,0.0008696484901415063
-0.033962621077161706,0.00830317131672726,0.00087380430665566
-0.034164842912694046,0.008286139450729797,0.0008779516343475242
-0.034337857353170555,0.00826901377566333,0.0008820904226541225
-0.03448185183825947,0.008251808848365473,0.0008862206283101297
-0.03459708328973282,0.008234539114583475,0.0008903422153008669
-0.03468388022773651,0.008217218873704107,0.0008944551547979387
