acceleration,velocity,displacement
0.023859923223354118,0.0,0.0
0.022133084045690567,1.1498251817261171e-05,2.874562954315293e-09
0.02041075014127876,2.2134210364003505e-05,1.1282678499631462e-08
0.01869740182204821,3.1911248354835246e-05,2.4794043179341152e-08
0.016997469874192737,4.083496627889548e-05,4.2980596837773835e-08
0.015315311750798161,4.8913161685143204e-05,6.54176288287835e-08
0.013655188821723842,5.6155786828273705e-05,9.168486595713773e-08
0.012021244912982315,6.257489526195024e-05,1.2136753647969373e-07
0.010417486301368893,6.818457806553805e-05,1.540574048115658e-07
0.008847763270564125,7.30008904585213e-05,1.8935377194258063e-07
0.007315753286296317,7.704176959773642e-05,2.2686443695664505e-07
0.0058249458132176605,8.032694437261492e-05,2.6620661544923287e-07
0.004378628773838285,8.28778380193789e-05,3.0700781104723135e-07
0.0029798766353075893,8.471746437166537e-05,3.489066366449924e-07
0.0016315400986329385,8.587031855515051e-05,3.9155358237669636e-07
0.0003362373575972934,8.636226291920806e-05,4.34611727745286e-07
-0.0009036531077523526,8.62204089816693e-05,4.777573957205053e-07
-0.002085998239752116,8.547299614479318e-05,5.20680747002121e-07
-0.003208914659665368,8.414926791993881e-05,5.630863130183039e-07
-0.004270771536492776,8.227934637089928e-05,6.046934665910135e-07
-0.005270192152524729,7.98941054486449e-05,6.452368295458995e-07
-0.006206054259655521,7.702504384559983e-05,6.844666168694607e-07
-0.007077489311846064,7.370415795272444e-05,7.221489173190418e-07
-0.007883880632553034,6.996381546662467e-05,7.580659106738791e-07
-0.008624860539255085,6.583663017367264e-05,7.920160220839534e-07
-0.009300306417245448,6.135533843454751e-05,8.238140142360084e-07
-0.009910335728379797,5.65526778981412e-05,8.532910183191806e-07
-0.010455299961564284,5.1461268975655185e-05,8.802945050376297e-07
-0.010935777567022735,4.611349959350843e-05,9.046881971799206e-07
-0.011352565943502431,4.054141371587714e-05,9.26351925507267e-07
-0.011706672550967218,3.477660409225973e-05,9.451814299593012e-07
-0.01199930520117279,2.885010965422473e-05,9.610881083959223e-07
-0.012231861551066998,2.2792317966164782e-05,9.739987153010196e-07
-0.012405917808510167,1.6632873126270492e-05,9.838550130741285e-07
-0.012523216663835856,1.0400589508183986e-05,9.90613378732742e-07
-0.012585654475969882,4.123371723232551e-06,9.942443690405962e-07
-0.01259526775798428,-2.1718588352559896e-06,9.947322472625903e-07
-0.012554219022938292,-8.459230530486632e-06,9.920744749211546e-07
-0.012464782070011143,-1.471398080372399e-05,9.86281172087602e-07
-0.01232932681168145,-2.091250802414714e-05,9.773745498806342e-07
-0.012150303759085294,-2.7032415666838824e-05,9.653883189578876e-07
-0.011930228292795405,-3.3052548679809e-05,9.503670778712256e-07
-0.011671664853118876,-3.895302196628757e-05,9.323656852097015e-07
-0.0113772111881654,-4.4715240976608644e-05,9.114486194739774e-07
-0.01104948279407842,-5.03219144721696e-05,8.876893306117829e-07
-0.010691097668221487,-5.575705958774458e-05,8.611695870968043e-07
-0.010304661478682763,-6.100599937447064e-05,8.319788223562505e-07
-0.009892753242400123,-6.605535305474136e-05,8.002134842489475e-07
-0.00945791160604731,-7.089301926685321e-05,7.659763911685488e-07
-0.009002621836540232,-7.55081526275001e-05,7.293760981949605e-07
-0.008529303640699423,-7.989113399681001e-05,6.905262765388829e-07
-0.008040299934071881,-8.403353489050283e-05,6.495451093170547e-07
-0.007537866663941152,-8.792807654000609e-05,6.065547064594276e-07
-0.007024163769223018,-9.156858414829713e-05,5.616805412873518e-07
-0.0065012473380845785,-9.494993692512403e-05,5.150509110189965e-07
-0.005971063002751018,-9.806801451033293e-05,4.6679642316013223e-07
-0.005435440587387861,-0.00010091964040786765,4.1704950943058206e-07
-0.004896090003211193,-0.00010350252305551741,3.659439685647358e-07
-0.004354598371615764,-0.00010581519514922415,3.136145390135504e-07
-0.00381242835219397,-0.00010785695183017659,2.601965022687002e-07
-0.0032709176530846345,-0.00010962778833149623,2.0582531722828201e-07
-0.0027312796994150125,-0.00011112833766962114,1.5063628572800266e-07
-0.002194605426061356,-0.00011235980895099023,9.476424907284983e-08
-0.0016618661426631728,-0.00011332392684317137,3.834331512430942e-08
-0.0011339173971499947,-0.00011402287272812466,-1.8493384768514583e-08
-0.000611503744784773,-0.00011445922801360836,-7.561390995394783e-08
-9.526431316112147e-05,-0.00011463592002809484,-1.3288769696437364e-07
0.00041426096284454504,-0.00011455617086567398,-1.9018571968781584e-07
0.0009166245749185025,-0.00011422344948123322,-2.473806247745426e-07
0.0014114642824263825,-0.000113641427266897,-3.043468439615752e-07
0.0018984956828766433,-0.00011281393727557125,-3.6096068509719223e-07
0.0023775046113219227,-0.0001117449372020216,-4.1710040371659043e-07
0.0028483394526152097,-0.00011043847618603731,-4.7264625706360515e-07
0.0033109034446938755,-0.00010889866546171004,-5.274805424755419e-07
0.0037651470494305525,-0.00010712965283817894,-5.814876220505141e-07
0.004211060465503053,-0.00010513560095944554,-6.345539354999202e-07
0.004648666354408418,-0.00010292066925446768,-6.865680030533985e-07
0.005078012844465062,-0.00010048899945474931,-7.374204202307027e-07
0.005499166865381226,-9.784470452728774e-05,-7.87003846226212e-07
0.00591220784919858,-9.499186084864279e-05,-8.352129875701947e-07
0.006317221818252657,-9.193450343177998e-05,-8.819445786403004e-07
0.00671429587032585,-8.867662400963535e-05,-9.270973605006542e-07
0.007103513064347191,-8.522217177596709e-05,-9.705720594470547e-07
0.007484947706280201,-8.157505658331024e-05,-1.012271366536874e-06
0.007858661033663594,-7.77391543983243e-05,-1.0520999192822827e-06
0.008224697295493714,-7.371831481603496e-05,-1.0899642865858726e-06
0.00858308022228826,-6.951637043658947e-05,-1.1257729578990286e-06
0.008933809885398703,-6.513714790966773e-05,-1.1594363374855928e-06
0.009276859956925282,-6.058448044908674e-05,-1.1908667445752814e-06
0.009612175395901128,-5.5862221610880134e-05,-1.2199784200902732e-06
0.009939670596200463,-5.0974260112854734e-05,-1.2466875405212069e-06
0.010259228034339148,-4.592453545521983e-05,-1.2709122394132255e-06
0.010570697452302076,-4.071705408355953e-05,-1.2925726367979202e-06
0.010873895604045124,-3.535590581947272e-05,-1.3115908767736782e-06
0.011168606583086691,-2.9845280272689768e-05,-1.327891173296719e-06
0.011454582726469986,-2.4189482945300597e-05,-1.3413998641012165e-06
0.011731546055896349,-1.8392950749709012e-05,-1.352045472524969e-06
0.011999190182535553,-1.2460266690101036e-05,-1.3597587768849214e-06
0.012257182585974991,-6.396173497973399e-06,-1.36447288693194e-06
0.01250516718549996,-2.055860551046612e-07,-1.3661233268202096e-06
0.012742767142529308,6.106397526902656e-06,-1.36464812395226e-06
0.012969587851693998,1.2534486275458484e-05,-1.3599879030016699e-06
0.013185220087783509,1.907318826032786e-05,-1.3520859843677234e-06
0.013389243276727126,2.571680410145552e-05,-1.3408884862772776e-06
0.013581228856137223,3.245942213467161e-05,-1.3263444297182459e-06
0.01376074369244494,3.929491527181715e-05,-1.3084058453666236e-06
0.013927353528182126,4.6216939576973915e-05,-1.2870278816544259e-06
0.014080626437231071,5.321893456832722e-05,-1.2621689131181005e-06
0.014220136266397643,6.02941252442344e-05,-1.23379064816496e-06
0.014345466048593344,6.743552582298214e-05,-1.2018582353981558e-06
0.01445621139363964,7.463594518354038e-05,-1.1663403676465252e-06
0.014551983887720814,8.188799400388049e-05,-1.12720938284967e-06
0.014632414544342118,8.918409361189622e-05,-1.0844413609457257e-06
0.014697157342428331,9.651648658358883e-05,-1.0380162158968545e-06
0.014745892868835857,0.00010387724913640487,-9.87917781966856e-07
0.014778332062193549,0.00011125830536916223,-9.341338933404643e-07
0.014794220036032533,0.00011865144339371875,-8.76656456149744e-07
0.014793339942279502,0.00012604833338829676,-8.154815119542401e-07
0.014775516821970912,0.00013344054757935935,-7.506092917123261e-07
0.014740621379587636,0.00014081958212974898,-6.820442592850491e-07
0.014688573610055497,0.00014817688087715976,-6.097951435333218e-07
0.01461934619994855,0.00015550386082966076,-5.338749581066168e-07
0.014532967614962361,0.0001627919392833885,-4.5430100807835445e-07
0.014429524778389683,0.0001700325623817265,-3.710948826620757e-07
0.014309165246845402,0.00017721723488803529,-2.8428243334463525e-07
0.014172098804265803,0.00018433755090081308,-1.9389373689742315e-07
0.014018598421704427,0.00019138522520730563,-9.996304287039345e-08
0.013849000561759922,0.00019835212495317173,-2.5287053302741183e-09
0.013663704835775866,0.00020523030130255567,9.836690123365774e-08
0.013463173044947235,0.00021201202077273645,2.0267748175248076e-07
0.013247927650305824,0.0002186897959465497,3.103529359323023e-07
0.013018549720143819,0.00022525641528916212,4.2133948874123026e-07
0.012775676399682072,0.0002317049718191186,5.355798355183004e-07
0.012519997942152465,0.0002380288904045772,6.530133010742244e-07
0.01225225433729133,0.00024422195347443816,7.735760120439783e-07
0.011973231573825984,0.00025027832495221747,8.972010816506422e-07
0.011683757575543055,0.00025619257223955975,1.0238188059485865e-06
0.01138469785324062,0.00026195968609675567,1.1533568705326654e-06
0.011076950915057466,0.0002675750982888302,1.285740566629062e-06
0.010761443474637472,0.0002730346968862539,1.420893015422833e-06
0.010439125491767787,0.00027833483912785524,1.5587353994263602e-06
0.010110965075257662,0.0002834723617696116,1.699187199650727e-06
0.009777943273530047,0.00028844458885680853,1.842166437307332e-06
0.009441048776704923,0.0002932493368693673,1.987589918738876e-06
0.00910127255774291,0.00029788491720297925,2.1353734822569628e-06
0.008759602488448344,0.0003023501359645271,2.2854322455488394e-06
0.008417017973595219,0.00030664429108003796,2.4376808523099806e-06
0.008074484652355324,0.0003107671667365256,2.5920337167641214e-06
0.007732949225055774,0.0003147190252058784,2.7484052647497223e-06
0.00739333447464059,0.0003185005961308025,2.9067101700838926e-06
0.007056534558407671,0.00032211306338906457,3.0668635849638594e-06
0.006723410639767226,0.0003255580496886083,3.2287813632332777e-06
0.006394786912532964,0.00032883759907668334,3.3923802754246007e-06
0.006071447050060391,0.00033195415756733166,3.5575782145856043e-06
0.005754131098083604,0.00033491055210436765,3.7242943920035292e-06
0.005443532829690647,0.0003377099680863112,3.892449522051199e-06
0.005140297593624714,0.00034035592569214005,4.061965995495811e-06
0.004845020707306516,0.0003428522552673729,4.232768040735689e-06
0.004558246462685077,0.0003452030720598708,4.4047818725675e-06
0.00428046781388992,0.0003474127506290145,4.577935828239722e-06
0.0040121267968986326,0.00034948589928171167,4.7521604907174035e-06
0.0037536156994526482,0.0003514273349057995,4.927388799264281e-06
0.003505278961182205,0.00035324205857095823,5.1035561476334705e-06
0.0032674157407911286,0.0003549352322464516,5.280600470337823e-06
0.003040283043904746,0.0003565121569426255,5.4584623176350925e-06
0.0028240992733130407,0.00035797825252192997,5.637084920001232e-06
0.0026190480527174226,0.0003593390393534376,5.8164142429700735e-06
0.00242528218483961,0.0003606001219128268,5.996399033286639e-06
0.0022429276249830597,0.0003617671743652825,6.176990857356167e-06
0.002072087373607599,0.00036284592811493017,6.3581441329762205e-06
0.001912845213492173,0.0003638421612617051,6.539816155320379e-06
0.0017652692351595384,0.00036476168987386806,6.721967118104272e-06
0.0016294151003472966,0.00036561036095774475,6.904560130812175e-06
0.0015053289858280887,0.0003663940469792886,7.087561232796433e-06
0.001393050142334846,0.00036711864176132934,7.270939404981588e-06
0.0012926130123398585,0.000367790057549998,7.4546665798094196e-06
0.0012040488751400972,0.000368414223021868,7.638717649952385e-06
0.0011273870134204042,0.00036899708199400813,7.823070476206354e-06
0.001062655412614947,0.00036954459260051697,8.007705894854986e-06
0.0010098810150349663,0.00037006272670742947,8.192607724681973e-06
0.0009690895599341553,0.00037055746935117173,8.377762773696624e-06
0.0009403050487528245,0.00037103481800334346,8.563160845535253e-06
0.0009235488792872147,0.00037150078148535346,8.748794745407427e-06
0.0009188386932269773,0.000371961378378482,8.934660285373386e-06
0.0009261869806541406,0.0003724226347969523,9.120756288667245e-06
0.0009455994828267404,0.00037289058141282247,9.30708459271969e-06
0.0009770734303855264,0.00037337124964112553,9.493650050483176e-06
0.001020595649747683,0.00037387066691115884,9.680460529621247e-06
0.001076140566010064,0.00037439485096509825,9.86752690909031e-06
0.0011436681227437542,0.00037494980313728673,1.0054863072615907e-05
0.0012231216288636814,0.0003755415005751886,1.0242485898544026e-05
0.001314425538441525,0.00037617588736701485,1.0430415245529576e-05
0.0014174831755475233,0.0003768588645455121,1.0618673933507708e-05
0.0015321744280325422,0.0003775962789464071,1.0807287719380688e-05
0.0016583534450405639,0.0003783939109146754,1.0996285266845959e-05
0.0017958463810844815,0.0003792574608712066,1.1185698109792429e-05
0.0019444492346848733,0.000380192534775149,1.1375560608704018e-05
0.002103925830803751,0.00038120462854152114,1.1565909899533184e-05
0.0022740059917889075,0.0003822991114971693,1.1756785834542857e-05
0.0024543839303165695,0.0003834812089776957,1.1948230914661573e-05
0.002644716885048944,0.0003847559841815371,1.2140290212951382e-05
0.0028446240142981937,0.00038612831940637387,1.233301128884836e-05
0.0030536855649396766,0.00038760289680118336,1.2526444092900249e-05
0.003271442332305989,0.0003891841787754948,1.2720640861794418e-05
0.003497395416858304,0.00039087638821278583,1.2915656003541489e-05
0.0037310062729672055,0.0003926834886352422,1.3111545972753497e-05
0.003971697041173626,0.0003946091644637774,1.3308369136028251e-05
0.004218851152057898,0.00039665680151208533,1.3506185627522216e-05
0.004471814179103249,0.0003988294678448756,1.3705057194861457e-05
0.0047298948991683675,0.0004011298951144435,1.3905047035601286e-05
0.004992366499774361,0.0004035604604641792,1.4106219624495943e-05
0.005258467860649397,0.0004061231690542851,1.4308640531875559e-05
0.005527404837055669,0.00040881963722871136,1.4512376233446308e-05
0.005798351483075705,0.0004116510763087442,1.4717493911830671e-05
0.006070451171059065,0.00041461827697227786,1.4924061250150927e-05
0.006342817585636037,0.0004177215941614516,1.5132146217934358e-05
0.006614535593119322,0.00042096093245614047,1.5341816849588757e-05
0.00688466200623872,0.00042433573185598,1.5553141015666786e-05
0.007152226276582179,0.0004278449539266852,1.576618618711245e-05
0.007416231147464084,0.00043148706828269675,1.5981019192664796e-05
0.007675653286011597,0.0004352600393910657,1.6197705969583235e-05
0.00792944389268196,0.0004391613136857391,1.6416311307852438e-05
0.008176529272375572,0.0004431878069770035,1.6636898588018123e-05
0.00841581135120451,0.0004473358921328985,1.68595295127956e-05
0.008646168136184008,0.0004516013870047457,1.708426383258001e-05
0.008866454137892313,0.00045597954257326477,1.7311159064974514e-05
0.009075500805307059,0.0004604650313090646,1.7540270208445098e-05
0.009272117056524578,0.00046505193577452256,1.7771649450215994e-05
0.009455090026031766,0.0004697337375451616,1.8005345868545915e-05
0.009623186177879611,0.00047450330659613946,1.824140512958124e-05
0.009775152942375066,0.00047935289137620316,1.8479869179074326e-05
0.009909721021095368,0.00048427410986707077,1.8720775929385143e-05
0.01002560748197361,0.000489257941992838,1.896415894235012e-05
0.010121519742610276,0.000494294723798984,1.9210047108798075e-05
0.010196160516337866,0.0004993741438637211,1.945846432571375e-05
0.010248233766919588,0.0005044852424345355,1.9709429172288315e-05
0.010276451680989757,0.0005096164137965129,1.996295458634608e-05
0.010279542623834743,0.000514755412372719,2.0219047542888386e-05
0.010256259996964919,0.0005198893630279189,2.0477708736738545e-05
0.010205391871448324,0.0005250047759950222,2.073893227149428e-05
0.010125771238708727,0.0005300875667725614,2.1002705357186176e-05
0.010016286708124475,0.0005351230812592697,2.1269008019194134e-05
0.009875893486180058,0.0005400961263078458,2.153781282108591e-05
0.009703624484701403,0.0005449910058005662,2.1809084604113013e-05
0.009498601416713824,0.0005497915622759199,2.2082780246132135e-05
0.009260045743859493,0.0005544812240660632,2.235884844271763e-05
0.008987289338946295,0.0005590430578367647,2.263722951319334e-05
0.008679784720411723,0.0005634598263516042,2.2917855234240432e-05
0.00833711470220751,0.000567714051207259,2.3200648703630148e-05
0.007959001287454638,0.0005717880802046745,2.348552423648313e-05
0.007545313626746281,0.0005756641589332248,2.3772387296267606e-05
0.0070960748694212875,0.0005793245060572667,2.4061134462515228e-05
0.006611467757934496,0.0005827513917141057,2.435165343695807e-05
0.006091838845523196,0.0005859272183649701,2.464382308947784e-05
0.005537701250485285,0.0005888346033889722,2.4937513544916324e-05
0.004949735892636826,0.0005914564626747528,2.5232586311432254e-05
0.004328791182332051,0.000593776094443495,2.5528894450711817e-05
0.0036758811447838284,0.0005957772625252739,2.582628278995401e-05
0.002992181966970868,0.0005974442783032125,2.6124588175161132e-05
0.0022790269636866183,0.0005987620805358769,2.6423639764870906e-05
0.0015378999810599242,0.0005997163122720635,2.672325936307289e-05
0.0007704272863250889,0.0006002933940889097,2.7023261789663134e-05
-2.163197645677708e-05,0.0006004805929163768,2.7323455286414454e-05
-0.0008363966554748088,0.0006002660857583939,2.7623641956083147e-05
-0.0016718756455866752,0.0005996390176831285,2.7923618231943527e-05
-0.0025259809617348113,0.0005985895535312981,2.8223175374747135e-05
-0.0033965416505260513,0.0005971089228782329,2.8522099993849517e-05
-0.0042813183605477905,0.0005951894578754644,2.882017458903794e-05
-0.00517801840309421,0.0005928246236845539,2.9117178109427945e-05
-0.0060843111438908274,0.0005900090412978077,2.9412886525673535e-05
-0.006997843564055812,0.000586738502620821,2.9707073411653193e-05
-0.00791625581565538,0.0005830099777758932,2.999951053175237e-05
-0.008837196584523959,0.0005788216146758484,3.0289968429865306e-05
-0.009758338072806214,0.0005741727310115158,3.057821701628715e-05
-0.010677390430753431,0.0005690637988856259,3.0864026148761434e-05
-0.011592115496325968,0.0005634964224038561,3.1147166204083806e-05
-0.012500339732087239,0.0005574733085967527,3.142740863683396e-05
-0.013399966274876081,0.0005509982320950119,3.17045265220069e-05
-0.014288986034532662,0.0005440759940176596,3.197829507853507e-05
-0.015165487794240998,0.0005367123755604663,3.22484921709296e-05
-0.016027667275330556,0.0005289140867930734,3.251489878651798e-05
-0.016873835132480103,0.0005206887111911207,3.277729948601403e-05
-0.01770242384546782,0.0005120446464466338,3.303548282542347e-05
-0.01851199347703131,0.000502991042116009,3.328924174756413e-05
-0.019301236275081478,0.0004935377346779807,3.353837394176263e-05
-0.020068980110234353,0.00048369518058165176,3.3782682170577536e-05
-0.020814190755539856,0.0004734743878652082,3.402197456268925e-05
-0.021535973030742155,0.0004628868469186377,3.425606487138521e-05
-0.0222335708411223,0.0004519444609506716,3.448477269835254e-05
-0.022906366137563673,0.00044065947670600007,3.4707923682766706e-05
-0.023553876815199527,0.00042904441596780925,3.4925349655935155e-05
-0.02417575356112604,0.00041711200837372785,3.513688876202054e-05
-0.024771775660216763,0.0004048751260683921,3.534238554563107e-05
-0.025341845770154855,0.0003923467207107992,3.554169100732587e-05
-0.02588598368293703,0.0003795397633475262,3.573466262834045e-05
-0.02640431910676263,0.0003664671876501013,3.5921164366089855e-05
-0.02689708353159737,0.00035314183699051125,3.6101066622250006e-05
-0.027364601272852104,0.0003395764157893989,3.627424618544498e-05
-0.027807279807945895,0.0003257834455191994,3.644058615077213e-05
-0.02822559953064287,0.0003117752256845522,3.659997581857307e-05
