frame_number,force
0,701.2812499999019
1,701.108415638441
2,700.9369407304882
3,700.7681426326036
4,700.603257232556
5,700.4434046377941
6,700.2895616318435
7,700.1425419066572
8,700.0029844111604
9,699.8713495806243
10,699.7479227705899
11,699.6328239402759
12,699.5260225018709
13,699.4273562162299
14,699.336553022846
15,699.2532547449799
16,699.1770417210265
17,699.1074575308875
18,699.0440330204034
19,698.9863087512338
20,698.9338549071196
21,698.8862877032532
22,698.8432815554844
23,698.8045766702891
24,698.7699822235386
25,698.7393757233581
26,698.7126993118649
27,698.6899536065305
28,698.6711893652017
29,698.6564970247941
30,698.6459941873799
31,698.6398114045857
32,698.6380769648471
33,698.640901601718
34,698.6483640345036
35,698.6604981154696
36,698.6772822046564
37,698.6986312366472
38,698.7243917454051
39,698.7543398911228
40,698.7881823525457
41,698.825559830997
42,698.8660528226188
43,698.909189249531
44,698.9544535539925
45,699.0012969748133
46,699.049148873217
47,699.097429045037
48,699.1455608747862
49,699.1929849771641
50,699.239172754389
51,699.2836392097533
52,699.3259544332258
53,699.3657533279456
54,699.402743288441
55,699.4367096754163
56,699.4675190873023
57,699.4951205631684
58,699.5195448927019
59,699.5409021473527
60,699.5593774380383
61,699.5752248248155
62,699.5887593166085
63,699.6003470149521
64,699.6103936167393
65,699.6193316333884
66,699.6276068060432
67,699.6356643263936
68,699.6439355723344
69,699.6528260334364
70,699.6627048986746
71,699.6738965191256
72,699.6866737851637
73,699.7012534034857
74,699.7177930602135
75,699.7363904608638
76,699.7570842364676
77,699.7798566775512
78,699.8046381700124
79,699.8313130743644
80,699.8597266783494
81,699.889692797366
82,699.9210015833999
83,699.9534271251925
84,699.9867344728514
85,700.0206857633813
86,700.0550451647355
87,700.0895824625874
88,700.1240753076664
89,700.1583103547068
90,700.1920836833397
91,700.2252009697747
92,700.2574778881601
93,700.2887411887856
94,700.3188308124157
95,700.3476031870556
96,700.3749355001961
97,700.4007303845613
98,700.4249202991906
99,700.4474709928521
100,700.4683836805468
101,700.4876957846726
102,700.5054802116618
103,700.5218431542786
104,700.5369203888273
105,700.5508720596197
106,700.5638760208698
107,700.5761198590506
108,700.5877917283741
109,700.5990702129318
110,700.6101136624256
111,700.6210497279911
112,700.6319659580711
113,700.642902235297
114,700.6538456316074
115,700.6647280313323
116,700.6754266584322
117,700.6857674504041
118,700.6955310550012
119,700.7044610980402
120,700.7122742735019
121,700.718671703945
122,700.7233508912849
123,700.7260174685363
124,700.7263959480188
125,700.7242387893749
126,700.7193333641655
127,700.711506697438
128,700.7006281439219
129,700.6866103618974
130,700.6694090492269
131,700.6490218919163
132,700.6254870797139
133,700.5988816263025
134,700.5693196423757
135,700.5369506645253
136,700.5019581259683
137,700.4645580384528
138,700.4249979139465
139,700.383555882819
140,700.3405398789162
141,700.2962866808696
142,700.2511605312558
143,700.2055510228708
144,700.1598699779936
145,700.1145471391308
146,700.0700245822976
147,700.0267498478577
148,699.9851679071021
149,699.9457122424695
150,699.908795429243
151,699.8747995889487
152,699.8440669488929
153,699.8168905776492
154,699.7935052820982
155,699.7740787152649
156,699.7587029564158
157,699.7473871217447
158,699.7400518215487
159,699.7365263615566
160,699.7365494470988
161,699.7397738605807
162,699.745775218784
163,699.7540644939228
164,699.7641035505466
165,699.7753226369335
166,699.7871386832027
167,699.7989733876059
168,699.8102703092583
169,699.8205104367679
170,699.8292259388362
171,699.8360119864222
172,699.840536578238
173,699.842548183657
174,699.8418808925154
175,699.8384568125948
176,699.8322856762979
177,699.8234618459801
178,699.8121590372718
179,699.7986231364347
180,699.7831635281487
181,699.7661433796867
182,699.7479693191241
183,699.729080898974
184,699.7099401771846
185,699.6910216780886
186,699.6728029117205
187,699.6557555502976
188,699.6403372870486
189,699.6269842985696
190,699.6161041097113
191,699.6080686106683
192,699.6032070505195
193,699.6017989747156
194,699.604067213227
195,699.6101711390739
196,699.6202005019856
197,699.6341701879044
198,699.6520162390699
199,699.6735933805312
200,699.6986741932766
201,699.7269500487718
202,699.7580339739802
203,699.7914656293295
204,699.8267184963423
205,699.8632092766583
206,699.9003094738413
207,699.9373591016895
208,699.9736823436639
209,700.0086047740521
210,700.0414715220181
211,700.0716656084209
212,700.0986256587178
213,700.1218622795789
214,700.140972547884
215,700.1556522642422
216,700.165705826135
217,700.1710537407837
218,700.171737888775
219,700.1679246088145
220,700.1599054778286
221,700.1480953966745
222,700.1330274066478
223,700.1153436396696
224,700.0957819406592
225,700.0751579529065
226,700.0543427922706
227,700.0342368436354
228,700.0157406606276
229,699.9997243188706
230,699.9869967289657
231,699.9782763503438
232,699.9741645802715
233,699.9751229291512
234,699.9814549385474
235,699.9932935948541
236,700.0105947025675
237,700.0331363183004
238,700.0605239450708
239,700.0922008094542
240,700.127462297924
241,700.1654735948538
242,700.2052897159036
243,700.2458773520409
244,700.2861381249747
245,700.3249329615699
246,700.3611073192163
247,700.3935169281134
248,700.4210535576883
249,700.4426701147421
250,700.4574042452961
251,700.4643996224012
252,700.4629242521247
253,700.4523853533201
254,700.4323406082691
255,700.4025057981942
256,700.3627589600203
257,700.3131411751101
258,700.2538539816445
259,700.1852533307384
260,700.1078400718571
261,700.0222471157705
262,699.929223595335
263,699.8296165075617
264,699.724350499845
265,699.6144066172313
266,699.5008008582112
267,699.3845632555036
268,699.2667179773358
269,699.148264765613
270,699.0301619926645
271,698.9133117199735
272,698.798547261508
273,698.6866237552977
274,698.5782120764794
275,698.4738961405644
276,698.3741733588159
277,698.27945779195
278,698.1900854078243
279,698.1063207712518
280,698.0283644969572
281,697.9563608904313
282,697.8904053374661
283,697.8305511106953
284,697.7768153174853
285,697.7291837290204
286,697.6876142131329
287,697.6520384818406
288,697.6223619381041
289,697.5984616005729
290,697.5801823396268
291,697.5673318807549
292,697.5596751858574
293,697.5569289295192
294,697.5587568383082
295,697.5647665840146
296,697.5745086906791
297,697.587477649865
298,697.6031152784025
299,697.6208162897198
300,697.6399359973714
301,697.65980001095
302,697.6797157351076
303,697.6989853889278
304,697.7169200668495
305,697.7328541245249
306,697.7461590549187
307,697.7562561336409
308,697.7626274070864
309,697.7648249112256
310,697.7624782348424
311,697.7553006912556
312,697.7430944633542
313,697.7257550795688
314,697.7032754001932
315,697.675749009694
316,697.6433726667016
317,697.6064473283998
318,697.5653772237018
319,697.5206664970805
320,697.4729130881166
321,697.4227997174495
322,697.3710820894653
323,697.3185746876537
324,697.2661347751822
325,697.2146453396565
326,697.1649977179297
327,697.118074533726
328,697.0747334095557
329,697.0357917330215
330,697.0020126336448
331,696.9740922559351
332,696.9526483415596
333,696.9382100582836
334,696.9312089975122
335,696.9319713197181
336,696.9407110895363
337,696.9575248616849
338,696.9823875961174
339,697.0151500454414
340,697.0555378454112
341,697.1031526128899
342,697.1574754263689
343,697.2178731133433
344,697.283607707965
345,697.35384923969
346,697.4276917546068
347,697.5041722313531
348,697.5822918220356
349,697.6610386113335
350,697.7394108874937
351,697.8164398103685
352,697.8912103699814
353,697.9628796780321
354,698.0306919403035
355,698.0939898707446
356,698.1522227014776
357,698.2049511951149
358,698.2518501609618
359,698.2927090000771
360,698.3274308116931
361,698.3560305371011
362,698.3786324391314
363,698.3954669659207
364,698.4068668641045
365,698.4132623763577
366,698.4151754122925
367,698.4132125777592
368,698.4080568693704
369,698.4004578118371
370,698.3912199025159
371,698.3811893619892
372,698.3712392796132
373,698.3622532559493
374,698.3551076190462
375,698.3506523348826
376,698.349690921347
377,698.352959938644
378,698.3611088097067
379,698.3746807721639
380,698.3940957834394
381,698.4196362819607
382,698.4514367809921
383,698.4894781973826
384,698.5335875632542
385,698.583443422024
386,698.6385868563243
387,698.6984377633449
388,698.7623157023845
389,698.8294644362612
390,698.8990792037752
391,698.9703357457805
392,699.0424200586367
393,699.1145577142139
394,699.1860414315437
395,699.2562555396692
396,699.3246960983041
397,699.3909856898216
398,699.4548821607651
399,699.5162808177256
400,699.5752098144909
401,699.631818814871
402,699.6863615287011
403,699.7391732945354
404,699.790645324852
405,699.8411973950753
406,699.8912506543745
407,699.941201993416
408,699.9914011455423
409,700.0421314495526
410,700.0935949285521
411,700.1459020275823
412,700.199066039296
413,700.2530019852342
414,700.3075295375809
415,700.362379450913
416,700.4172029229427
417,700.4715833472995
418,700.5250500381294
419,700.5770935848733
420,700.6271824587667
421,700.6747803859881
422,700.7193639217916
423,700.7604396538711
424,700.7975605064414
425,700.8303406389672
426,700.8584683947984
427,700.8817166995823
428,700.899950326342
429,700.9131295911891
430,700.9213103201797
431,700.9246402726956
432,700.9233525105323
433,700.9177563826295
434,700.9082268649937
435,700.8951930062318
436,700.8791261940529
437,700.8605288615319
438,700.8399240768471
439,700.8178461806237
440,700.794832272016
441,700.7714140607079
442,700.7481096149916
443,700.7254148658163
444,700.7037951366882
445,700.683677220759
446,700.6654425809788
447,700.649422184361
448,700.6358933380349
449,700.6250786738378
450,700.6171471509532
451,700.6122166648452
452,700.6103576403708
453,700.6115969289488
454,700.6159214575476
455,700.623281325775
456,700.6335923044459
457,700.6467379093
458,700.6625714152306
459,700.6809182924994
460,700.7015795062233
461,700.7243359165861
462,700.7489537220698
463,700.7751906044799
464,700.8028020652141
465,700.831547434937
466,700.8611951596614
467,700.8915271558213
468,700.9223422301603
469,700.9534586932963
470,700.9847162859102
471,701.0159774132977
472,701.0471275573191
473,701.0780746837717
474,701.108747481214
475,701.1390923020526
476,701.1690687157131
477,701.198643687408
478,701.2277846227347
479,701.2564518337422
480,701.2845912779356
481,701.3121286038289
482,701.3389655541282
483,701.3649795917701
484,701.3900272072846
485,701.4139507935911
486,701.4365883684924
487,701.45778494096
488,701.4774040852512
489,701.4953383672377
490,701.5115175974041
491,701.525914306573
492,701.5385462141109
493,701.5494757299809
494,701.558806716424
495,701.5666788810117
496,701.5732603075049
497,701.5787387239986
498,701.5833121212456
499,701.5871792749555
500,701.5905306278755
501,701.5935398892789
502,701.5963566487798
503,701.5991002794696
504,701.601855371715
505,701.6046688468934
506,701.6075487596032
507,701.6104646538312
508,701.6133492389695
509,701.6161011328402
510,701.6185884846794
511,701.6206533788553
512,701.6221169508099
513,701.6227851175818
514,701.6224548002807
515,701.6209205204173
516,701.6179812329846
517,701.6134471693321
518,701.6071463442155
519,701.5989303262685
520,701.588678925151
521,701.5763035952383
522,701.5617495485081
523,701.5449967299799
524,701.5260598620009
525,701.5049877128662
526,701.4818616620978
527,701.4567935760559
528,701.4299229894519
529,701.4014136083198
530,701.3714491996543
531,701.340229001741
532,701.3079628621391
533,701.2748663608219
534,701.24115617208
535,701.2070458440178
536,701.1727420472489
537,701.1384412159114
538,701.104326427137
539,701.0705643494094
540,701.0373020987751
541,701.0046638669407
542,700.9727472952217
543,700.9416197889853
544,700.9113151658895
545,700.8818310447975
546,700.8531272228093
547,700.8251251194322
548,700.7977083148736
549,700.7707242577318
550,700.743987264867
551,700.7172829040644
552,700.6903737405331
553,700.6630062958305
554,700.6349189470209
555,700.6058503968065
556,700.5755483058874
557,700.5437777160147
558,700.5103289470852
559,700.4750246390055
560,700.4377255392795
561,700.3983346310334
562,700.3567993428078
563,700.3131118318374
564,700.2673075713838
565,700.2194626224552
566,700.1696899996022
567,700.1181354644317
568,700.0649729717545
569,700.0103999287198
570,699.9546324156398
571,699.8979004982617
572,699.840443676643
573,699.782506396429
574,699.7243335180201
575,699.6661657734
576,699.6082354403881
577,699.5507625491562
578,699.4939518421124
579,699.437990532629
580,699.3830467913812
581,699.3292688921423
582,699.2767850139935
583,699.2257037268963
584,699.17611516194
585,699.1280928397526
586,699.0816961264371
587,699.036973271691
588,698.9939649389695
589,698.9527081054613
590,698.9132402289017
591,698.8756036122844
592,698.8398498821091
593,698.8060444252767
594,698.77427055147
595,698.7446330993016
596,698.7172611831819
597,698.6923097462893
598,698.6699595139556
599,698.6504148872876
600,698.6338993993378
601,698.6206486027827
602,698.6109005444212
603,698.6048841858951
604,698.6028062643452
605,698.6048372324484
606,698.6110970891162
607,698.6216420400399
608,698.6364529554822
609,698.6554265336073
610,698.6783699518944
611,698.7049995829187
612,698.7349440529226
613,698.7677515514987
614,698.8029009126495
615,698.8398156751198
616,698.8778801756397
617,698.9164567344255
618,698.9549031063319
619,698.9925895633363
620,699.0289152174743
621,699.0633233976002
622,699.0953159467769
623,699.1244661966148
624,699.1504302068905
625,699.1729557510706
626,699.1918885263577
627,699.2071751664048
628,699.2188628304193
629,699.2270954295078
630,699.2321069017372
631,699.2342122818484
632,699.2337974863116
633,699.2313086165333
634,699.227241205096
635,699.222129420506
636,699.2165350371167
637,699.2110360164639
638,699.2062147115975
639,699.2026458474569
640,699.2008844899799
641,699.2014542324714
642,699.2048358519844
643,699.2114567320704
644,699.2216813888523
645,699.235803442604
646,699.2540393216125
647,699.2765238688218
648,699.3033078874118
649,699.3343575793627
650,699.3695558394279
651,699.4087054324082
652,699.451534114089
653,699.4977016667154
654,699.5468086211345
655,699.5984062768164
656,699.6520076273158
657,699.7070988733158
658,699.7631511991954
659,699.8196324117921
660,699.8760180306767
661,699.9318014988922
662,699.9865032405567
663,700.0396782948312
664,700.0909223026954
665,700.139875778891
666,700.18622680932
667,700.2297124834081
668,700.2701194646571
669,700.3072841259315
670,700.3410926505883
671,700.371481453154
672,700.3984381966742
673,700.4220035311573
674,700.442273434704
675,700.4594017767038
676,700.4736025495642
677,700.4851511857313
678,700.4943844511536
679,700.5016985138527
680,700.5075449090374
681,700.5124242858611
682,700.5168780132445
683,700.521477881178
684,700.5268142306752
685,700.5334829137505
686,700.5420715433097
687,700.5531455182341
688,700.5672343016122
689,700.5848184211296
690,700.6063176680276
691,700.6320810133675
692,700.6623788431342
693,700.6973981546356
694,700.73724123183
695,700.781928011323
696,700.8314019626628
697,700.8855389344832
698,700.944158131581
699,701.0070342336605
700,701.0739096285087
701,701.1445057696025
702,701.2185327970278
703,701.2956968241187
704,701.3757046648715
705,701.4582661442969
706,701.5430943697563
707,701.629904428425
708,701.7184110252485
709,701.8083256773756
710,701.8993541809784
711,701.9911950490732
712,702.0835394493566
713,702.1760728979345
714,702.2684786576011
715,702.3604425355674
716,702.4516586621965
717,702.5418358485994
718,702.63070414606
719,702.7180211856273
720,702.8035778224299
721,702.887202653238
722,702.9687651497842
723,703.0481773912494
724,703.1253945704758
725,703.2004144914254
726,703.2732761685845
727,703.3440574911843
728,703.412871857288
729,703.4798637565353
730,703.5452034222296
731,703.6090808021497
732,703.6716991807376
733,703.7332688136045
734,703.7940008758114
735,703.854101855826
736,703.9137683137888
737,703.9731818027807
738,704.0325037991029
739,704.0918706384482
740,704.1513885931897
741,704.2111292960194
742,704.271125733223
743,704.3313690395288
744,704.39180635447
745,704.4523400330162
746,704.5128284850271
747,704.5730887993492
748,704.6329010919023
749,704.6920142643312
750,704.750152660951
751,704.8070230215682
752,704.8623211278216
753,704.915737601309
754,704.9669624570084
755,705.0156882740514
756,705.061612182643
757,705.1044371895676
758,705.143873558133
759,705.1796409169733
760,705.2114714777147
761,705.239114311527
762,705.2623402629836
763,705.2809468914836
764,705.2947628047722
765,705.3036508065222
766,705.3075093990336
767,705.3062723834745
768,705.2999065603711
769,705.2884077817457
770,705.2717958106794
771,705.2501086270019
772,705.2233969555937
773,705.1917197683592
774,705.1551412346566
775,705.1137291601719
776,705.0675545942712
777,705.0166921604975
778,704.9612207255449
779,704.9012241237356
780,704.8367917292181
781,704.7680187284493
782,704.6950060077265
783,704.6178596598711
784,704.5366902448951
785,704.4516120417434
786,704.3627424974285
787,704.2702019217431
788,704.1741133222911
789,704.0746022473893
790,703.9717965968705
791,703.8658264656669
792,703.7568241260999
793,703.6449242521448
794,703.5302644854746
795,703.4129864306262
796,703.2932371126022
797,703.171170834013
798,703.0469512780472
799,702.9207536792076
800,702.7927669388405
801,702.6631956438463
802,702.5322619795813
803,702.4002074785618
804,702.2672944720039
805,702.1338071230892
806,702.0000520546416
807,701.8663587301379
808,701.7330797604217
809,701.6005911643042
810,701.4692924113457
811,701.339605927378
812,701.2119756810353
813,701.0868644773356
814,700.9647496586434
815,700.8461170578535
816,700.7314532257342
817,700.621236110508
818,700.5159245008489
819,700.4159466730297
820,700.3216887774578
821,700.233483510416
822,700.151599554254
823,700.0762321843874
824,700.0074953681833
825,699.9454156323438
826,699.8899279407179
827,699.8408737650104
828,699.7980014247936
829,699.7609686434188
830,699.7293471608222
831,699.7026292034809
832,699.6802356246114
833,699.6615255419521
834,699.6458073226175
835,699.6323508692918
836,699.6204013398401
837,699.6091945164621
838,699.5979738698135
839,699.5860089702757
840,699.5726144734857
841,699.5571686300547
842,699.5391302126503
843,699.518052883114
844,699.4935962554076
845,699.4655332014542
846,699.4337532959444
847,699.3982626664605
848,699.3591808030527
849,699.3167349874477
850,699.2712529208399
851,699.2231539570178
852,699.1729391879584
853,699.1211805131446
854,699.0685087523023
855,699.0156008609102
856,698.9631663841361
857,698.911933376127
858,698.8626340552439
859,698.8159904680026
860,698.7727004332321
861,698.7334240365008
862,698.6987709197749
863,698.669288568526
864,698.6454517778049
865,698.6276534842362
866,698.6161971270076
867,698.6112906242505
868,698.6130419832974
869,698.621456560503
870,698.6364360248164
871,698.6577791100386
872,698.6851842586599
873,698.7182542812048
874,698.7565031543783
875,698.7993650063607
876,698.8462051945501
877,698.8963332529205
878,698.9490174279613
879,699.003500494335
880,699.0590164964535
881,699.1148080313951
882,699.1701437013891
883,699.2243353497787
884,699.2767545859815
885,699.3268479757337
886,699.3741502375785
887,699.418294836935
888,699.4590214209536
889,699.496179572762
890,699.5297284424246
891,699.5597319836584
892,699.5863497719171
893,699.6098236305869
894,699.6304604926049
895,699.648612081979
896,699.6646521567075
897,699.6789522390657
898,699.6918569570978
899,699.7036602698342
900,699.7145838666349
901,699.7247588889546
902,699.7342118840656
903,699.7428556701308
904,699.7504856245141
905,699.7567817690198
906,699.761316832959
907,699.7635701520426
908,699.7629468140129
909,699.7588010213143
910,699.7504623810216
911,699.7372638212482
912,699.7185699818156
913,699.6938050657874
914,699.6624791449788
915,699.6242118039202
916,699.5787519265219
917,699.5259925147255
