acceleration,velocity,displacement
0.02397109539250945,0.0,0.0
0.02154746277060675,1.1379639540779051e-05,2.8449098851947626e-09
0.019142893579368426,2.1552228628272845e-05,1.1077876927457735e-08
0.016775860929725835,3.053191725554641e-05,2.4098913398412546e-08
0.01446369550688877,3.834180636470006e-05,4.131734430347416e-08
0.012222104424471145,4.501325634754004e-05,6.215610998153418e-08
0.010064784984313522,5.0584978699736206e-05,8.605566874335326e-08
0.008003147477433173,5.5101961815172876e-05,1.1247740387208052e-07
0.006046151797261952,5.8614286633846654e-05,1.409064659843354e-07
0.004200254564671872,6.117588822433012e-05,1.708540096988796e-07
0.0024694572814060573,6.284331618584959e-05,2.0185881080142452e-07
0.0008554421191876189,6.367454103599801e-05,2.3348827510688642e-07
-0.0006422198506819171,6.372784660312443e-05,2.65338872016667e-07
-0.002025803685554068,6.306084071906543e-05,2.970360438472145e-07
-0.0032991244527226563,6.172960868449626e-05,3.282336561981049e-07
-0.004467204815637086,5.978802636740632e-05,3.5861306496108054e-07
-0.005535929631609336,5.7287242755594715e-05,3.878818822418308e-07
-0.006511699217272155,5.427533554337434e-05,4.157725268165731e-07
-0.007401092457256226,5.0797137624742245e-05,4.4204064510860224e-07
-0.008210551992590197,4.689422651228064e-05,4.66463486142858e-07
-0.008946105077907334,4.260506224465626e-05,4.888383083320922e-07
-0.00961313347509329,3.79652526064061e-05,5.089808870448578e-07
-0.010216202806174007,3.3007918536089275e-05,5.267241798304817e-07
-0.01075895612021865,2.776412880449111e-05,5.419171916656268e-07
-0.011244069317893011,2.2263372444963196e-05,5.544240669779904e-07
-0.011673260086011009,1.653404009398719e-05,5.64123420112728e-07
-0.012047339757751421,1.0603890133046583e-05,5.709079026694865e-07
-0.012366299674400208,4.500480275008676e-06,5.746839952715003e-07
-0.012629428065617359,-1.7484516599957156e-06,5.753720024252535e-07
-0.012835456746901204,-8.114672863125356e-06,5.729062212944733e-07
-0.012982736600468756,-1.4569221199967847e-05,5.672352477786999e-07
-0.013069436918702998,-2.1082264579760786e-05,5.583223763337678e-07
-0.013093758730413567,-2.7623063492039927e-05,5.461460443158176e-07
-0.01305414923411076,-3.4160040483171006e-05,5.307002683220149e-07
-0.012949504559733524,-4.066095393163208e-05,5.119950197183142e-07
-0.012779350001576963,-4.70931675719597e-05,4.900564893424162e-07
-0.012543989013828718,-5.3424002325811116e-05,4.649271968679735e-07
-0.012244614457192528,-5.9621153193566425e-05,4.3666590798812914e-07
-0.01188337836491794,-6.565315139909404e-05,4.05347331839964e-07
-0.011463419612013089,-7.14898508933268e-05,3.710615812668588e-07
-0.010988851402319859,-7.710291864691004e-05,3.339133888817996e-07
-0.010464712132061255,-8.246630953050532e-05,2.9402108183744574e-07
-0.009896884446478724,-8.755670867514031e-05,2.515153272860343e-07
-0.009291988229146187,-9.235392684404654e-05,2.065376684062376e-07
-0.008657253075781064,-9.684123717027836e-05,1.5923887740265637e-07
-0.00800037418952351,-0.00010100564398660451,1.0977715711343566e-07
-0.007329353559921507,-0.00010483807592396576,5.831622713579309e-08
-0.006652327310685309,-0.00010833349614161746,5.0233341193972864e-09
-0.005977381241969072,-0.00011149092327978106,-4.9932770735952346e-08
-0.005312359537374428,-0.00011431335847461694,-1.0638384117455185e-07
-0.004664674651341136,-0.00011680761702179582,-1.6416408504865503e-07
-0.004041127626400694,-0.00011898406759123128,-2.231120062019118e-07
-0.0034477470321554646,-0.00012085628625587031,-2.830720946636872e-07
-0.0028896525719782616,-0.00012244063615690374,-3.438963252668807e-07
-0.0023709474124042995,-0.00012375578615299939,-4.054454308443565e-07
-0.0018946414109363447,-0.00012482218335883454,-4.6758992322231497e-07
-0.0014626052395513094,-0.00012566149502145644,-5.302108428173877e-07
-0.0010755535164231117,-0.00012629603471045006,-5.932002252503644e-07
-0.0007330544819802241,-0.0001267481867100509,-6.564612806054896e-07
-0.0004335646193437571,-0.00012703984148538188,-7.199082876543477e-07
-0.00017448814343521083,-0.00012719185467607662,-7.834662116947124e-07
4.7737595178029515e-05,-0.0001272235423131409,-8.470700609420168e-07
0.0002375299235712792,-0.0001271522254334536,-9.106640028786655e-07
0.0004000226335076234,-0.00012699283729418386,-9.74200268560575e-07
0.0005409047570466708,-0.0001267576054465453,-1.0376378792457572e-06
0.0006662413426754177,-0.00012645581892161477,-1.1009412353377973e-06
0.0007822829575142338,-0.00012609368784656736,-1.1640786120298428e-06
0.0008952724637659532,-0.0001256742989912473,-1.2270206087392964e-06
0.0010112590146838945,-0.00012519766612163484,-1.2897386000175168e-06
0.0011359287350869332,-0.00012466086918419214,-1.3522032338439736e-06
0.0012744587115056136,-0.00012405827232254401,-1.4143830192206577e-06
0.0014313972747546648,-0.00012338180832597895,-1.4762430393827885e-06
0.0016105711292548174,-0.00012262131622497657,-1.5377438205205274e-06
0.0018150191233975805,-0.00012176491866181347,-1.5988403792422248e-06
0.0020469524681262985,-0.0001207994257639325,-1.6594814653486614e-06
0.002307741274554248,-0.00011971075232826237,-1.7196090098717102e-06
0.002597927260355448,-0.00011848433519453494,-1.7791577817524095e-06
0.002917262088010925,-0.00011710553785744335,-1.838055250015404e-06
0.0032647695684851555,-0.00011556002994331933,-1.8962216419655947e-06
0.00363882810506391,-0.00011383413052493207,-1.9535701820826576e-06
0.00403726818891068,-0.00011191510645143842,-2.01000749132675e-06
0.004457478978821967,-0.00010979141965950526,-2.065434122854486e-06
0.004896517804787199,-0.00010745292046360296,-2.119745207885263e-06
0.005351216744120368,-0.00010489098682637607,-2.1728311847077577e-06
0.005818281126596144,-0.00010209861235869695,-2.2245785845040258e-06
0.0062943754319551935,-9.907044821905912e-05,-2.2748708496484648e-06
0.006776192619649865,-9.580280620615785e-05,-2.323589163254769e-06
0.007260504425650951,-9.229363194483265e-05,-2.3706132727925167e-06
0.007744192876535567,-8.854245761928602e-05,-2.4158222951835464e-06
0.008224266260801538,-8.455034283495175e-05,-2.459095495297106e-06
0.008697865030995627,-8.031981001200246e-05,-2.5003130335088446e-06
0.009162264211174241,-7.585477770145999e-05,-2.5393566804372102e-06
0.00961487902511204,-7.116049189238842e-05,-2.576110497835672e-06
0.010053280015809733,-6.624345213215798e-05,-2.610461483841809e-06
0.010475222694492303,-6.111132645458246e-05,-2.6423001784884937e-06
0.010878693770702481,-5.577284733828376e-05,-2.6715212219367104e-06
0.0112619710614156,-5.023768113025424e-05,-2.698023854053845e-06
0.011623689198629994,-4.451626606524284e-05,-2.721712340852719e-06
0.011962901064689198,-3.8619618499413046e-05,-2.742496311993883e-06
0.012279126359250693,-3.2559111643428075e-05,-2.760290994529593e-06
0.0125723821201045,-2.6346234523589278e-05,-2.7750173310713477e-06
0.012843193116410656,-1.9992340714460488e-05,-2.78660197488086e-06
0.013092581705088705,-1.3508397009085647e-05,-2.7949771593117464e-06
0.013322037012732204,-6.90474232963042e-06,-2.8000804441464256e-06
0.013533463011883242,-1.9086732347655883e-07,-2.8018543465597024e-06
0.013729105384318926,6.6247747755739836e-06,-2.800245869696678e-06
0.013911458155363059,1.353491566049448e-05,-2.7952059470876607e-06
0.014083151824469748,2.0533568155452682e-05,-2.786688826133674e-06
0.014246824852424175,2.7616062324676163e-05,-2.7746514185136417e-06
0.014404981499517145,3.477901391266149e-05,-2.7590526494543074e-06
0.014559842281970225,4.202021985803333e-05,-2.7398528410116337e-06
0.01471319723420313,4.933847973707667e-05,-2.7170131661128562e-06
0.014866274036060638,5.673334755464261e-05,-2.6904952092899265e-06
0.0150196319562372,6.420482405271707e-05,-2.6602606663880864e-06
0.015173089706301076,7.175300446835164e-05,-2.6262712092578193e-06
0.015325692109540944,7.937769992231213e-05,-2.5884885331601533e-06
0.015475717494362686,8.707805232328805e-05,-2.5468745950987534e-06
0.01562072500609916,9.48521629484035e-05,-2.5013920412808305e-06
0.01575763869819823,0.00010269675387447785,-2.4520048120751103e-06
0.01588286347054607,0.00011060687941666393,-2.3986789037523247e-06
0.01599242656158047,0.00011857570192469555,-2.3413832584169848e-06
0.016082136853814738,0.00012659434277854435,-2.280090747241175e-06
0.016147752457976606,0.00013465181510649219,-2.2147792077699157e-06
0.016185145506079992,0.00014273503959750633,-2.1454324940939162e-06
0.016190452872051852,0.00015082893919203928,-2.0720414993965297e-06
0.016160203331310703,0.00015891660324287993,-1.9946051137878e-06
0.01609141522433101,0.00016697950788179035,-1.9131310860066325e-06
0.01598166294700109,0.00017499777742462338,-1.827636764680029e-06
0.015829114478550635,0.0001829504717810113,-1.7381497023786204e-06
0.015632545037974097,0.0001908158866601425,-1.6447081127683318e-06
0.015391333382442024,0.0001985718562652465,-1.5473611770369845e-06
0.01510544706311613,0.00020619605137663606,-1.4461692001265138e-06
0.014775421609611789,0.00021366626854481805,-1.3412036201461502e-06
0.014402336974263243,0.0002209607081907868,-1.232546875962249e-06
0.013987793315719031,0.00022805824076328236,-1.1202921387237318e-06
0.013533887565142318,0.0002349386609834977,-1.0045429132870368e-06
0.013043191981436747,0.00024158293087014245,-8.854125153236267e-07
0.012518735667806338,0.0002479734127824532,-7.630234294104778e-07
0.011963989450728386,0.0002540940940620869,-6.375065526993428e-07
0.011382853514338879,0.00025993080480335375,-5.090003279829826e-07
0.010779645972852381,0.00026547142967515156,-3.776497693633563e-07
0.010159089426967957,0.00027070611352510664,-2.4360538356329176e-07
0.009526291600530803,0.00027562745878198134,-1.0702199048651977e-07
0.008886715700050314,0.0002802307106071266,3.194255186075723e-08
0.00824613665303648,0.0002845139236953983,1.7312871043638846e-07
0.007610580679909076,0.00028847810302863467,3.1637671711739674e-07
0.006986246952189748,0.0002921273099366594,4.6152807035872027e-07
0.006379411267217364,0.0002954687244915112,6.084270789657629e-07
0.005796313396579447,0.00029851265565746036,7.569224240030057e-07
0.005243032005251281,0.000301272492007918,9.068687109193503e-07
0.004725352580027392,0.0003037645881542377,1.0581279809598892e-06
0.004248633558836773,0.00030600808468895374,1.210571149170687e-06
0.0038176739484267973,0.0003080246615657696,1.364079335734368e-06
0.003436583409354658,0.000309838225905215,1.518545057602114e-06
0.003108654606414108,0.0003114745354091572,1.6738732479307071e-06
0.0028362385150651846,0.000312960758689527,1.8299820714553782e-06
0.002620626350279201,0.00031432497490586306,1.9868035048542257e-06
0.002461945947200828,0.00031559561798023307,2.1442836530757496e-06
0.0023590840348952868,0.0003168008754757571,2.3023827764397473e-06
0.0023096469909347755,0.00031796805823221464,2.4610750098667403e-06
0.0023099707158943336,0.0003191229626589219,2.6203477650895243e-06
0.0023551862249136762,0.0003202892518941239,2.780200818727786e-06
0.00243934245014111,0.0003214878840628876,2.9406451027170386e-06
0.002555581821787951,0.00032273661513086986,3.1017012275154778e-06
0.0026963581400078697,0.0003240496001213188,3.263397781328525e-06
0.002853681854303406,0.00032543711011989664,3.4257694588888288e-06
0.003019376655450125,0.000326905374747335,3.5888550801056366e-06
0.003185333097095353,0.00032845655218547137,3.7526955618388383e-06
0.0033437482847836256,0.0003300888225309411,3.917331905517942e-06
0.003487344192722445,0.0003317965956503176,4.082803260063256e-06
0.0036095604865682665,0.0003335708218201403,4.249145114430871e-06
0.0037047203040251795,0.0003353993920177887,4.416387667890353e-06
0.0037681680364196135,0.00033726761410289986,4.584554419420525e-06
0.0037963765041659396,0.00033915875023804627,4.753661010505761e-06
0.0037870191717256124,0.00034105459915701917,4.923714347854528e-06
0.0037390037671668,0.0003429361048917423,5.094712023866719e-06
0.0036524667666380786,0.0003447839725251935,5.266642043220953e-06
0.0035287314005441705,0.00034657927206698907,5.439482854368998e-06
0.0033702336594173712,0.0003483040133319795,5.61320367571874e-06
0.0031804215726775375,0.0003499416771400032,5.7877650983367355e-06
0.0029636335993927275,0.00035147769093302075,5.963119940354991e-06
0.002724962384571951,0.0003528998399290119,6.139214323070499e-06
0.0024701100181182913,0.0003541986080296845,6.315988935060174e-06
0.0022052402848287815,0.00035536744560542126,6.49338044846895e-06
0.0019368325601470484,0.0003564029638166652,6.671323050824472e-06
0.001671541033914749,0.00035730505721518065,6.849750056082433e-06
0.0014160617640620685,0.00035807695791467486,7.028595559864897e-06
0.0011770089456037262,0.0003587252255920913,7.207796105741589e-06
0.0009608007481085256,0.00035925967801551934,7.3872923316434916e-06
0.0007735536163461015,0.000359693266606633,7.56703056779903e-06
0.0006209822155850056,0.0003600419005646158,7.746964359591843e-06
0.0005083015111843615,0.00036032422149630814,7.927055890107074e-06
0.0004401285179646099,0.0003605613290035954,8.10727727773205e-06
0.0004203832635649067,0.0003607764569489778,8.287611724220194e-06
0.0004521904621970627,0.0003609946003804183,8.468054488552543e-06
0.0005377849799432986,0.0003612420942409534,8.648613662207886e-06
0.0006784253649915098,0.0003615461468271871,8.82931072247492e-06
0.0008743203608847424,0.00036193433325865614,9.010180842496382e-06
0.0011245730966974179,0.0003624340566230517,9.191272939966808e-06
0.001427146401656904,0.00036307198649764027,9.372649450746982e-06
0.0017788512100544605,0.0003638734859005681,9.554385818846534e-06
0.0021753596661451585,0.000364862038619618,9.73656969997658e-06
0.0026112452999389425,0.000366058689861139,9.91929988209677e-06
0.003080052832537306,0.0003674815143942581,1.010268493316062e-05
0.003574398967306731,0.00036914512734421913,1.028684159359524e-05
0.004086104191073134,0.0003710602531338141,1.0471892938714748e-05
0.004606355184232823,0.0003732333679776406,1.0657966343992611e-05
0.005125897050500073,0.0003756664310363238,1.0845191293746103e-05
0.005635252906940514,0.00037835671852568393,1.1033697081136604e-05
0.006124965373989208,0.0003812967730959164,1.1223610454042004e-05
0.006585851287444612,0.0003844744772612748,1.1415053266631301e-05
0.0070092588331607565,0.00038787325479142613,1.1608140199644476e-05
0.007387315932679634,0.00039147239848288625,1.1802976612963054e-05
0.007713159890242254,0.00039524751743861674,1.199965659194343e-05
0.007981140570012112,0.00039917109255368035,1.2198261244441504e-05
0.008186992225512904,0.0004032131257525616,1.2398857299018065e-05
0.008327971949364247,0.0004073418667962809,1.2601496047155275e-05
0.00840296502519649,0.0004115246010399211,1.2806212664114325e-05
0.008412558738745884,0.0004157284819809067,1.3013025934869531e-05
0.008359085634930001,0.00041992139307432566,1.322193840363334e-05
0.00824663445712777,0.0004240728230973401,1.3432936957676257e-05
0.008081023303342798,0.0004281547375374578,1.3645993847834956e-05
0.007869726938798621,0.00043214242509799315,1.3861068138493818e-05
0.007621749891649784,0.00043601529430560527,1.4078107568344717e-05
0.007347438860338542,0.00043975759149360235,1.4297050789794519e-05
0.007058231499228864,0.0004433590090834942,1.4517829939938793e-05
0.006766343346942262,0.00044681515279503697,1.4740373480408426e-05
0.0064844003776211535,0.00045012783872617785,1.4964609228288729e-05
0.006225030931661395,0.0004533051965534985,1.5190467487108647e-05
0.0060004359605919004,0.0004563615632765618,1.5417884177066162e-05
0.00582195870719402,0.0004593171619435083,1.564680385837118e-05
0.005699674029852011,0.0004621975701277698,1.5877182541389e-05
0.005642015240220038,0.0004650329924452878,1.6108990182032266e-05
0.005655454035578307,0.00046785735976423735,1.6342212770084646e-05
0.0057442469377794285,0.0004707072850075768,1.65768539312776e-05
0.005910258796840384,0.00047362091144123174,1.6812935980389803e-05
0.006152869865246398,0.0004766366936067534,1.7050500381651798e-05
0.0064689678612170004,0.0004797921530383693,1.7289607593313078e-05
0.006853020807491063,0.0004831226502055463,1.753033629412406e-05
0.007297221146441832,0.00048666021069402953,1.777278200934895e-05
0.007791688178906239,0.0004904324380253666,1.80170551715288e-05
0.008324715399471933,0.0004944615389199611,1.8263278665765133e-05
0.00888305142192023,0.0004987634806253091,1.851158492065145e-05
0.00945220629493719,0.0005033472950545235,1.876211261457141e-05
0.010016777609900072,0.0005082145410307328,1.9015003073592725e-05
0.01056079229994477,0.000513358933508194,1.9270396442227455e-05
0.01106806037189022,0.0005187661466761528,1.952842771227354e-05
0.011522535886750654,0.000524413795740813,1.978922269787778e-05
0.011908678278715633,0.0005302715992821796,2.005289404663353e-05
0.012211804303010793,0.0005363017199276112,2.031953737643598e-05
0.012418419001373734,0.0005424592757537073,2.058922762535631e-05
0.01251651421808422,0.0005486930090585718,2.086201569655938e-05
0.012495825302303677,0.0005549460939386688,2.113792547230869e-05
0.012348039765055541,0.0005611570602055086,2.1416951260844736e-05
0.012066955045443776,0.0005672608089081334,2.1699055728123146e-05
0.011648585582406813,0.0005731896940650961,2.1984168353866453e-05
0.011091221104417672,0.0005788746457368022,2.2272184438816927e-05
0.010395437689807933,0.0005842463104353586,2.2562964677859968e-05
0.00956406148093298,0.0005892361852280438,2.285633530177582e-05
0.008602083931614334,0.0005937777215811806,2.3152088778478124e-05
0.0075165283854336596,0.0005978073746604426,2.344998505253853e-05
0.006316270063591267,0.0006012655742726989,2.3749753289771813e-05
0.00501181395371899,0.0006040975952770264,2.4051094082159246e-05
0.0036150373791215503,0.0006062543081102365,2.435368205800606e-05
0.002138906543813426,0.0006076927940909702,2.4657168833556363e-05
0.0005971785083693176,0.000608376815354016,2.4961186235917608e-05
-0.0009958995192787643,0.0006082771351012886,2.5265349723531435e-05
-0.0026258835311270224,0.0006073716893386871,2.5569261929641427e-05
-0.004278411756139382,0.0006056456155168706,2.5872516255855318e-05
-0.005939464950251414,0.0006030911463402728,2.6174700446319605e-05
-0.007595603989307574,0.0005997073791053831,2.647540007768102e-05
-0.009234179388448099,0.0005954999332609442,2.67742019057726e-05
-0.01084350569983026,0.0005904805119888746,2.7070697017085054e-05
-0.012412993726109111,0.0005846663871323897,2.736448374186537e-05
-0.013933235876966696,0.0005780798297316208,2.7655170296081373e-05
-0.015396043985031301,0.0005707475097661213,2.794237713095581e-05
-0.01679444292016325,0.0005626998880398226,2.8225738980407294e-05
-0.01812262636554868,0.0005539706207183946,2.8504906607596847e-05
-0.01937588308985108,0.0005445959933545447,2.8779548261115083e-05
-0.020550503136869333,0.0005346143967978646,2.9049350858653186e-05
-0.021643673313745494,0.000524065852685211,2.9314020921023954e-05
-0.02265337004431143,0.0005129915918456968,2.9573285282156682e-05
-0.023578255746640582,0.0005014336853979588,2.9826891601467595e-05
-0.024417583385869687,0.0004894347256148312,3.0074608704220794e-05
-0.02517111306773566,0.00047703755150142984,3.031622677349986e-05
-0.025839044320971838,0.00046428501215425296,3.055155741441378e-05
-0.026421967959203818,0.00045121975908420905,3.0780433607223396e-05
-0.02692084157546906,0.00043788405670054084,3.1002709561169585e-05
-0.02733699169111984,0.00042431959838389364,3.1218260474940694e-05
-0.02767214285682124,0.00041056731474690836,3.14269822032234e-05
-0.027928470434032827,0.00039666716142419483,3.1628790822266175e-05
-0.028108670661938475,0.000382657876150202,3.1823622081659775e-05
-0.028216039447673473,0.000368576698622799,3.2011430725353024e-05
-0.028254549824795444,0.00035445905130468175,3.2192189662834896e-05
-0.028228917309667572,0.000340338184521066,3.2365888971791334e-05
-0.028144643467142197,0.00032624479432686356,3.2532534716503314e-05
-0.028008031237145962,0.0003122066256507915,3.269214757149773e-05
-0.027826169295378216,0.00029824807551766047,3.284476124678985e-05
-0.027606884968122095,0.0002843898119517854,3.2990420718657206e-05
