acceleration,velocity,displacement
0.02388637693984591,0.0,0.0
0.022068697226162892,1.14887685415022e-05,2.8721921353755502e-09
0.020256254432749726,2.2070006456230357e-05,1.126188588480869e-08
0.01845425209330385,3.1747633087743754e-05,2.4716295770802218e-08
0.016667827610182578,4.0528153013615364e-05,4.2785242296142e-08
0.014902020728685992,4.8420615098332505e-05,6.502243432412897e-08
0.013161743702946826,5.543655620624071e-05,9.098672715027228e-08
0.011451753507429186,6.158993050883471e-05,1.2024334882904114e-07
0.009776626332346987,6.689702546877874e-05,1.523650878234445e-07
0.008140734498281168,7.137636567643579e-05,1.8693343560974814e-07
0.006548225841872606,7.504860576147423e-05,2.2353967846922565e-07
0.0050030055654200385,7.793641361329739e-05,2.6178593331291857e-07
0.0035087205067305324,8.006434513133504e-05,3.0128612299907667e-07
0.002068745763037677,8.145871169877709e-05,3.416668872066047e-07
0.0006861735864365482,8.214744153614564e-05,3.8256842551533534e-07
-0.0006361955410272004,8.215993604749797e-05,4.2364526991124625e-07
-0.0018958597448530171,8.152692222602792e-05,4.645669844796277e-07
-0.003090620599300009,8.028030213998966e-05,5.050187905711321e-07
-0.004218586075190991,7.845300047136691e-05,5.447021162239713e-07
-0.005278171725762279,7.607881102112859e-05,5.833350690970952e-07
-0.00626810027314382,7.319224302140206e-05,6.206528326077279e-07
-0.007187399770422114,6.982836801051057e-05,6.56407985365706e-07
-0.008035400494774731,6.602266794421136e-05,6.903707443543865e-07
-0.0088117306757714,6.181088515157483e-05,7.22329132628333e-07
-0.009516311094164372,5.7228874709090886e-05,7.520890725934995e-07
-0.010149348529335502,5.231245980321592e-05,7.794744062215762e-07
-0.010711328017944246,4.709729066639598e-05,8.043268438389792e-07
-0.01120300391952648,4.16187076820283e-05,8.265058434260853e-07
-0.011625389842942452,3.5911609241411066e-05,8.458884226569452e-07
-0.011979747531679012,3.0010324897755698e-05,8.623689061917369e-07
-0.012267574808407298,2.3948494312734122e-05,8.758586109943593e-07
-0.01249059264047873,1.7758952450512612e-05,8.86285472685171e-07
-0.012650731336576538,1.1473621456248794e-05,8.935936161618614e-07
-0.012750115854828064,5.123409658397643e-06,8.977428739405229e-07
-0.01279105020719626,-1.2618818571084383e-06,8.987082558908453e-07
-0.012776000969581678,-7.653644651302923e-06,8.964793742637424e-07
-0.012707579933689404,-1.4024539877120694e-05,8.910598281316365e-07
-0.012588525963204642,-2.0348566351344205e-05,8.824665515745203e-07
-0.01242168614933917,-2.660111937948016e-05,8.707291301418143e-07
-0.012209996396458814,-3.275904001592966e-05,8.558890902929618e-07
-0.011956461596767302,-3.8800654514236186e-05,8.379991666604203e-07
-0.01166413557049744,-4.470580380605237e-05,8.171225520803481e-07
-0.011336100960313672,-5.045586293875515e-05,7.933321353941462e-07
-0.01097544927621836,-5.603375049788816e-05,7.667097320349854e-07
-0.010585261281319052,-6.142392813727251e-05,7.373453123761952e-07
-0.010168587885691565,-6.661239042902516e-05,7.053362327346209e-07
-0.00972843168626287,-7.158664532201376e-05,6.707864737968611e-07
-0.009267729272773013,-7.633568556177274e-05,6.338058910759145e-07
-0.00878933442488439,-8.084995148618709e-05,5.945094818139246e-07
-0.008296002350081232,-8.51212856799285e-05,5.530166725223957e-07
-0.007790375136662933,-8.914288005161454e-05,5.094506310895099e-07
-0.00727496859938852,-9.29092159856274e-05,4.639376070801994e-07
-0.006752160671799246,-9.641599830342435e-05,4.166063035079365e-07
-0.006224181462708728,-9.966008383705135e-05,3.6758728297281756e-07
-0.005693105058907812,-0.00010263940546745549,3.1701241064669087e-07
-0.005160843121540328,-0.00010535289251256752,2.650143361516851e-07
-0.0046291402853658155,-0.00010780038836429406,2.117260159324697e-07
-0.004099571335048104,-0.00010998256626939753,1.572802772740468e-07
-0.0035735401124323803,-0.00011190084413126766,1.018094246738805e-07
-0.0030522801051737145,-0.00011355729918566918,4.5444888844646285e-08
-0.0025368566713763496,-0.0001149545833798067,-1.1683081796722686e-08
-0.0020281708552139562,-0.00011609584026145428,-6.944568770703794e-08
-0.0015269647348977254,-0.0001169846241589822,-1.2771580381214705e-07
-0.0010338282152761488,-0.00011762482239652567,-1.8636816545102404e-07
-0.0005492071421328568,-0.00011802058123587792,-2.4527951635912495e-07
-7.341258423846445e-05,-0.00011817623616747075,-3.0432872070996215e-07
0.0003933688972991853,-0.00011809624708920557,-3.6339684152413124e-07
0.0008510641992435554,-0.00011778513881506988,-4.223671880002001e-07
0.001299702072878666,-0.00011724744724703933,-4.811253345157274e-07
0.0017394011914207167,-0.00011648767143096448,-5.395591141852283e-07
0.002170358081568689,-0.00011551023161271713,-5.975585899461487e-07
0.0025928350712568164,-0.00011431943332451076,-6.550160061804557e-07
0.003007148376560097,-0.00011291943746255653,-7.118257238772225e-07
0.003413656439281581,-0.00011131423625859611,-7.678841423075107e-07
0.0038127486228268165,-0.00010950763499306901,-8.23089610120427e-07
0.004204834369486375,-0.00010750323924499071,-8.77342328679942e-07
0.0045903329158163446,-0.00010530444742366503,-9.30544250347106e-07
0.004969663651400195,-0.0001029144482818609,-9.825989742734875e-07
0.005343237184608594,-0.00010033622307285871,-1.0334116421121673e-06
0.005711447149540063,-9.757255198932154e-05,-1.0828888358777124e-06
0.006074662761944474,-9.46260245114504e-05,-1.1309384800029054e-06
0.006433222114108252,-9.149905329243722e-05,-1.1774697494538773e-06
0.006787426187382012,-8.819389121706465e-05,-1.2223929855812529e-06
0.007137533555435755,-8.471265128136021e-05,-1.265619621205859e-06
0.007483755750441925,-8.105732895489079e-05,-1.3070621162649218e-06
0.0078262532625278,-7.722982670164836e-05,-1.3466339051790566e-06
0.008165132141013368,-7.323198035076307e-05,-1.3842493569421595e-06
0.008500441175013801,-6.906558702175628e-05,-1.4198237487852894e-06
0.00883216965431047,-6.47324343144252e-05,-1.4532732541193348e-06
0.009160245738406543,-6.0234330466245954e-05,-1.4845149453145025e-06
0.009484535480772207,-5.5573135161451263e-05,-1.5134668117214268e-06
0.009804842562083773,-5.075079065073727e-05,-1.5400477931744739e-06
0.010120908782841428,-4.576935281450597e-05,-1.5641778290407848e-06
0.010432415356382837,-4.063102177969991e-05,-1.5857779226893363e-06
0.010738985025563112,-3.533817168421342e-05,-1.6047702210553146e-06
0.011040184989410198,-2.9893379180470097e-05,-1.6210781087714855e-06
0.011335530567332674,-2.4299450291284378e-05,-1.6346263161394241e-06
0.011624489470032725,-1.8559445281943028e-05,-1.645341040032731e-06
0.011906486519918505,-1.2676701284455222e-05,-1.6531500766743306e-06
0.012180908679372705,-6.654852484632419e-06,-1.6579829651166025e-06
0.012447110283263799,-4.978477439732932e-07,-1.6597711401737539e-06
0.012704418406750786,5.790034428530354e-06,-1.6584480935026147e-06
0.012952138318189577,1.2204173609765444e-05,-1.6539495414930407e-06
0.013189558970011657,1.8739597931815752e-05,-1.6462135986076453e-06
0.013415958477257262,2.5390977293632982e-05,-1.6351809548012832e-06
0.013630609537274553,3.2152619297265935e-05,-1.6207950556535585e-06
0.013832784756692074,3.901846787075759e-05,-1.6030022838615526e-06
0.014021761860305536,4.598210452500699e-05,-1.5817521407626116e-06
0.01419682875822736,5.303675217964021e-05,-1.5569974265864497e-06
0.01435728846049347,6.017528148432042e-05,-1.5286944181704596e-06
0.014502463865458786,6.739021956580849e-05,-1.4968030429079274e-06
0.014631702492628398,7.467376115533029e-05,-1.4612870477276428e-06
0.014744381251696265,8.201778209141145e-05,-1.4221141619159574e-06
0.014839911326868568,8.941385523605265e-05,-1.3792562525840915e-06
0.014917743223162682,9.685326887356046e-05,-1.3326894715566883e-06
0.01497737198522744,0.000104327047675658,-1.2823943924193836e-06
0.015018342565559166,0.00011182597631335465,-1.2283561364221304e-06
0.015040255288661535,0.00011934062577690982,-1.1705644858995643e-06
0.015042771332072062,0.0001268613824320932,-1.1090139838473136e-06
0.01502561812608277,0.00013437847979663192,-1.0437040182901323e-06
0.014988594560151156,0.0001418820329681904,-9.746388900989267e-07
0.014931575869772683,0.00014936207557567137,-9.018278629629612e-07
0.014854518060016206,0.0001568085990581186,-8.252851943045137e-07
0.014757461707831048,0.00016421159400008042,-7.450301460399639e-07
0.014640534986705894,0.00017156109317371465,-6.610869742465152e-07
0.014503955782178645,0.0001788472158659358,-5.734848969866025e-07
0.014348032812076838,0.00018606021301449967,-4.822580397664936e-07
0.014173165719292198,0.00019319051264734193,-3.874453583510332e-07
0.01397984415514999,0.00020022876511595247,-2.890905389102096e-07
0.013768645910727758,0.0002071658876324219,-1.87241875723116e-07
0.013540234176550927,0.00021399310765424156,-8.195212690145013e-08
0.013295354016141507,0.00022070200470241468,2.6721651187713933e-08
0.01303482813106713,0.00022728455023921683,1.387182899231218e-07
0.012759551984049846,0.00023373314526799608,2.5397271379992504e-07
0.012470488339894979,0.0002400406553489823,3.724161639541696e-07
0.012168661284102223,0.00024620044275498157,4.939764384801606e-07
0.011855149783201312,0.00025220639552180746,6.185781480493578e-07
0.011531080854825588,0.0002580529531813142,7.461429852251382e-07
0.01119762241501405,0.0002637351289987741,8.765900057701603e-07
0.010855975864172794,0.0002692485285685708,1.0098359201619967e-06
0.01050736846404942,0.0002745893646506263,1.1457953934667959e-06
0.010153045548951953,0.00027975446815387667,1.2843813516679216e-06
0.00979426260649676,0.00028474129519273883,1.4255052925045755e-06
0.009432277259847565,0.0002895479301593249,1.5690775988425915e-06
0.00906834119002365,0.0002941730847717927,1.715007852575371e-06
0.008703692051155343,0.0002986160930820875,1.863205147038841e-06
0.008339545444798249,0.0003028769024560759,2.0135783959233817e-06
0.007977087030033586,0.00030695606057478384,2.1660366366810967e-06
0.007617464861846994,0.000310854698547754,2.3204893264617313e-06
0.007261782070647256,0.00031457451028087753,2.476846628668889e-06
0.006911090007189775,0.0003181177283003368,2.6350196883141925e-06
0.006566381967307846,0.0003214870962939612,2.794920894462767e-06
0.006228587581185129,0.00032468583868108445,2.9564641282065285e-06
0.005898567916961005,0.00032771762755562096,3.1195649947657047e-06
0.005577111325465745,0.00033058654736622766,3.284141038496167e-06
0.005264930052954156,0.0003332970577108326,3.450111939765432e-06
0.004962657671924334,0.00033585395464205226,3.617399692853653e-06
0.00467084741660735,0.0003382623309141852,3.7859287642427124e-06
0.004389971539955744,0.000340527535653326,3.95562623088459e-06
0.0041204218113882266,0.00034265513399116195,4.1264218982957115e-06
0.0038625112423323893,0.0003446508672545921,4.29824839860715e-06
0.0036164770711704522,0.0003465206143329678,4.47104126900404e-06
0.003382484972512449,0.0003482703548438885,4.644739011298254e-06
0.0031606343806168035,0.00034990613468217083,4.819283133679769e-06
0.0029509647413151667,0.00035143403446265384,4.994618175965975e-06
0.0027534624513392944,0.0003528601412608175,5.170691719896843e-06
0.002568068225914149,0.00035419052393013083,5.34745438619458e-06
0.002394684653114867,0.00035543121214988806,5.5248598202145845e-06
0.0022331837297102633,0.00035658817924559436,5.702864668063455e-06
0.002083414213180591,0.00035766732873131706,5.881428545057683e-06
0.0019452086636934393,0.0003586744844505356,6.060513998353146e-06
0.0018183900819560006,0.0003596153841369479,6.240086465500016e-06
0.0017027780598108768,0.00036049567617238963,6.420114230577351e-06
0.0015981943472378579,0.0003613209192741518,6.600568379438986e-06
0.0015044677262017762,0.0003620965847925117,6.7814227554556525e-06
0.0014214380974910336,0.00036282806124843486,6.962653916965889e-06
0.0013489597299867011,0.0003635206607053043,7.1442410974543235e-06
0.0012869036668462627,0.00036417962655451255,7.3261661692692775e-06
0.0012351593129454506,0.0003648101422994605,7.508413611482771e-06
0.0011936352462294348,0.0003654173409392542,7.69097048229245e-06
0.0011622593113259148,0.000366006314578643,7.873826396171924e-06
0.001140978067481198,0.0003665821239233448,8.05697350579742e-06
0.0011297556701530959,0.00036714980735775334,8.240406488617694e-06
0.0011285722662034536,0.00036771438934184245,8.424122537792594e-06
0.0011374219803677705,0.00036828088790348524,8.608121357103926e-06
0.0011563105659780648,0.0003688543210400717,8.792405159339816e-06
0.001185252784795875,0.0003694397118777652,8.976978667569275e-06
0.0012242695723343223,0.00037004209246704775,9.161849118655479e-06
0.0012733850363836814,0.0003706665061192273,9.347026268302048e-06
0.0013326233217515787,0.0003713180082087611,9.532522396884046e-06
0.0014020053555050581,0.00037200166537807523,9.718352315280756e-06
0.0014815454785987016,0.0003727225530866012,9.904533369896925e-06
0.0015712479800141588,0.0003734857514512544,1.0091085446031388e-05
0.001671103569709447,0.00037429633933868533,1.0278030968728874e-05
0.0017810858451866671,0.00037515938669240934,1.0465394900236647e-05
0.0019011478200725493,0.00037607994510872417,1.0653204733186931e-05
0.0020312185916161055,0.00037706303671164633,1.0841490478642024e-05
0.002171200225761273,0.00037811364141599065,1.1030284648173933e-05
0.002320964930084475,0.0003792366827049521,1.1219622229204168e-05
0.0024803525647427065,0.0003804370120786589,1.1409540652900071e-05
0.0026491685188603656,0.00038171939234955967,1.1600079754007125e-05
0.002827181970042506,0.00038308847997178537,1.1791281722087461e-05
0.0030141245480196973,0.0003845488066013009,1.1983191043730732e-05
0.0032096894208757817,0.00038610476009352476,1.2175854435404438e-05
0.0034135308047433086,0.00038776056514992953,1.2369320766715301e-05
0.0036252638797636227,0.0003895202638210563,1.2563640973958048e-05
0.003844465088288584,0.0003913876960630693,1.275886796392908e-05
0.004070672786071922,0.0003933664805316594,1.2955056508077762e-05
0.00430338819863216,0.00039545999577783543,1.3152263127155136e-05
0.004542076602576467,0.00039767136197813756,1.335054596659413e-05
0.004786168618043519,0.00040000342328329254,1.3549964662909488e-05
0.005035061478495957,0.0004024587308074274,1.3750580201432169e-05
0.005288120145044742,0.00040503952621331256,1.3952454765687354e-05
0.005544678152179291,0.00040774772578761856,1.4155651578687587e-05
0.005804038104493487,0.00041058490485178673,1.4360234736347438e-05
0.0060654717841874504,0.000413552282323957,1.4566269033141374e-05
0.006328219869759574,0.00041665070523744376,1.4773819780031724e-05
0.006591491301184416,0.0004198806330301798,1.498295261459863e-05
0.00685446234995295,0.00042324212144296414,1.5193733303216916e-05
0.007116275454322021,0.0004267348058940329,1.5406227535051165e-05
0.007376037856854168,0.0004303578842218269,1.562050070758013e-05
0.007632820046471692,0.00043411009869765837,1.5836617703310003e-05
0.007885653983857198,0.0004379897172052406,1.6054642657285728e-05
0.008133531090207693,0.0004419945134737568,1.6274638714955478e-05
0.008375400004062715,0.0004461217462473244,1.649666777988575e-05
0.008610164152353798,0.0004503681372864285,1.6720790250769186e-05
0.008836679234546055,0.00045472984813315346,1.6947064747124084e-05
0.009053750780868687,0.00045920245563700715,1.7175547823066625e-05
0.009260132011983419,0.0004637809263352202,1.740629366855968e-05
0.009454522279151048,0.0004684595899080038,1.7639353797620485e-05
0.009635566379639972,0.00047323211207270157,1.787477672311566e-05
0.009801855020563835,0.0004780914674227525,1.8112607617989525e-05
0.009951926664706706,0.00048302991284407014,1.835288796305623e-05
0.010084270951106653,0.0004880389622480235,1.8595655181829255e-05
0.010197333842242149,0.0004931093634463607,1.8840942263252852e-05
0.010289524599765726,0.0004982310780568626,1.908877737362866e-05
0.010359224626446279,0.0005033932653634157,1.933918345948373e-05
0.01040479813540556,0.0005085842710538786,1.9592177843588053e-05
0.010424604525014505,0.0005137916217189837,1.9847771816781268e-05
0.01041701225919858,0.000519002025915037,2.0105970228689773e-05
0.01038041399588475,0.0005242013824788078,2.0366771080788234e-05
0.010313242684167993,0.000529374796648821,2.0630165125570143e-05
0.01021398835958176,0.0005345066044097585,2.089613547583479e-05
0.010081215388681296,0.0005395804053468243,2.1164657228273936e-05
0.009913579932545852,0.000544579104177131,2.1435697105654926e-05
0.009709847407143521,0.0005494849610120534,2.1709213121952224e-05
0.009468909716552683,0.0005542796502929774,2.1985154274778483e-05
0.009189802021574225,0.0005589443282275091,2.2263460269408605e-05
0.008871718781238129,0.0005634597084282122,2.2544061278572534e-05
0.008514028776222848,0.0005678061453175774,2.282687774200898e-05
0.008116288808070563,0.0005719637247136508,2.3111820209516787e-05
0.007678255779189755,0.0005759123608604659,2.3398789230910316e-05
0.007199896894918993,0.0005796318990289931,2.368767529588268e-05
0.006681397779565639,0.0005831022226976143,2.3978358826314334e-05
0.006123168354471362,0.0005863033642311236,2.4270710223046518e-05
0.005525846380577605,0.0005892156179148858,2.456458996858302e-05
0.004890298609319316,0.0005918196541623601,2.4859848786602334e-05
0.004217619505014537,0.0005940966336909435,2.515632785856566e-05
0.003509127507618267,0.0005960283204441017,2.545385909709942e-05
0.0027663588186710663,0.000597597192025674,2.5752265475216863e-05
0.0019910587293974482,0.000598786546412691,2.6051361409826455e-05
0.0011851705613396435,0.0005995806037353753,2.635095319736347e-05
0.0003508223423439915,0.0005999646019612963,2.665083949878764e-05
-0.000509688609165862,0.0005999248853945908,2.695081187062661e-05
-0.001393912967320068,0.0005994489850004694,2.7250655338225375e-05
-0.0022992682793376777,0.0005985256896888049,2.7550149006897694e-05
-0.0032230591492909758,0.0005971451078316478,2.7849066706277807e-05
-0.004162498434772681,0.0005952987184356319,2.8147177662844627e-05
-0.005114729186701652,0.0005929794115302633,2.84442471953361e-05
-0.006076847079107936,0.0005901815174638109,2.874003742758462e-05
-0.007045923072182953,0.0005869008249259882,2.903430801318207e-05
-0.008019026029585652,0.0005831345876505461,2.9326816866326205e-05
-0.008993244988783526,0.0005788815198959538,2.961732089321283e-05
-0.00996571078281518,0.0005741417809530542,2.9905576718425084e-05
-0.010933616741543533,0.0005689169490719645,3.019134140093134e-05
-0.011894238251084726,0.0005632099853238074,3.0474373134530283e-05
-0.012844951003835026,0.0005570251880100775,3.075443192786375e-05
-0.013783247816364596,0.0005503681383050276,3.1031280259442527e-05
-0.014706753927761652,0.000543245637868996,3.1304683703486035e-05
-0.015613240718422919,0.0005356656392074499,3.157441152275515e-05
-0.01650063780579734,0.0005276371695763949,3.184023722495111e-05
-0.017367043477334854,0.0005191702492556118,3.210193907965911e-05
-0.018210733419296198,0.0005102758050314541,3.2359300593230875e-05
-0.019030167704181623,0.0005009655797505846,3.2612110939426386e-05
-0.0198239960126981,0.0004912520388213647,3.2860165344069376e-05
-0.020591061086376764,0.000481148274546596,3.310326542241136e-05
-0.021330400432741717,0.0004706679091668164,3.334121946833971e-05
-0.022041246329840773,0.0004598249974761708,3.357384269500046e-05
-0.022723024188240314,0.0004486339298466505,3.380095742683117e-05
-0.023375349320231404,0.00043710933646953255,3.4022393243410214e-05
-0.023998022147405755,0.0004252659936026233,3.4237987075928255e-05
-0.024591021863329534,0.00041311873259993945,3.444758325747889e-05
-0.02515449856333686,0.0004006823524932729,3.4651033528752194e-05
-0.025688763855028808,0.00038797153688868144,3.484819700109768e-05
-0.02619427997192423,0.00037500077593194316,3.503894007930284e-05
-0.026671647440138592,0.0003617842940789275,3.5223136346805555e-05
-0.027121591397980326,0.00034833598436939775,3.5400666416417635e-05
-0.027544946721689677,0.00033466934983948025,3.557141774996985e-05
-0.027942642144922543,0.0003207974526228272,3.573528445058543e-05
-0.028315683576143804,0.0003067328711925606,3.5892167031539277e-05
