acceleration,velocity,displacement
0.023917934193989035,0.0,0.0
0.021965036754389527,1.1470742737094642e-05,2.8676856842736607e-09
0.020018655480261202,2.1966665795757325e-05,1.1227037817486653e-08
0.018085253758493385,3.1492643105445975e-05,2.4591865042787478e-08
0.01617119081290689,4.0056754248296046e-05,4.247921438122298e-08
0.014282672950737122,4.767022018920705e-05,6.441095799059875e-08
0.012425708422145236,5.4347315532427646e-05,8.991534192100743e-08
0.01060606658738961,6.0105259284811356e-05,1.1852848562531718e-07
0.008829241807291263,6.496408638348157e-05,1.4979582204239042e-07
0.007100422225920026,6.89465023917844e-05,1.832734692362069e-07
0.005424463417373333,7.207772380260774e-05,2.1852952578480494e-07
0.003805866732259423,7.438530634001594e-05,2.551452833204609e-07
0.002248762100146765,7.589896354811749e-05,2.9271635079249423e-07
0.0007568949998252862,7.665037782311049e-05,3.3085368613530124e-07
-0.0006663827188776399,7.66730058933474e-05,3.691845320644157e-07
-0.0020181184882358625,7.600188059156903e-05,4.073532536856448e-07
-0.0032957614645484595,7.467341060337295e-05,4.450220764843803e-07
-0.0044971620560569706,7.27251797232216e-05,4.818717240660289e-07
-0.005620568848508859,7.019574699708013e-05,5.176019557461043e-07
-0.00666462329558785,6.712444896105596e-05,5.519320047356384e-07
-0.0076283526030877305,6.355120498638707e-05,5.846009182224992e-07
-0.008511161251115808,5.951632652283618e-05,6.15367801099805e-07
-0.009312821535810017,5.506033082610472e-05,6.440119654370402e-07
-0.010033463370885152,5.022375959943093e-05,6.703329880434241e-07
-0.010673563405650373,4.504700290529705e-05,6.941506786696061e-07
-0.011233933361436733,3.957012871352527e-05,7.153049615743117e-07
-0.011715707436266896,3.3832718514099364e-05,7.336556733812179e-07
-0.012120328696236134,2.7873709480973607e-05,7.490822803799861e-07
-0.012449534502674253,2.173124368124601e-05,7.61483518670541e-07
-0.012705341121038074,1.544252477531793e-05,7.70776960784682e-07
-0.012890027652460702,9.043682581943236e-06,7.768985126239972e-07
-0.013006119323924458,2.5696458378469458e-06,7.798018447289447e-07
-0.013056370037368599,-3.945976502476319e-06,7.794577620627874e-07
-0.013043743996598052,-1.0471005010967981e-05,7.758535166844263e-07
-0.012971396235181376,-1.6974790068912837e-05,7.689920679144561e-07
-0.012842651923341265,-2.3428302108543497e-05,7.588912948700921e-07
-0.012660984392666339,-2.98042111875454e-05,7.455831665460699e-07
-0.012429991879339266,-3.60769552555468e-05,7.291128749352968e-07
-0.012153373064269958,-4.2222796491449106e-05,7.095379369985478e-07
-0.011834901575162883,-4.821986515130732e-05,6.869272715878586e-07
-0.011478399685271758,-5.4048190466415976e-05,6.613602576834278e-07
-0.011087711487822963,-5.968971825968966e-05,6.329257805019014e-07
-0.010666675857739933,-6.512831509608038e-05,6.017212721629588e-07
-0.010219099534514497,-7.034975894414398e-05,5.678517536529027e-07
-0.009748730650062641,-7.534171649028826e-05,5.314288847942946e-07
-0.009259232974284019,-8.009370739637492e-05,4.925700288226288e-07
-0.008754161085572027,-8.459705591133893e-05,4.5139733799570037e-07
-0.008236936637042624,-8.88448303419926e-05,4.080368664323675e-07
-0.007710825910081623,-9.283177097877365e-05,3.626177161021759e-07
-0.007178918916245764,-9.65542071853555e-05,3.1527122156114363e-07
-0.006644110379130061,-0.00010000996450919946,2.6613017863750487e-07
-0.006109082946185503,-0.00010319826284052835,2.153281218000729e-07
-0.005576292933544144,-0.00010611960681046076,1.6299865438732562e-07
-0.005047958828234535,-0.00010877566975090543,1.0927483524698408e-07
-0.004526052696708699,-0.00011116917263214124,5.4288624651222405e-08
-0.004012294575319352,-0.00011330375945014826,-1.829608369349972e-09
-0.003508149836190409,-0.0001151838705530257,-5.8951515870143465e-08
-0.003014829447633781,-0.00011681461537398175,-1.1695113735189533e-07
-0.0025332930104843823,-0.00011820164598851129,-1.757052026925186e-07
-0.002064254454441794,-0.00011935103285474283,-2.3509337240333213e-07
-0.0016081903004448923,-0.0001202691440434645,-2.9499841662788393e-07
-0.0011653504069060881,-0.00012096252922030225,-3.5530633494382564e-07
-0.0007357710946337763,-0.00012143780959568721,-4.15906419647823e-07
-0.0003192904837113349,-0.00012170157499027349,-4.7669126579431314e-07
8.443420162872467e-05,-0.00012176028906079414,-5.375567318070801e-07
0.00047590767175179093,-0.00012162020359244902,-5.984018549703909e-07
0.0008557763228504576,-0.00012128728259379845,-6.591287265169528e-07
0.0012248071272625367,-0.0001207671367312702,-7.196423313482199e-07
0.001583866132633004,-0.00012006496841629631,-7.798503576351115e-07
0.0019338970277344943,-0.00011918552762620444,-8.396629816457367e-07
0.0022759001523491996,-0.00011813307833118351,-8.989926331350837e-07
0.0026109122232459434,-0.00011691137523728473,-9.577537465272008e-07
0.0029399869741444633,-0.00011552365043793712,-1.0158625029460062e-06
0.003264176877702625,-0.00011397260947497536,-1.0732365679242344e-06
0.0035845161070979245,-0.00011226043622877522,-1.129794829350172e-06
0.0039020048838830203,-0.00011038880598102998,-1.1854571399026233e-06
0.004217595344032684,-0.00010835890592405105,-1.2401440678788935e-06
0.004532179027838189,-0.00010617146233108333,-1.293776659942677e-06
0.004846576048684346,-0.0001038267735619527,-1.3462762189159362e-06
0.005161525926911303,-0.00010132474806805379,-1.3975640993234377e-06
0.0054776800141746055,-9.866494658278231e-05,-1.4475615229861468e-06
0.005795595394765694,-9.584662773054723e-05,-1.4961894165644792e-06
0.006115730128071274,-9.2868796349838e-05,-1.5433682725845756e-06
0.0064384396886690565,-8.973025389565291e-05,-1.5890180351459483e-06
0.006763974464804342,-8.642965035728456e-05,-1.6330580112091825e-06
0.007092478178458182,-8.296553719646892e-05,-1.675406808097621e-06
0.007423987093085806,-7.933642087858292e-05,-1.715982297616384e-06
0.007758429904875796,-7.554081662909253e-05,-1.7547016069933028e-06
0.008095628278652126,-7.157730208321055e-05,-1.7914811366713785e-06
0.00843529806397942,-6.744457049755265e-05,-1.8262366048165694e-06
0.008777051281929871,-6.314148316107533e-05,-1.8588831182312263e-06
0.009120398997825581,-5.866712059113647e-05,-1.8893352691692793e-06
0.009464755194865096,-5.40208320429638e-05,-1.9175072573278045e-06
0.009809441748334228,-4.9202282807163966e-05,-1.9433130360403365e-06
0.010153694564201277,-4.4211498729030093e-05,-1.966666481424385e-06
0.010496670862413017,-3.904890737237652e-05,-1.987481582949737e-06
0.010837457447989642,-3.371537529477585e-05,-2.005672653616525e-06
0.01117507967607135,-2.8212241013760605e-05,-2.0211545576936595e-06
0.011508510758684672,-2.25413434050716e-05,-2.0338429537983677e-06
0.011836681105349018,-1.6705045439063177e-05,-2.0436545510094012e-06
0.012158487488626598,-1.0706253290569273e-05,-2.0505073756918094e-06
0.012472801916017951,-4.548430939408136e-06,-2.054321046749304e-06
0.012778480140238847,1.7643895746560635e-06,-2.0550170570904917e-06
0.013074369751400644,8.227602047565936e-06,-2.052519059184936e-06
0.013359317790063071,1.4836023932931864e-05,-2.0467531526898117e-06
0.013632177832359196,2.158389783853743e-05,-2.0376481722469444e-06
0.013891816531467337,2.8464896429494065e-05,-2.0251359736799365e-06
0.014137119622310483,3.547213046793852e-05,-2.0091517169555785e-06
0.014366997401366486,4.259815972385776e-05,-1.9896341444076293e-06
0.014580389725571526,4.983500650559226e-05,-1.966525852850267e-06
0.014776270665181973,5.7174171603280636e-05,-1.9397735583230487e-06
0.01495365305369993,6.460665253300111e-05,-1.9093283522889784e-06
0.015111593228448328,7.212296410353819e-05,-1.8751459481298437e-06
0.015249196222220323,7.971316146620534e-05,-1.8371869167374078e-06
0.015365621584171525,8.73668659178033e-05,-1.7954169098914056e-06
0.015460089916278116,9.507329379291571e-05,-1.749806869963726e-06
0.01553189012530828,0.00010282128880331232,-1.7003332243146688e-06
0.015580387311805,0.00011059935816259064,-1.646978062573193e-06
0.015605031150197617,0.00011839571277809129,-1.5897292948380226e-06
0.015605364562365324,0.00012619831170623203,-1.5285807887169419e-06
0.01558103244814413,0.0001339949109588594,-1.463532483050669e-06
0.01553179019589868,0.0001417731166198701,-1.3945904761559865e-06
0.015457511647507272,0.0001495204420807216,-1.3217670864808386e-06
0.015358196151682406,0.00015722436903051903,-1.2450808837030284e-06
0.015233974337556517,0.00016487241165282876,-1.1645566885321915e-06
0.015085112295599773,0.00017245218331111783,-1.0802255397912048e-06
0.014912013958698008,0.00017995146487469226,-9.921246277447523e-07
0.014715221602926402,0.00018735827376509836,-9.002971930848047e-07
0.014495414505305856,0.00019466093279215643,-8.04792391445491e-07
0.014253405886743295,0.0002018481378901687,-7.056651237749097e-07
0.013990138319583853,0.0002089090239417505,-6.029758333169299e-07
0.013706677786292306,0.00021583322796821954,-4.967902703394374e-07
0.013404206551499749,0.00022261094905266755,-3.871792260842156e-07
0.013084014977614345,0.00022923300443494608,-2.742182377123122e-07
0.01274749239322481,0.00023569088127765587,-1.579872662841617e-07
0.012396117119659298,0.0002419767836558769,-3.857035005077849e-08
0.01203144576804504,0.00024808367437780297,8.394476445764146e-08
0.011655101925697646,0.00025400531130123866,2.0946701087740185e-07
0.011268764346972101,0.0002597362778694061,3.3790240817006307e-07
0.01087415474674506,0.00026527200764283536,4.691544795481234e-07
0.01047302527080891,0.00027060880264722384,6.031246821206382e-07
0.010067145694080609,0.0002757438453884462,7.397128441295557e-07
0.009658290377592726,0.00028067520440636453,8.788176065782584e-07
0.009248225007215357,0.00028540183325256657,1.0203368659929911e-06
0.008838693153924127,0.0002899235627928514,1.1641682150043457e-06
0.008431402731913078,0.00029424108676431073,1.3102093773936363e-06
0.008028012465038857,0.00029835594056354874,1.4583586342256013e-06
0.007630118500564803,0.00030227047330494964,1.6085152376927258e-06
0.007239241350508056,0.00030598781326771784,1.7605798093358927e-06
0.006856813394273257,0.00030951182695391317,1.9144547193913002e-06
0.006484167207837605,0.0003128470721044409,2.0700444441558887e-06
0.006122524964319111,0.0003159987451474801,2.227255898468869e-06
0.005772989082266417,0.00031897262365912645,2.3859987406705204e-06
0.00543653421634369,0.00032177500448377896,2.5461856477062468e-06
0.005114000633500429,0.00032441263819624,2.7077325583762513e-06
0.004806089022669164,0.00032689266061028237,2.870558883077882e-06
0.004513356848310134,0.0003292225220780272,3.0345876787499593e-06
0.004236216453002816,0.0003314099154033554,3.199745788120305e-06
0.003974935193734623,0.00033346270331503975,3.365963942799904e-06
0.003729637907733228,0.0003353888465904067,3.5331768302762656e-06
0.0035003119293128306,0.00033719633404966825,3.701323125436284e-06
0.003286814747795881,0.00033889311571894544,3.870345487878438e-06
0.0030888842371606866,0.0003404870404651846,4.040190526924471e-06
0.002906151207760586,0.0003419857993264149,4.210808736872371e-06
0.002738153848908977,0.0003433968755905823,4.38215440560162e-06
0.002584353498494474,0.0003447275024274332,4.554185500106124e-06
0.0024441511348177827,0.0003459846285857612,4.726863532859422e-06
0.0023169040321997965,0.0003471748923775156,4.900153413100242e-06
0.002201942113540635,0.0003483046039139507,5.0740232871731085e-06
0.002098583633348668,0.000349379735350673,5.248444371989265e-06
0.002006149922666782,0.00035040591873967687,5.423390785511852e-06
0.0019239790073809757,0.0003513884509721888,5.598839377939818e-06
0.0018514379390606485,0.0003523323052087992,5.7747695669850655e-06
0.0017879336451334992,0.00035324214810484775,5.951163180313477e-06
0.0017329220724401882,0.0003541223620342412,6.128004307848249e-06
0.001685915435967926,0.00035497707141134323,6.305279166209645e-06
0.001646487489934397,0.0003558101721428188,6.4829759770981855e-06
0.0016142768475583126,0.000356625363227192,6.661084860940688e-06
0.0015889884471920182,0.0003574261795508796,6.839597746635206e-06
0.0015703933051302314,0.00035821602498896013,7.018508297770166e-06
0.0015583267312642784,0.00035899820499805875,7.197811855266921e-06
0.001552685214404597,0.000359775957984476,7.3775053960125545e-06
0.001553422198631842,0.0003605524848377351,7.557587506718107e-06
0.001560542969919826,0.00036133097612987304,7.738058371960009e-06
0.0015740988629745164,0.0003621146365880966,7.918919775139501e-06
0.0015941809826260363,0.0003629067065494967,8.1001751109239e-06
0.0016209136101130223,0.0003637104801976815,8.281829407610694e-06
0.0016544474396206726,0.0003645293204601149,8.463889357775143e-06
0.00169495276480057,0.0003653666705112202,8.646363355517978e-06
0.001742612694716365,0.00036622606187609945,8.829261538614807e-06
0.001797616428242631,0.00036711111915683917,9.012595833873042e-06
0.0018601525912834197,0.0003680255614117207,9.196380004015183e-06
0.0019304026622779665,0.00036897320022511105,9.38062969442439e-06
0.002008534556978771,0.00036995793452992526,9.56536247811315e-06
0.002094696485378238,0.0003709837422905145,9.75059789731826e-06
0.0021890112234063696,0.0003720546692177107,9.936357500195316e-06
0.0022915709595056444,0.00037317481476343867,1.0122664871190603e-05
0.00240243287738011,0.00037434831572266013,1.0309545653812128e-05
0.0025216156125863736,0.00037557932784515176,1.0497027564704081e-05
0.0026490966685339262,0.0003768720059154318,1.0685140398144227e-05
0.002784810819127029,0.00037823048278734706,1.0873916020319922e-05
0.002928649499213538,0.0003796588478669322,1.1063388352983492e-05
0.0030804611904657365,0.000381161125539352,1.1253593346335063e-05
0.003240052802591171,0.0003827412540376162,1.1444568941229306e-05
0.0034071920054811952,0.0003844030652396343,1.1636355021048619e-05
0.0035816104226837147,0.0003861502658466755,1.1828993353820196e-05
0.003763007579461623,0.00038798642034721184,1.2022527525368668e-05
0.003951055485823639,0.00038991493611353315,1.2217002864483854e-05
0.004145403689712105,0.00039193905090741706,1.2412466361239092e-05
0.0043456845565935966,0.0003940618229689935,1.2608966579708195e-05
0.004551518450246998,0.00039628612372070364,1.2806553566380618e-05
0.004762518442002876,0.0003986146329437661,1.3005278755546735e-05
0.004978294180161309,0.0004010498360993072,1.3205194872807503e-05
0.00519845460201112,0.00040359402329485033,1.3406355837656043e-05
0.005422609254220137,0.00040624928925890813,1.3608816665794483e-05
0.0056503680893809855,0.00040901753359480844,1.3812633371507913e-05
0.005881339710000747,0.0004119004605446539,1.4017862870042778e-05
0.006115128120955922,0.00041489957750239306,1.422456287955454e-05
0.006351328112563997,0.00041801619156077305,1.4432791821820333e-05
0.006589519405948238,0.00042125140344040113,1.4642608720570626e-05
0.006829259640080854,0.0004246060982019084,1.4854073095981203e-05
0.0070700761995208805,0.00042808093216180885,1.5067244853572132e-05
0.0073114568299287,0.00043167631541917123,1.528218416546738e-05
0.0075528389970701505,0.00043539238937592093,1.5498951341666153e-05
0.007793598011884185,0.0004392289986281595,1.5717606688667175e-05
0.008033034052346972,0.00044318565664421726,1.593821035248527e-05
0.008270358348717215,0.0004472615047444833,1.6160822142832445e-05
0.008504678958038999,0.00045145526407117234,1.6385501335036358e-05
0.008734986723290377,0.0004557651804915047,1.6612306446177027e-05
0.008960142146127016,0.000460188962708859,1.6841294981977118e-05
0.009178863946917888,0.0004647237142321202,1.707252315121236e-05
0.009389720038811169,0.00046936586022855247,1.730604554482753e-05
0.009591121550852089,0.0004741110706259683,1.754191477754116e-05
0.009781320440325736,0.0004789541811237627,1.778018109047859e-05
0.009958411138846848,0.00048388911401855587,1.802089191426417e-05
0.010120336558648683,0.0004889088009429297,1.826409139300454e-05
0.01026489863138868,0.0004940051097404391,1.850981987067538e-05
0.010389773366978742,0.0004991687777400309,1.87581133425455e-05
0.010492530219124153,0.0005043893536365566,1.9009002875389644e-05
0.01057065535312417,0.0005096551500296187,1.9262514001306188e-05
0.010621578272423111,0.0005149532084360056,1.9518666090922594e-05
0.01064270120638903,0.0005202692783057086,1.977747171260802e-05
0.010631430682980928,0.0005255878112780511,2.003893598500396e-05
0.010585210762486509,0.000530891971639418,2.0303055930733327e-05
0.010501557451403106,0.0005361636636928905,2.0569819839566405e-05
0.01037809383301638,0.0005413835765139953,2.0839206649618128e-05
0.010212585442294341,0.000546531246332823,2.111118535532983e-05
0.0100029753748263,0.0005515851365371032,2.1385714451047314e-05
0.009747418551997795,0.0005565227350188092,2.1662741418936293e-05
0.009444314488006925,0.0005613206682788104,2.19422022697607e-05
0.009092337859660961,0.0005659548313657274,2.222402114467183e-05
0.00869046619908481,0.0005704005323804138,2.2508109985608368e-05
0.008238004109814553,0.0005746326499576387,2.279436828119288e-05
0.007734603522133078,0.0005786258018656256,2.3082682894148697e-05
0.007180279631651972,0.0005823545226540718,2.337292797527862e-05
0.006575422288843113,0.0005857934481341956,2.3664964967975685e-05
0.005920802698421484,0.0005889175043810118,2.3958642706104486e-05
0.005217575324536572,0.0005917020988867513,2.4253797606921428e-05
0.004467274900988181,0.0005941233114431325,2.45502539595039e-05
0.003671808469541439,0.0005961580822857649,2.4847824307936123e-05
0.002833442447841146,0.0005977843950151105,2.514630992726134e-05
0.001954784844872811,0.0005989814518382891,2.5445501388974692e-05
0.001038762861285544,0.0005997298387648287,2.574517921162547e-05
8.85962260530645e-05,0.0006000116785366633,2.6045114590950842e-05
-0.0008922332610748421,0.0005998107692779079,2.6345070202904487e-05
-0.0019000154071498994,0.0005991127071108517,2.6644801072001675e-05
-0.002930847896848988,0.000597904991284852,2.6944055496600603e-05
-0.003980674545073263,0.0005961771106743714,2.724257602209041e-05
-0.005045324975314571,0.0005939206107942745,2.754010045245757e-05
-0.006120555212433136,0.0005911291407473375,2.7836362890342974e-05
-0.007202088672459585,0.0005877984797761144,2.8131094795473838e-05
-0.008285656978704996,0.0005839265433633232,2.8424026051258696e-05
-0.009367039979323423,0.0005795133691238161,2.871488602938048e-05
-0.010442104339631605,0.0005745610830440773,2.9003404642422454e-05
-0.01150684015358103,0.0005690738469207741,2.9289313374913665e-05
-0.012557395140216214,0.0005630577880973248,2.957234628366819e-05
-0.013590106118816319,0.0005565209127825667,2.9852240958888162e-05
-0.014601527561516949,0.0005494730043624833,3.0128739438174425e-05
-0.015588457102819964,0.0005419255081963991,3.0401589066314145e-05
-0.016547957945521476,0.0005338914044343137,3.0670543294471826e-05
-0.01747737813518651,0.0005253850704141367,3.093536241318394e-05
-0.01837436667568462,0.0005164221342114189,3.119581421434033e-05
-0.019236886444931756,0.0005070193209312648,3.1451674578126e-05
-0.020063223869959686,0.000497194293352542,3.1702727981696953e-05
-0.020851995342396193,0.000486965488549453,3.194876792717245e-05
-0.02160215039426125,0.00047635195211528865,3.218959728733864e-05
-0.022312971706460946,0.0004653731715901081,3.242502856826499e-05
-0.022984072072627856,0.0004540489106453359,3.2654884088823853e-05
-0.02361538845764782,0.000442399045512767,3.287899607786338e-05
-0.024207173258875864,0.0004304434050836361,3.309720669051248e-05
-0.024759982821774867,0.0004182016160634734,3.330936794579926e-05
-0.02527466321607956,0.00040569295455400976,3.351534158845363e-05
-0.025752333257452492,0.00039293620543562677,3.371499887845104e-05
-0.02619436475446689,0.00037994953093264695,3.3908220312543106e-05
-0.02660235997427013,0.0003667503497504627,3.4094895282713886e-05
-0.026978126380381537,0.00035335522816179975,3.427492167719195e-05
-0.027323648812450627,0.0003397797843635917,3.44482054303233e-05
-0.0276410594034634,0.0003260386073096132,3.46146600282416e-05
-0.02793260560987546,0.0003121451910562785,3.477420597783307e-05
-0.028200616767376813,0.0002981118854619654,3.492677024696263e-05
