acceleration,velocity,displacement
0.02391793419265828,0.0,0.0
0.02196503675408443,1.1470742736685678e-05,2.8676856841714195e-09
0.020018655480943517,2.1966665795442663e-05,1.1227037817203505e-08
0.018085253760118505,3.149264310570817e-05,2.4591865042491212e-08
0.016171190815423835,4.0056754249593755e-05,4.247921438131669e-08
0.014282672954088563,4.767022019197186e-05,6.441095799170809e-08
0.012425708426259495,5.434731553705887e-05,8.991534192396577e-08
0.010606066592191843,6.0105259291671706e-05,1.1852848563114842e-07
0.008829241812700258,6.496408639289473e-05,1.4979582205229e-07
0.007100422231851392,6.894650240403264e-05,1.8327346925152186e-07
0.005424463423741096,7.207772381793076e-05,2.1852952580701271e-07
0.0038058667389808086,7.438530635861124e-05,2.551452833511482e-07
0.0022487621071501655,7.589896357014397e-05,2.92716350833337e-07
0.0007568950070502626,7.665037784869408e-05,3.308536861880465e-07
-0.0006663827114851435,7.667300592258537e-05,3.691845321308664e-07
-0.0020181184807235185,7.600188062453321e-05,4.07353253767646e-07
-0.003295761456960746,7.467341064011215e-05,4.4502207658380736e-07
-0.004497162048436768,7.272517976376277e-05,4.818717241847761e-07
-0.00562056884089426,7.019574704143002e-05,5.176019558860743e-07
-0.006664623288013756,6.712444900920302e-05,5.519320048987326e-07
-0.00762835259558426,6.355120503830352e-05,5.846009184106092e-07
-0.008511161243711481,5.951632657847958e-05,6.153678013148049e-07
-0.009312821528531762,5.5060330885418774e-05,6.440119656807795e-07
-0.010033463363756708,5.0223759662346656e-05,6.703329883177209e-07
-0.010673563398692291,4.504700297173441e-05,6.941506789762411e-07
-0.011233933354664783,3.957012878339514e-05,7.153049619150235e-07
-0.011715707429693665,3.383271858730553e-05,7.336556737576987e-07
-0.012120328689872614,2.787370955741396e-05,7.490822807938786e-07
-0.012449534496531441,2.1731243760812946e-05,7.614835191234353e-07
-0.012705341115117407,1.544252485790073e-05,7.707769612781137e-07
-0.012890027646755649,9.043682667432466e-06,7.76898513159447e-07
-0.013006119318420526,2.569645926138421e-06,7.798018453078397e-07
-0.013056370032043326,-3.945976411477542e-06,7.794577626865049e-07
-0.013043743991428984,-1.047100491734562e-05,7.758535173542991e-07
-0.012971396230149253,-1.697478997274018e-05,7.689920686317776e-07
-0.012842651918433213,-2.3428302009885795e-05,7.588912956361211e-07
-0.012660984387877461,-2.9804211086463465e-05,7.455831673620338e-07
-0.012429991874671052,-3.607695515210059e-05,7.291128758023928e-07
-0.012153373059727092,-4.2222796385700126e-05,7.095379379179425e-07
-0.011834901570761218,-4.8219865043322205e-05,6.86927272560687e-07
-0.011478399681031934,-5.4048190356270495e-05,6.613602587107888e-07
-0.011087711483767226,-5.968971814747029e-05,6.329257815848536e-07
-0.010666675853900104,-6.512831498188712e-05,6.017212733025143e-07
-0.010219099530930373,-7.034975882809473e-05,5.678517548500188e-07
-0.009748730646778812,-7.534171637252204e-05,5.314288860498647e-07
-0.009259232971351457,-8.00937072770546e-05,4.925700301374706e-07
-0.008754161083049683,-8.459705579065488e-05,4.513973393705432e-07
-0.008236936634989459,-8.884483022016466e-05,4.080368678678383e-07
-0.007710825908548632,-9.283177085604918e-05,3.626177175987848e-07
-0.0071789189152759786,-9.655420706200533e-05,3.152712231192712e-07
-0.006644110378752171,-0.00010000996438551236,2.661301802573918e-07
-0.00610908294641545,-0.00010319826271680427,2.1532812348181265e-07
-0.005576292934383526,-0.00010611960668700401,1.6299865613086057e-07
-0.005047958829676985,-0.00010877566962801913,1.0927483705210478e-07
-0.004526052698736695,-0.00011116917251012255,5.4288626517569355e-08
-0.004012294577899433,-0.00011330375932928159,-1.8296064422816852e-09
-0.00350814983927477,-0.00011518387043357514,-5.8951513882995866e-08
-0.003014829451166647,-0.00011681461525618549,-1.1695113530543602e-07
-0.0025332930144036057,-0.00011820164587257805,-1.757052005876269e-07
-0.0020642544586820383,-0.00011935103274084946,-2.3509337024098378e-07
-0.0016081903049376348,-0.00012026914393175438,-2.9499841440913475e-07
-0.0011653504115828068,-0.0001209625291108845,-3.553063326697945e-07
-0.0007357710994323251,-0.00012143780948863828,-4.159064173196752e-07
-0.00031929048857435075,-0.00012170157488563995,-4.7669126341324476e-07
8.443419676338838e-05,-0.00012176028895859269,-5.375567293743029e-07
0.00047590766694628197,-0.00012162020349266527,-5.984018524871174e-07
0.0008557763181653308,-0.00012128728249638736,-6.591287239843806e-07
0.0012248071227567545,-0.00012076713663615683,-7.196423287675166e-07
0.0015838661283591536,-0.00012006496832337786,-7.798503550074003e-07
0.0019338970237356,-0.00011918552753535416,-8.396629789720833e-07
0.0022759001486666935,-0.0001181330782422536,-8.989926304164853e-07
0.0026109122199164773,-0.0001169113751501078,-9.577537437645755e-07
0.002939986971201503,-0.0001155236503523283,-1.0158625001401846e-06
0.003264176875173261,-0.00011397260939073461,-1.0732365650759504e-06
0.003584516104994902,-0.00011226043614569257,-1.129794826460057e-06
0.0039020048822031453,-0.00011038880589889306,-1.1854571369712036e-06
0.004217595342758415,-0.00010835890584265267,-1.2401440649065901e-06
0.004532179026945612,-0.00010617146225022667,-1.29377665692981e-06
0.00484657604814317,-0.00010382677348145448,-1.34627621586273e-06
0.005161525926681675,-0.00010132474798774827,-1.3975640962300308e-06
0.005477680014210296,-9.866494650252528e-05,-1.4475615198525992e-06
0.005795595395017285,-9.584662765021838e-05,-1.4961894133907852e-06
0.0061157301284877575,-9.286879626934212e-05,-1.5433682693706753e-06
0.006438439689204205,-8.973025381491912e-05,-1.5890180318917406e-06
0.006763974465415117,-8.64296502762643e-05,-1.6330580079145365e-06
0.007092478179107926,-8.296553711513354e-05,-1.675406804762386e-06
0.007423987093744233,-7.93364207969205e-05,-1.7159822942403995e-06
0.007758429905515811,-7.55408165471055e-05,-1.754701603576406e-06
0.008095628279246635,-7.157730200091489e-05,-1.7914811332134112e-06
0.008435298064504514,-6.74445704149771e-05,-1.8262366013173842e-06
0.008777051282364829,-6.314148307825975e-05,-1.8588831146906934e-06
0.009120398998149683,-5.866712050813112e-05,-1.8893352655872911e-06
0.009464755195062404,-5.40208319598281e-05,-1.917507253704281e-06
0.009809441748391986,-4.92022827239645e-05,-1.943313032375229e-06
0.0101536945641147,-4.421149864583783e-05,-1.9666664777176796e-06
0.01049667086218689,-3.904890728926243e-05,-1.9874815792014547e-06
0.010837457447631926,-3.371537521180773e-05,-2.0056726498267223e-06
0.011175079675596389,-2.8212240931000648e-05,-2.0211545538624244e-06
0.011508510758117964,-2.254134332257206e-05,-2.0338429499258178e-06
0.011836681104722437,-1.670504535686196e-05,-2.043654547095676e-06
0.012158487487978391,-1.0706253208686752e-05,-2.0505073717370633e-06
0.012472801915394332,-4.548430857843571e-06,-2.054321042753696e-06
0.012778480139695594,1.7643896559289104e-06,-2.0550170530541747e-06
0.013074369750998318,8.227602128602388e-06,-2.052519055108042e-06
0.013359317789860633,1.4836024013817126e-05,-2.046753148572437e-06
0.013632177832412419,2.1583897919385387e-05,-2.0376481680891363e-06
0.013891816531831986,2.8464896510446487e-05,-2.0251359694816782e-06
0.01413711962303914,3.547213054916427e-05,-2.0091517127167757e-06
0.014366997402514913,4.2598159805552784e-05,-1.9896341401280965e-06
0.01458038972719708,4.9835006587980785e-05,-1.966525848529713e-06
0.014776270667338819,5.717417168661476e-05,-1.939773553961064e-06
0.014953653056440638,6.460665261755963e-05,-1.9093283478850204e-06
0.01511159323182068,7.212296418962496e-05,-1.8751459436832241e-06
0.015249196226268915,7.971316155414737e-05,-1.837186912247281e-06
0.015365621588936165,8.736686600794864e-05,-1.795416905356757e-06
0.01546008992178905,9.507329388562995e-05,-1.7498068653833622e-06
0.015531890131587773,0.00010282128889897414,-1.7003332196872111e-06
0.015580387318870542,0.00011059935826158872,-1.6469780578970703e-06
0.015605031158053938,0.00011839571288081984,-1.5897292901114682e-06
0.015605364571005996,0.00012619831181308482,-1.5285807839379921e-06
0.015581032457548374,0.0001339949110702234,-1.4635324782171652e-06
0.015531790206036154,0.00014177311673611954,-1.3945904712655794e-06
0.01545751165833647,0.0001495204422022127,-1.3217670815309964e-06
0.01535819616315545,0.00015722436915758568,-1.2450808786910468e-06
0.015233974349622339,0.00016487241178578013,-1.1645566834552054e-06
0.015085112308210495,0.00017245218345023834,-1.0802255346462007e-06
0.014912013971808937,0.0001799514650202432,-9.921246225285803e-07
0.014715221616492852,0.00018735827391731864,-9.002971877941898e-07
0.014495414519287922,0.00019466093295126383,-8.047923860770441e-07
0.014253405901094696,0.0002018481380563595,-7.056651183251383e-07
0.013990138334253529,0.00020890902411519656,-6.029758277822493e-07
0.013706677801222823,0.00021583322814906566,-4.967902647161837e-07
0.01340420656662092,0.0002226109492410266,-3.8717922036866064e-07
0.013084014992846423,0.00022923300463089343,-2.7421823190068064e-07
0.012747492408483264,0.00023569088148122584,-1.5798726037265084e-07
0.012396117134859606,0.00024197678386706157,-3.8570344035578995e-08
0.01203144578310268,0.00024808367459655214,8.394477058032444e-08
0.0116551019405281,0.0002540053115274598,2.0946701711132746e-07
0.011268764361487665,0.0002597362781029638,3.3790241451893336e-07
0.010874154760854847,0.0002652720078835494,4.6915448601556165e-07
0.010473025284423631,0.000270608802894869,6.031246887101663e-07
0.010067145707114164,0.0002757438456427535,7.397128508445719e-07
0.009658290389962213,0.00028067520466702257,8.78817613422016e-07
0.009248225018844251,0.0002854018335192242,1.0203368729685776e-06
0.008838693164742284,0.0002899235630651208,1.1641682221146638e-06
0.00843140274185514,0.00029424108704177016,1.3102093846413866e-06
0.008028012474049035,0.0002983559408457462,1.4583586416132657e-06
0.007630118508592095,0.0003022704735914065,1.608515245222554e-06
0.007239241357507839,0.00030598781355793144,1.7605798170098883e-06
0.006856813400205694,0.0003095118272473598,1.9144547272112113e-06
0.006484167212658078,0.00031284707240057576,2.0700444521231954e-06
0.006122524967979819,0.00031599874544573526,2.227255906584773e-06
0.005772989084719559,0.0003189726239589101,2.3859987489359344e-06
0.005436534217539874,0.00032177500478447496,2.546185656121781e-06
0.00511400063338867,0.0003244126384972071,2.7077325669422014e-06
0.004806089021200073,0.00032689266091085427,2.8705588917942168e-06
0.004513356845442296,0.0003292225223775149,3.0345876876163093e-06
0.004236216448701189,0.00033140991570105075,3.1997457971359505e-06
0.003974935187976925,0.0003334627036102203,3.3659639519637683e-06
0.0037296379005083325,0.0003353888468823416,3.533176839586909e-06
0.0035003119206175838,0.00033719633433762307,3.7013231348919e-06
0.0032868147376335054,0.0003388931160021858,3.870345497476853e-06
0.0030888842255375926,0.0003404870407429786,4.040190536663144e-06
0.002906151194684777,0.00034198579959803416,4.210808746748397e-06
0.002738153834391644,0.00034339687585530326,4.382154415611732e-06
0.00258435348255159,0.0003447275026845391,4.554185510246692e-06
0.002444151117474884,0.0003459846288345457,4.726863543126464e-06
0.0023169040134983603,0.000347174892617289,4.900153423489423e-06
0.0022019420935317025,0.00034830460414404655,5.074023297679757e-06
0.002098583612096032,0.0003493797355704535,5.248444382608382e-06
0.0020061499002469885,0.00035040591894853926,5.42339079623813e-06
0.0019239789838865105,0.0003513884511695726,5.598839388767658e-06
0.001851437914598344,0.00035233230539419383,5.7747695779086e-06
0.0017879336198261288,0.00035324214827779995,5.951163191326598e-06
0.0017329220464296544,0.0003541223621943639,6.128004318944639e-06
0.0016859154094136667,0.0003549770715583248,6.305279177382811e-06
0.0016464874630054147,0.00035581017227642953,6.4829759883415e-06
0.0016142768204379563,0.00035662536334729036,6.66108487224743e-06
0.0015889884200732016,0.00035742617965741816,6.839597757998607e-06
0.001570393278212245,0.0003582160250819895,7.018508309183459e-06
0.0015583267047432233,0.00035899820507772837,7.1978118667233886e-06
0.001552685188473386,0.0003597759580510325,7.377505407505579e-06
0.0015534221734738228,0.0003605524848915193,7.5575875182412165e-06
0.001560542945703998,0.00036133097617131374,7.738058383506925e-06
0.0015740988398491548,0.00036211463661770205,7.91891978670418e-06
0.001594180960715503,0.0003629067065678432,8.100175122500565e-06
0.0016209135895225494,0.00036371048020540273,8.281829419193877e-06
0.001654447420428391,0.00036452932045789047,8.4638893693597e-06
0.001694952747057509,0.00036536667049976194,8.646363367099112e-06
0.0017426126784496417,0.00036622606185613874,8.829261550188086e-06
0.0017976164134618261,0.0003671111191291166,9.0125958454344e-06
0.0018601525779901437,0.0003680255613769796,9.196380015560924e-06
0.0019304026504674535,0.000368973200184094,9.380629705951193e-06
0.002008534546646255,0.00036995793448337243,9.565362489618058e-06
0.0020946964765125773,0.00037098374223916214,9.750597908798693e-06
0.002189011215988451,0.0003720546691622874,9.936357511649055e-06
0.0022915709535131666,0.0003731748147046628,1.0122664882615792e-05
0.0024024328727859897,0.0003743483156612376,1.0309545665207267e-05
0.0025216156093587445,0.00037557932778177375,1.049702757606802e-05
0.002649096666636139,0.00037687200585077244,1.0685140409476157e-05
0.0027848108185144645,0.0003782304827220601,1.0873916031619365e-05
0.0029286494998320097,0.0003796588478016467,1.1063388364250292e-05
0.003080461192251494,0.0003811611254746676,1.1253593357569371e-05
0.003240052805466114,0.000382741253974097,1.1444568952431562e-05
0.00340719200935766,0.00038440306517780295,1.1636355032219537e-05
0.003581610427458092,0.00038615026578700686,1.182899336496074e-05
0.0037630075850127688,0.0003879864202901246,1.2022527536480022e-05
0.003951055492020843,0.000389914936059383,1.2217002875567399e-05
0.004145403696418279,0.0003919390508564928,1.2412466372296368e-05
0.0043456845636684616,0.0003940618229215145,1.260896659074087e-05
0.004551518457548684,0.00039628612367681877,1.2806553577390454e-05
0.0047625184493895086,0.00039861463290355334,1.3005278766535548e-05
0.00497829418749739,0.00040104983606277506,1.320519488377713e-05
0.0051984546091755,0.0004035940232619433,1.340635584860831e-05
0.0054226092611044194,0.00040624928922951324,1.3608816676731174e-05
0.005650368095887931,0.00040901753356876135,1.3812633382430743e-05
0.005881339716049056,0.0004119004605217456,1.401786288095337e-05
0.006115128126478647,0.00041489957748237755,1.4224562890454401e-05
0.006351328117511721,0.00041801619154337513,1.4432791832710839e-05
0.006589519410284298,0.00042125140342532416,1.4642608731453014e-05
0.00682925964378453,0.0004246060981888414,1.4854073106856556e-05
0.00707007620259058,0.0004280809321504352,1.5067244864441374e-05
0.007311456832370802,0.00043167631540917554,1.5282184176331277e-05
0.007552838998902189,0.0004353923893669938,1.549895135252532e-05
0.007793598013134857,0.00043922899862000305,1.5717606699522068e-05
0.008033034053048158,0.0004431856566365488,1.5938210363336206e-05
0.008270358348903982,0.00044726150473703685,1.6160822153679603e-05
0.008504678957743225,0.00045145526406369866,1.6385501345879785e-05
0.008734986722535967,0.00045576518048376846,1.6612306457016654e-05
0.008960142144936277,0.00046018896270063654,1.6841294992812757e-05
0.009178863945313127,0.00046472371422319887,1.7072523162043714e-05
0.009389720036814684,0.00046936586021873084,1.7306045555654196e-05
0.009591121548487777,0.0004741110706150565,1.754191478836264e-05
0.009781320437617484,0.0004789541811115828,1.7780181101294303e-05
0.009958411135823323,0.000483889114004943,1.8020891925073434e-05
0.010120336555344927,0.0004889088009277351,1.8264091403806605e-05
0.010264898627839728,0.0004940051097235312,1.8509819881469423e-05
0.01038977336321803,0.0004991687777212956,1.875811335333063e-05
0.010492530215186703,0.0005043893536158968,1.900900288616493e-05
0.010570655349046599,0.0005096551500069551,1.9262514012070642e-05
0.010621578268240431,0.0005149532084112769,1.95186661016752e-05
0.010642701202126686,0.0005202692782788687,1.9777471723347735e-05
0.01063143067865479,0.000525587811249064,2.0038935995729718e-05
0.010585210758104474,0.0005308919716082538,2.030305594144405e-05
0.010501557446969876,0.0005361636636595224,2.0569819850260993e-05
0.010378093828538248,0.0005413835764783994,2.0839206660295473e-05
0.010212585437785564,0.0005465312462949803,2.1111185365988816e-05
0.010002975370301129,0.000551585136497002,2.138571446168681e-05
0.009747418547465699,0.0005565227349764437,2.1662741429555172e-05
0.009444314483477366,0.0005613206682341795,2.194220228035783e-05
0.009092337855144992,0.0005659548313188351,2.2224021155246082e-05
0.008690466194588702,0.0005704005323312685,2.2508109996158607e-05
0.008238004105336604,0.0005746326499062497,2.2794368291717987e-05
0.007734603517668393,0.000578625801812001,2.3082682904647548e-05
0.007180279627190879,0.0005823545225982158,2.33729279857501e-05
0.006575422284374342,0.0005857934480761071,2.3664964978418684e-05
0.005920802693943334,0.0005889175043206864,2.3958642716517882e-05
0.005217575320055317,0.0005917020988241861,2.42537976173041e-05
0.004467274896510095,0.0005941233113783274,2.455025396985473e-05
0.0036718084650696134,0.0005961580822187223,2.484782431825399e-05
0.002833442443375489,0.0005977843949458336,2.514630993754513e-05
0.0019547848404100473,0.00059898145176678,2.5445501399223286e-05
0.001038762856820811,0.0005997298386910877,2.5745179221837754e-05
8.859622158150612e-05,0.0006000116784606884,2.6045114601125697e-05
-0.0008922332655676397,0.0005998107691996918,2.634507021304079e-05
-0.001900015411676748,0.0005991127070303807,2.6644801082098308e-05
-0.0029308479014147197,0.0005979049912021078,2.694405550665643e-05
-0.003980674549677918,0.0005961771105893347,2.724257603210429e-05
-0.005045324979958182,0.0005939206107069257,2.7540100462428355e-05
-0.006120555217122102,0.0005911291406576557,2.78363629002695e-05
-0.0072020886772082675,0.0005877984796840731,2.813109480535493e-05
-0.008285656983534125,0.0005839265432688875,2.842402606109317e-05
-0.009367039984260094,0.0005795133690269389,2.871488603916713e-05
-0.010442104344709283,0.0005745610829446966,2.9003404652160036e-05
-0.011506840158836362,0.0005690738468188102,2.9289313384600913e-05
-0.012557395145693805,0.0005630577879926777,2.9572346293303787e-05
-0.013590106124560767,0.000556520912675114,2.9852240968470734e-05
-0.01460152756757763,0.0005494730042520793,3.0128739447702532e-05
-0.015588457109246246,0.0005419255080828734,3.040158907578627e-05
-0.016547957952356345,0.0005338914043174727,3.067054330388636e-05
-0.017477378142468157,0.0005253850702937666,3.093536242253917e-05
-0.018374366683444866,0.0005164221340872884,3.1195814223634434e-05
-0.019236886453192843,0.0005070193208031289,3.145167458735704e-05
-0.020063223878735884,0.0004971942932201467,3.170272799086286e-05
-0.020851995351684232,0.00048696548841254165,3.194876793627103e-05
-0.02160215040403873,0.0004763519519736109,3.218959729636757e-05
-0.022312971716683144,0.00046537317144343046,3.242502857722183e-05
-0.02298407208322773,0.00045404891049345274,3.265488409770605e-05
-0.023615388468542383,0.0004423990453555102,3.287899608666829e-05
-0.024207173269967786,0.00043044340492088266,3.309720669923739e-05
-0.024759982832950878,0.000418201615895153,3.33093679544414e-05
-0.025274663227218417,0.00040569295438011067,3.3515341597010213e-05
-0.02575233326843136,0.00039293620525619825,3.371499888691929e-05
-0.026194364765170914,0.0003799495307477977,3.390822032092029e-05
-0.0266023599845972,0.00036675034956035565,3.4094895290997326e-05
-0.026978126390239127,0.00035335522796664656,3.427492168537908e-05
-0.02732364882175258,0.00033977978416364863,3.444820543841165e-05
-0.027641059412131543,0.0003260386071051776,3.4614660036228856e-05
-0.027932605617842776,0.000312145190847684,3.477420598571707e-05
-0.02820061677458427,0.00029811188524957725,3.492677025474139e-05
