frame_number,force
0,701.281250004302
1,701.1419840101441
2,701.0031827000214
3,700.8653069941964
4,700.7288103848033
5,700.5941354591124
6,700.4617106804495
7,700.3319474763048
8,700.2052376632715
9,700.0819512208618
10,699.9624344121922
11,699.8470082398177
12,699.735967219331
13,699.6295784501797
14,699.5280809611469
15,699.4316853072118
16,699.3405733954098
17,699.2548985184984
18,699.1747855742024
19,699.1003314438527
20,699.0316054998341
21,698.9686502101574
22,698.9114818129539
23,698.8600910437519
24,698.8144439114989
25,698.7744825303191
26,698.7401260177188
27,698.7112714650503
28,698.6877949767379
29,698.6695527678557
30,698.6563823100096
31,698.648103522956
32,698.6445200190694
33,698.6454204135728
34,698.650579713142
35,698.6597607915832
36,698.6727159569455
37,698.6891886100194
38,698.7089149886311
39,698.7316259859637
40,698.7570490261644
41,698.784909977344
42,698.8149350797433
43,698.8468528652612
44,698.880396045249
45,698.9153033471241
46,698.9513212850231
47,698.9882058523161
48,699.0257241223193
49,699.0636557385906
50,699.1017942711603
51,699.1399484137384
52,699.1779430002862
53,699.2156198249527
54,699.2528382547536
55,699.2894756296004
56,699.3254274501469
57,699.3606073592182
58,699.3949469252819
59,699.4283952362281
60,699.4609183101583
61,699.492498329045
62,699.5231327027608
63,699.5528329753668
64,699.581623591059
65,699.6095405419944
66,699.6366299242999
67,699.6629464326885
68,699.688551827181
69,699.7135134045807
70,699.7379025016161
71,699.7617930491493
72,699.7852601915639
73,699.8083789833138
74,699.8312231738713
75,699.8538640915336
76,699.8763696354953
77,699.8988033837212
78,699.9212238205453
79,699.94368368301
80,699.9662294206289
81,699.9889007604742
82,700.0117303679048
83,700.0347435927007
84,700.0579582906731
85,700.0813847109955
86,700.1050254397054
87,700.1288753919499
88,700.1529218502022
89,700.1771445509851
90,700.201515826552
91,700.2260008097501
92,700.2505577102573
93,700.2751381693067
94,700.2996876974444
95,700.3241461939197
96,700.3484485365177
97,700.3725252208792
98,700.3963030241891
99,700.4197056712788
100,700.4426544882442
101,700.4650690351227
102,700.4868677127826
103,700.5079683399962
104,700.5282886963462
105,700.5477470274832
106,700.5662625116146
107,700.5837556877146
108,700.6001488463035
109,700.6153663859312
110,700.6293351449855
111,700.6419847261576
112,700.6532478345051
113,700.6630606476812
114,700.6713632310368
115,700.6781000037523
116,700.6832202559932
117,700.6866787114934
118,700.688436125162
119,700.6884599016164
120,700.6867247177771
121,700.6832131297774
122,700.6779161409665
123,700.6708337048996
124,700.6619751370662
125,700.6513594130424
126,700.6390153382913
127,700.6249815838742
128,700.609306590732
129,700.5920483516788
130,700.5732740839029
131,700.5530598052762
132,700.5314898260426
133,700.5086561651683
134,700.4846578991451
135,700.4596004507592
136,700.4335948258382
137,700.4067568064487
138,700.3792061087568
139,700.3510655125506
140,700.3224599677229
141,700.2935156813435
142,700.2643591875293
143,700.2351164017499
144,700.2059116624065
145,700.1768667651261
146,700.1480999976499
147,700.1197251852259
148,700.0918507593639
149,700.0645788666168
150,700.038004536306
151,700.012214924649
152,699.9872886478662
153,699.963295211016
154,699.9402945356333
155,699.9183365895959
156,699.897461127087
157,699.8776975532858
158,699.8590649340867
159,699.8415721719444
160,699.8252183636372
161,699.8099933463726
162,699.7958784272894
163,699.7828472785517
164,699.770866967286
165,699.7598990801517
166,699.7499008994154
167,699.7408265907034
168,699.7326283691441
169,699.7252576177638
170,699.7186659389839
171,699.7128061257771
172,699.7076330410098
173,699.7031043911956
174,699.6991813785447
175,699.6958292178897
176,699.6930175125791
177,699.6907204912189
178,699.6889171122261
179,699.6875910462007
180,699.6867305486797
181,699.6863282380217
182,699.6863807942077
183,699.6868885941938
184,699.687855298786
185,699.6892874048973
186,699.6911937753333
187,699.6935851564727
188,699.6964736923812
189,699.6998724410234
190,699.7037948946437
191,699.7082545046263
192,699.7132642126521
193,699.7188359932128
194,699.7249804155331
195,699.7317062350712
196,699.7390200260153
197,699.746925866278
198,699.7554250848076
199,699.7645160773159
200,699.7741941923671
201,699.784451687909
202,699.7952777587914
203,699.806658635263
204,699.8185777492837
205,699.8310159622582
206,699.8439518465826
207,699.8573620124714
208,699.871221468313
209,699.8855039971706
210,699.9001825262371
211,699.9152294626626
212,699.9306169694925
213,699.9463171590679
214,699.9623021871867
215,699.9785442385938
216,699.9950154017566
217,700.0116874372737
218,700.0285314486306
219,700.0455174646908
220,700.0626139395845
221,700.0797871699242
222,700.0970006255735
223,700.1142141908111
224,700.1313833174999
225,700.1484580995832
226,700.1653822879208
227,700.1820922758327
228,700.1985160978111
229,700.2145724933829
230,700.2301700912974
231,700.2452067658643
232,700.2595692107272
233,700.2731327685942
234,700.2857615486241
235,700.2973088547503
236,700.3076179372292
237,700.316523066523
238,700.3238509143047
239,700.3294222127429
240,700.333053653308
241,700.3345599824877
242,700.3337562533131
243,700.3304601953395
244,700.3244946687857
245,700.3156901697843
246,700.3038873530526
247,700.2889395355996
248,700.270715140261
249,700.2491000323967
250,700.2239996998994
251,700.1953412280313
252,700.1630750263337
253,700.1271762730855
254,700.0876460519239
255,700.0445121640597
256,699.9978296060274
257,699.9476807055489
258,699.8941749083249
259,699.8374482102668
260,699.7776622352776
261,699.7150029669922
262,699.6496791514
263,699.5819203954162
264,699.5119749948773
265,699.4401075329093
266,699.3665962933649
267,699.2917305329344
268,699.215807651583
269,699.139130297778
270,699.062003445404
271,698.9847314830637
272,698.9076153603258
273,698.8309498356106
274,698.7550208653337
275,698.6801031652719
276,698.606457965992
277,698.5343309766919
278,698.4639505660537
279,698.3955261644212
280,698.329246889289
281,698.2652803960633
282,698.2037719570079
283,698.1448437712912
284,698.0885945074821
285,698.0350990770759
286,697.9844086338888
287,697.9365507905742
288,697.8915300423233
289,697.8493283900505
290,697.809906159371
291,697.7732030149391
292,697.7391391712152
293,697.7076168011038
294,697.6785216429324
295,697.6517248019632
296,697.627084734323
297,697.6044493922834
298,697.583658504111
299,697.5645459590597
300,697.5469422660688
301,697.5306770529336
302,697.5155815715468
303,697.5014911727869
304,697.4882477101442
305,697.4757018258836
306,697.4637150719625
307,697.4521618231398
308,697.4409309502986
309,697.4299272334335
310,697.4190725029786
311,697.4083065054929
312,697.3975874958638
313,697.386892561454
314,697.3762176822066
315,697.3655775264062
316,697.3550049785644
317,697.344550395647
318,697.3342805900579
319,697.3242775423241
320,697.3146368534043
321,697.305465954972
322,697.2968821050995
323,697.2890102061924
324,697.281980490258
325,697.2759261213213
326,697.2709807654822
327,697.2672761765342
328,697.2649398401242
329,697.2640927137417
330,697.2648470952713
331,697.2673046493358
332,697.2715546166595
333,697.2776722272263
334,697.285717334843
335,697.2957332892953
336,697.3077460607265
337,697.3217636279021
338,697.3377756388401
339,697.3557533503317
340,697.3756498515326
341,697.3974005750897
342,697.4209240975734
343,697.4461232288344
344,697.4728863849033
345,697.5010892303628
346,697.530596566178
347,697.5612644299297
348,697.592942366988
349,697.6254758230252
350,697.6587086016425
351,697.6924853272682
352,697.7266538535994
353,697.7610675623747
354,697.7955875066116
355,697.8300843652213
356,697.8644401885781
357,697.8985499237248
358,697.9323227129726
359,697.9656829630283
360,697.9985711849549
361,698.0309446068663
362,698.0627775595872
363,698.0940616319375
364,698.1248055905763
365,698.1550350618553
366,698.1847919779044
367,698.2141337921762
368,698.2431324704088
369,698.2718732648256
370,698.3004532841912
371,698.3289798781515
372,698.3575688585076
373,698.3863425817739
374,698.415427917612
375,698.4449541294996
376,698.475050699406
377,698.5058451353603
378,698.5374608052235
379,698.5700148403503
380,698.6036161521091
381,698.6383636049305
382,698.6743443898007
383,698.7116326380449
384,698.750288306008
385,698.7903563493356
386,698.8318661934037
387,698.8748314949023
388,698.9192501792496
389,698.9651047307102
390,699.0123627077467
391,699.0609774538955
392,699.1108889714714
393,699.1620249202383
394,699.2143016977043
395,699.2676255554684
396,699.3218937088626
397,699.3769954034935
398,699.4328129093487
399,699.4892224193002
400,699.5460948353068
401,699.6032964354183
402,699.6606894291851
403,699.7181324253901
404,699.7754808486235
405,699.8325873461163
406,699.8893022236098
407,699.9454739424884
408,700.0009497033358
409,700.0555761342472
410,700.109200094626
411,700.1616695964645
412,700.2128348362885
413,700.262549323523
414,700.3106710858063
415,700.357063928415
416,700.4015987234357
417,700.4441547054709
418,700.4846207539042
419,700.5228966440195
420,700.5588942484187
421,700.5925386675151
422,700.6237692660612
423,700.6525405930745
424,700.6788231644463
425,700.7026040890025
426,700.7238875186987
427,700.7426949032058
428,700.7590650308473
429,700.7730538432659
430,700.7847340202959
431,700.7941943425641
432,700.8015388492611
433,700.8068858150103
434,700.810366573105
435,700.8121242140327
436,700.8123121884862
437,700.8110928425084
438,700.8086359085487
439,700.8051169692745
440,700.8007159015496
441,700.7956153005867
442,700.7899988849737
443,700.7840498925888
444,700.7779494887974
445,700.7718752150788
446,700.7659995073253
447,700.7604883106438
448,700.7554998127307
449,700.7511833108244
450,700.7476782184741
451,700.7451132093761
452,700.7436054884317
453,700.7432601772616
454,700.7441698036235
455,700.7464138897377
456,700.7500586403058
457,700.7551567357913
458,700.7617472405404
459,700.7698556372843
460,700.7794939972298
461,700.7906612881437
462,700.8033438135731
463,700.8175157675155
464,700.8331398833226
465,700.8501681547217
466,700.8685426096392
467,700.8881961223527
468,700.9090532548356
469,700.9310311216731
470,700.9540402725629
471,700.9779855830133
472,701.0027671404443
473,701.0282811117075
474,701.0544205788482
475,701.0810763312999
476,701.1081376042386
477,701.13549275623
478,701.163029886187
479,701.190637399045
480,701.2182045384418
481,701.245621910424
482,701.272782023363
483,701.2995798647684
484,701.3259135250402
485,701.3516848629433
486,701.3768001913851
487,701.4011709492673
488,701.4247143193819
489,701.447353755203
490,701.4690193892541
491,701.4896483080634
492,701.5091846896876
493,701.5275798078471
494,701.544791912297
495,701.5607859995013
496,701.5755334917344
497,701.5890118455518
498,701.6012041110924
499,701.6120984620883
500,701.6216877137037
501,701.6299688424875
502,701.6369425208434
503,701.6426126775641
504,701.6469860947149
505,701.6500720482193
506,701.6518819951582
507,701.6524293063669
508,701.6517290396764
509,701.6497977481605
510,701.6466533191317
511,701.6423148416497
512,701.6368025007692
513,701.6301374956004
514,701.622341977269
515,701.6134390027703
516,701.6034525000272
517,701.5924072368878
518,701.5803287834857
519,701.567243455927
520,701.5531782309183
521,701.5381606252522
522,701.5222185397132
523,701.5053800717661
524,701.4876733032266
525,701.4691260680866
526,701.4497657037475
527,701.4296187876853
528,701.4087108614513
529,701.3870661448411
530,701.3647072447664
531,701.3416548655578
532,701.3179275296802
533,701.2935413193844
534,701.2685096497836
535,701.2428430817324
536,701.2165491792407
537,701.1896324123718
538,701.1620941041454
539,701.1339324191573
540,701.1051423914122
541,701.0757159890325
542,701.0456422159789
543,701.0149072564112
544,700.9834946721595
545,700.9513856634189
546,700.918559397591
547,700.8849934057409
548,700.8506640439505
549,700.8155470174762
550,700.7796179662741
551,700.7428531089421
552,700.7052299385322
553,700.6667279595322
554,700.6273294515868
555,700.5870202425582
556,700.5457904722765
557,700.5036353293266
558,700.4605557448307
559,700.4165590270264
560,700.3716594188015
561,700.3258785605892
562,700.2792458456261
563,700.2317986621557
564,700.183582524504
565,700.1346510998694
566,700.0850661392944
567,700.0348973200046
568,699.9842220041334
569,699.9331249179314
570,699.8816977561089
571,699.8300387162968
572,699.7782519670899
573,699.7264470506096
574,699.6747382204412
575,699.623243720246
576,699.5720850145751
577,699.5213859863661
578,699.4712721135114
579,699.4218696324406
580,699.3733046937842
581,699.3257025155833
582,699.2791865415617
583,699.2338776129873
584,699.1898931620385
585,699.1473464338529
586,699.1063457443
587,699.0669937800247
588,699.0293869459161
589,698.9936147640607
590,698.9597593285156
591,698.9278948208736
592,698.8980870907852
593,698.8703933032087
594,698.8448616514877
595,698.8215311334479
596,698.8004313865011
597,698.7815825761828
598,698.7649953298303
599,698.7506707047809
600,698.738600181897
601,698.7287656811671
602,698.7211396031213
603,698.7156849044432
604,698.7123552188169
605,698.7110950369854
606,698.711839963646
607,698.7145170712332
608,698.7190453702887
609,698.725336413383
610,698.7332950450148
611,698.7428203032081
612,698.7538064693933
613,698.7661442521172
614,698.7797220787651
615,698.7944274603902
616,698.8101483902607
617,698.8267747369246
618,698.8441995960227
619,698.8623205709148
620,698.8810409596781
621,698.9002708326656
622,698.919927987445
623,698.9399387662104
624,698.9602387176009
625,698.9807730835437
626,699.0014970934907
627,699.0223760530936
628,699.043385221775
629,699.0645094836358
630,699.0857428278707
631,699.1070876660915
632,699.1285540206342
633,699.1501586163113
634,699.1719238990455
635,699.1938769947132
636,699.2160486167894
637,699.2384719333236
638,699.26118140895
639,699.284211641874
640,699.3075962174361
641,699.3313666000186
642,699.3555510851617
643,699.3801738341343
644,699.4052540132337
645,699.4308050588951
646,699.4568340865933
647,699.4833414565393
648,699.5103205035354
649,699.5377574340554
650,699.5656313917588
651,699.5939146923391
652,699.6225732273793
653,699.6515670322917
654,699.6808510058622
655,699.7103757625174
656,699.740088596568
657,699.7699345381733
658,699.7998574792151
659,699.8298013439543
660,699.8597112781756
661,699.8895348320938
662,699.9192231135146
663,699.9487318877235
664,699.978022602048
665,700.0070633178227
666,700.0358295389713
667,700.0643049320754
668,700.0924819365794
669,700.1203622657965
670,700.1479573002306
671,700.1752883751096
672,700.2023869637318
673,700.2292947558966
674,700.2560636259213
675,700.2827554794619
676,700.3094419655606
677,700.3362040415099
678,700.3631313821148
679,700.3903216297634
680,700.4178794868263
681,700.445915658013
682,700.4745456570256
683,700.5038884974359
684,700.5340652913327
685,700.5651977818786
686,700.5974068379833
687,700.6308109401899
688,700.6655246866004
689,700.7016573470875
690,700.7393114936797
691,700.7785817353896
692,700.8195535870515
693,700.8623025016728
694,700.9068930909563
695,700.9533785486117
696,701.0018002786389
697,701.0521877186915
698,701.1045583388924
699,701.1589177904006
700,701.215260175205
701,701.2735684079428
702,701.3338146424609
703,701.39596074162
704,701.4599587777553
705,701.5257515601052
706,701.5932731908938
707,701.6624496531434
708,701.7331994337804
709,701.8054341877346
710,701.8790594509898
711,701.9539754097218
712,702.0300777277774
713,702.1072584271608
714,702.1854068078376
715,702.264410386478
716,702.3441558311534
717,702.4245298701658
718,702.505420154746
719,702.5867160551131
720,702.6683093689903
721,702.7500949241194
722,702.8319710624561
723,702.913840001803
724,702.9956080773636
725,703.0771858683165
726,703.1584882129462
727,703.2394341131321
728,703.3199465287327
729,703.3999520657276
730,703.4793805671279
731,703.5581646203295
732,703.6362389978727
733,703.713540050186
734,703.7900050679156
735,703.8655716272475
736,703.9401769260513
737,704.013757115541
738,704.0862466335101
739,704.157577549288
740,704.2276789341541
741,704.296476272481
742,704.3638909288275
743,704.42983968577
744,704.494234367255
745,704.5569815622896
746,704.6179824623274
747,704.6771328213742
748,704.7343230407547
749,704.7894383723449
750,704.8423592274523
751,704.8929615749323
752,704.9411174110788
753,704.9866952845128
754,705.0295608623745
755,705.0695775304457
756,705.1066070283911
757,705.1405101295913
758,705.1711473797781
759,705.1983799069596
760,705.2220703064501
761,705.2420835924471
762,705.2582881969565
763,705.2705569914157
764,705.2787683055341
765,705.2828069194342
766,705.2825650085274
767,705.2779430262783
768,705.2688505174241
769,705.2552068613585
770,705.236941951344
771,705.213996820604
772,705.1863242305074
773,705.1538892356929
774,705.1166697336427
775,705.0746569944686
776,705.0278561570298
777,704.9762866744015
778,704.9199826938087
779,704.8589933593848
780,704.7933830286296
781,704.7232313955451
782,704.6486335156025
783,704.5696997306222
784,704.486555495758
785,704.3993411140932
786,704.3082113839931
787,704.2133351604542
788,704.1148948279433
789,704.0130856820117
790,703.9081152201202
791,703.8002023456338
792,703.689576490706
793,703.576476664346
794,703.4611504325325
795,703.3438528375736
796,703.2248452631134
797,703.1043942492081
798,702.9827702600945
799,702.8602464073007
800,702.7370971330024
801,702.6135968614835
802,702.4900186281328
803,702.3666326946535
804,702.2437051576583
805,702.1214965586581
806,702.0002605076128
807,701.8802423366277
808,701.7616778009899
809,701.6447918408326
810,701.5297974111331
811,701.4168943834738
812,701.3062685209482
813,701.1980905273409
814,701.0925151731435
815,700.9896805041747
816,700.889707142528
817,700.7926976927566
818,700.6987362685778
819,700.6078881574979
820,700.5201996417444
821,700.435697992409
822,700.3543916500574
823,700.2762706007131
824,700.201306952021
825,700.1294557109549
826,700.0606557613721
827,699.994831035994
828,699.9318918724371
829,699.8717365374068
830,699.8142528984627
831,699.759320220043
832,699.7068110594277
833,699.6565932375718
834,699.6085318595003
835,699.5624913612925
836,699.5183375653814
837,699.4759397282944
838,699.4351725605959
839,699.3959181885648
840,699.3580680163473
841,699.3215244409857
842,699.2862023728262
843,699.2520305193846
844,699.2189523994683
845,699.1869270649053
846,699.1559295195723
847,699.1259508384838
848,699.0969980005631
849,699.0690934545462
850,699.0422744380774
851,699.0165920680648
852,698.9921102186231
853,698.9689042022596
854,698.9470592703307
855,698.92666895092
856,698.9078332462884
857,698.890656716165
858,698.8752464756203
859,698.8617101372515
860,698.8501537279484
861,698.8406796106921
862,698.8333844410167
863,698.8283571861059
864,698.8256772331262
865,698.8254126124496
866,698.8276183593679
867,698.8323350341285
868,698.8395874163706
869,698.849383387931
870,698.8617130168784
871,698.8765478542148
872,698.8938404528486
873,698.9135241166761
874,698.9355128852645
875,698.959701755284
876,698.9859671336847
877,699.0141675120274
878,699.0441443478978
879,699.0757231368931
880,699.1087146559639
881,699.1429163568076
882,699.178113887368
883,699.2140827183356
884,699.2505898479891
885,699.2873955548077
886,699.3242551661925
887,699.360920813126
888,699.3971431422912
889,699.4326729585424
890,699.4672627733087
891,699.5006682398691
892,699.5326494639345
893,699.5629721856036
894,699.5914088349913
895,699.6177394688032
896,699.6417526000595
897,699.6632459387911
898,699.6820270674569
899,699.6979140792997
900,699.710736208606
901,699.7203344780538
902,699.7265623817959
903,699.7292866165966
904,699.7283878687325
905,699.7237616605961
906,699.7153192556685
907,699.7029886117011
908,699.6867153597356
909,699.6664637746815
910,699.6422176964203
911,699.6139813607425
912,699.5817801043737
913,699.545660913181
914,699.5056927839622
915,699.4619668684694
916,699.4145963674979
917,699.3637161467688
