frame_number,force
0,714.081420007353
1,714.0802483127449
2,714.0791716134261
3,714.0782846316669
4,714.077681546921
5,714.0774557306362
6,714.0776994844125
7,714.0785037780034
8,714.0799579824001
9,714.0821495931507
10,714.0851639400669
11,714.0890838810092
12,714.0939894786981
13,714.0999576602188
14,714.1070618595239
15,714.1153716439599
16,714.1249523264775
17,714.1358645658073
18,714.1481639577969
19,714.1619006221088
20,714.1771187890562
21,714.193856391479
22,714.2121446669029
23,714.2320077763248
24,714.253462447426
25,714.2765176509384
26,714.3011743189608
27,714.3274251135484
28,714.3552542531617
29,714.3846374033626
30,714.4155416362113
31,714.4479254602583
32,714.4817389204645
33,714.5169237653497
34,714.5534136773431
35,714.5911345616502
36,714.6300048890397
37,714.6699360888094
38,714.7108329891904
39,714.7525943027499
40,714.795113153895
41,714.8382776449873
42,714.8819714573754
43,714.9260744838584
44,714.9704634896191
45,715.0150127993076
46,715.0595950084081
47,715.1040817168991
48,715.1483442825511
49,715.1922545904289
50,715.2356858347309
51,715.2785133089784
52,715.3206152002971
53,715.3618733827753
54,715.4021742037827
55,715.4414092560577
56,715.4794761275973
57,715.5162791212163
58,715.5517299362044
59,715.5857483053328
60,715.6182625807913
61,715.6492102623652
62,715.6785384608439
63,715.7062042898125
64,715.7321751796417
65,715.7564291085098
66,715.7789547464215
67,715.7997515092659
68,715.8188295209773
69,715.8362094830374
70,715.8519224521677
71,715.8660095290633
72,715.8785214629852
73,715.8895181784687
74,715.8990682312585
75,715.9072482011559
76,715.91414203001
77,715.9198403138072
78,715.9244395587026
79,715.9280414115242
80,715.9307518752578
81,715.9326805193235
82,715.9339396934373
83,715.9346437527527
84,715.9349083008678
85,715.9348494563181
86,715.934583147718
87,715.9342244430057
88,715.9338869188632
89,715.933682076474
90,715.9337188090086
91,715.9341029249932
92,715.9349367303148
93,715.9363186695758
94,715.9383430244859
95,715.9410996635826
96,715.9446738350429
97,715.949145993455
98,715.9545916520001
99,715.9610812529673
100,715.9686800515492
101,715.9774480102402
102,715.9874397033717
103,715.9987042328961
104,716.0112851574443
105,716.0252204370584
106,716.0405423958005
107,716.0572777036841
108,716.0754473786146
109,716.0950668089414
110,716.1161457976442
111,716.1386886290336
112,716.1626941576849
113,716.1881559180049
114,716.2150622523944
115,716.2433964564384
116,716.273136940116
117,716.3042574038736
118,716.3367270274755
119,716.3705106685667
120,716.4055690675989
121,716.4418590563994
122,716.4793337688394
123,716.5179428531868
124,716.5576326864841
125,716.5983465919876
126,716.6400250618783
127,716.6826059891107
128,716.7260249138212
129,716.7702152905091
130,716.8151087817035
131,716.8606355820249
132,716.9067247741367
133,716.9533047159117
134,717.0003034565617
135,717.0476491784117
136,717.095270660248
137,717.1430977574261
138,717.1910618928348
139,717.2390965514289
140,717.2871377698256
141,717.3351246118458
142,717.3829996208373
143,717.4307092398349
144,717.4782041908851
145,717.5254398053186
146,717.5723762977777
147,717.6189789785129
148,717.6652184005222
149,717.7110704402484
150,717.756516312809
151,717.8015425252598
152,717.8461407740194
153,717.8903077949122
154,717.934045175874
155,717.9773591428084
156,718.0202603281843
157,718.0627635300784
158,718.1048874674309
159,718.1466545360182
160,718.1880905689145
161,718.2292246043406
162,718.2700886623338
163,718.3107175296275
164,718.3511485496588
165,718.3914214123757
166,718.4315779377929
167,718.4716618486964
168,718.5117185302902
169,718.5517947759798
170,718.5919385183213
171,718.6321985434017
172,718.672624186649
173,718.7132650086182
174,718.7541704503218
175,718.7953894686833
176,718.8369701533358
177,718.8789593259804
178,718.9214021227343
179,718.9643415587797
180,719.0078180740713
181,719.0518690592947
182,719.0965283623302
183,719.141825776612
184,719.1877865139143
185,719.2344306653841
186,719.2817726559396
187,719.3298206981844
188,719.3785762528746
189,719.4280335040958
190,719.4781788587175
191,719.5289904807282
192,719.5804378710724
193,719.6324815026733
194,719.6850725192454
195,719.7381525058628
196,719.7916533387695
197,719.8454971207557
198,719.8995962062789
199,719.9538533181051
200,720.0081617555751
201,720.0624056939623
202,720.1164605742389
203,720.1701935822373
204,720.2234642153455
205,720.2761249336615
206,720.3280218914708
207,720.3789957444656
208,720.4288825280917
209,720.4775146019799
210,720.5247216539423
211,720.5703317546986
212,720.6141724521366
213,720.6560718921814
214,720.6958599525987
215,720.73336937621
216,720.7684368906154
217,720.8009043020634
218,720.8306195517114
219,720.8574377239837
220,720.8812219995232
221,720.901844548332
222,720.9191873604839
223,720.9331430118542
224,720.9436153616888
225,720.9505201785499
226,720.9537856914257
227,720.9533530633593
228,720.9491767857414
229,720.9412249924055
230,720.929479693578
231,720.9139369301416
232,720.8946068484573
233,720.8715136953604
234,720.8446957321793
235,720.814205066121
236,720.7801073976267
237,720.7424816834103
238,720.7014197164696
239,720.6570256261716
240,720.609415303625
241,720.5587157600123
242,720.50506442785
243,720.4486084165069
244,720.3895037334656
245,720.3279144822822
246,720.2640120476615
247,720.1979742777205
248,720.1299846728514
249,720.0602315890319
250,719.98890746104
251,719.9162080485913
252,719.8423317066014
253,719.7674786794844
254,719.691850418333
255,719.6156489190925
256,719.5390760798456
257,719.4623330760083
258,719.3856197531239
259,719.309134037711
260,719.2330713670481
261,719.1576241386706
262,719.0829811797221
263,719.009327235563
264,718.9368424767922
265,718.8657020244231
266,718.7960754941411
267,718.7281265614312
268,718.6620125490166
269,718.5978840367264
270,718.5358844928132
271,718.4761499258668
272,718.4188085577007
273,718.3639805191181
274,718.3117775716104
275,718.262302858531
276,718.215650689076
277,718.171906357566
278,718.131145999285
279,718.0934364828282
280,718.0588353377049
281,718.027390714591
282,717.9991413740149
283,717.9741166980878
284,717.9523367200361
285,717.9338121676624
286,717.9185445185955
287,717.9065260667405
288,717.8977400008839
289,717.8921604983942
290,717.8897528392391
291,717.8904735470928
292,717.8942705641189
293,717.901083464158
294,717.9108437065183
295,717.9234749302752
296,717.9388932873175
297,717.957007811583
298,717.9777208222683
299,718.0009283599842
300,718.0265206559176
301,718.0543826343627
302,718.0843944486784
303,718.1164320501807
304,718.1503677883879
305,718.1860710389635
306,718.2234088530955
307,718.2622466200395
308,718.3024487337542
309,718.3438792545811
310,718.3864025571877
311,718.4298839563127
312,718.4741903021543
313,718.5191905374774
314,718.5647562088471
315,718.6107619251874
316,718.6570857583598
317,718.7036095825565
318,718.7502193514517
319,718.7968053136726
320,718.8432621679973
321,718.8894891600577
322,718.9353901226727
323,718.9808734626238
324,719.0258520977259
325,719.0702433491568
326,719.1139687949525
327,719.156954091131
328,719.1991287667521
329,719.2404259983398
330,719.2807823683552
331,719.3201376127545
332,719.358434363968
333,719.3956178970333
334,719.4316358877696
335,719.4664381928278
336,719.4999766616675
337,719.5322049891461
338,719.5630786144931
339,719.5925546690612
340,719.6205919722843
341,719.6471510728394
342,719.6721943300023
343,719.6956860288429
344,719.7175925225912
345,719.7378823961023
346,719.7565266451159
347,719.773498866027
348,719.788775449965
349,719.8023357737114
350,719.8141623791872
351,719.8242411331937
352,719.832561359778
353,719.8391159391067
354,719.8439013691385
355,719.8469177891568
356,719.8481689664621
357,719.8476622486321
358,719.8454084837851
359,719.8414219106796
360,719.8357200198159
361,719.8283233864049
362,719.8192554761763
363,719.8085424253115
364,719.7962127960453
365,719.7822973095689
366,719.766828557818
367,719.7498406955061
368,719.731369113389
369,719.7114500934749
370,719.6901204470034
371,719.6674171365371
372,719.6433768842422
373,719.6180357690358
374,719.5914288156004
375,719.5635895785492
376,719.5345497256563
377,719.5043386249703
378,719.4729829413683
379,719.440506248719
380,719.4069286649061
381,719.3722665185396
382,719.336532057465
383,719.2997332094147
384,719.2618734040688
385,719.2229514634765
386,719.1829615647493
387,719.1418932759576
388,719.0997316640015
389,719.0564574722487
390,719.0120473658276
391,718.966474242876
392,718.9197076099007
393,718.8717140184577
394,718.8224575591769
395,718.7719004084628
396,718.7200034232707
397,718.6667267798306
398,718.6120306522946
399,718.5558759263847
400,718.4982249412473
401,718.4390422504689
402,718.378295391238
403,718.3159556492172
404,718.2519988058265
405,718.1864058546756
406,718.1191636754749
407,718.0502656568403
408,717.9797122630089
409,717.9075115425427
410,717.8336795790132
411,717.7582408837933
412,717.681228729277
413,717.6026854180783
414,717.5226624817262
415,717.4412208021481
416,717.3584306509888
417,717.2743716450228
418,717.1891326194262
419,717.1028114230993
420,717.015514641064
421,716.927357248804
422,716.8384622030537
423,716.7489599733292
424,716.6589880185618
425,716.5686902134723
426,716.4782162295188
427,716.3877208750858
428,716.2973633991277
429,716.2073067621728
430,716.1177168789851
431,716.0287618382259
432,715.9406111053461
433,715.8534347149467
434,715.7674024583058
435,715.6826830715264
436,715.5994434302536
437,715.517847757832
438,715.4380568545032
439,715.3602273552615
440,715.2845110231834
441,715.211054083568
442,715.1399966024177
443,715.0714719112208
444,715.005606079008
445,714.9425174321044
446,714.8823161216103
447,714.8251037384902
448,714.770972976355
449,714.7200073423745
450,714.672280916886
451,714.6278581621406
452,714.5867937806476
453,714.5491326241072
454,714.5149096547117
455,714.4841499609303
456,714.4568688291215
457,714.4330718703499
458,714.4127551991909
459,714.3959056590305
460,714.3825010871302
461,714.372510612479
462,714.365894979689
463,714.3626068926383
464,714.3625913723052
465,714.3657861241393
466,714.3721219111602
467,714.3815229298266
468,714.3939071865983
469,714.4091868736822
470,714.4272687424757
471,714.4480544732659
472,714.4714410403463
473,714.4973210726763
474,714.5255832109511
475,714.5561124622571
476,714.5887905534496
477,714.6234962842923
478,714.6601058814347
479,714.6984933544327
480,714.7385308550259
481,714.7800890407628
482,714.8230374441516
483,714.8672448489176
484,714.9125796751522
485,714.958910374545
486,715.0061058354515
487,715.0540357958163
488,715.1025712608521
489,715.1515849225995
490,715.2009515799589
491,715.2505485595816
492,715.3002561392552
493,715.3499579758375
494,715.3995415392504
495,715.4488985523589
496,715.4979254338397
497,715.5465237380437
498,715.5946005832237
499,715.6420690580597
500,715.6888485963963
501,715.7348653113963
502,715.7800522825939
503,715.8243497920148
504,715.8677055079288
505,715.9100746164403
506,715.9514199020305
507,715.9917117788169
508,716.0309282752555
509,716.0690549761855
510,716.1060849268595
511,716.1420185034658
512,716.176863253649
513,716.2106337090901
514,716.2433511712821
515,716.2750434719723
516,716.3057447108738
517,716.3354949739105
518,716.3643400346343
519,716.3923310398258
520,716.4195241785308
521,716.4459803326583
522,716.4717647070242
523,716.49694643741
524,716.5215981766497
525,716.5457956605009
526,716.5696172567337
527,716.5931435024236
528,716.6164566355615
529,716.6396401274204
530,716.6627782219175
531,716.685955488355
532,716.7092563945332
533,716.7327649074559
534,716.7565641277771
535,716.7807359615947
536,716.8053608297383
537,716.8305174112247
538,716.8562824146784
539,716.8827303692719
540,716.9099334252084
541,716.937961153388
542,716.966880334898
543,716.9967547329447
544,717.0276448422755
545,717.0596076136568
546,717.0926961533204
547,717.1269593992577
548,717.1624417778207
549,717.1991828455343
550,717.2372169226276
551,717.2765727264687
552,717.3172730141467
553,717.3593342434704
554,717.4027662611156
555,717.4475720262942
556,717.4937473783765
557,717.5412808570699
558,717.5901535834294
559,717.6403392086708
560,717.6918039354088
561,717.7445066130435
562,717.7983989062345
563,717.8534255330794
564,717.9095245678678
565,717.9666278022316
566,718.0246611581919
567,718.0835451467432
568,718.1431953659747
569,718.2035230333164
570,718.264435547155
571,718.3258370732406
572,718.3876291503894
573,718.4497113080627
574,718.5119816864831
575,718.574337649368
576,718.6366763804917
577,718.6988954573765
578,718.7608933974748
579,718.8225701738305
580,718.8838276984051
581,718.9445702719876
582,719.0047049995713
583,719.0641421691195
584,719.1227955902735
585,719.1805828886409
586,719.2374257513006
587,719.2932501199348
588,719.3479863290918
589,719.4015691884118
590,719.4539380093063
591,719.5050365783708
592,719.5548130809336
593,719.603219978184
594,719.6502138408008
595,719.6957551417332
596,719.7398080111042
597,719.7823399569606
598,719.8233215563953
599,719.86272612195
600,719.9005293478782
601,719.9367089399503
602,719.9712442318956
603,720.0041157920537
604,720.0353050251686
605,720.064793775676
606,720.0925639399917
607,720.1185970963768
608,720.142874161734
609,720.1653750846892
610,720.1860785835432
611,720.2049619366894
612,720.2220008320724
613,720.2371692806612
614,720.2504395964095
615,720.2617824424195
616,720.2711669410628
617,720.2785608451264
618,720.28393076756
619,720.287242468526
620,720.2884611992478
621,720.2875521018427
622,720.2844806632274
623,720.2792132203259
624,720.271717513621
625,720.2619632859974
626,720.2499229232204
627,720.2355721311309
628,720.2188906427883
629,720.1998629466358
630,720.1784790249309
631,720.1547350905896
632,720.1286343099971
633,720.1001874989925
634,720.0694137794412
635,720.0363411849596
636,720.0010072060786
637,719.963459266715
638,719.9237551250063
639,719.8819631925057
640,719.8381627662818
641,719.7924441685399
642,719.7449087883683
643,719.6956690208552
644,719.6448481002909
645,719.5925798259624
646,719.5390081805474
647,719.4842868423057
648,719.4285785935352
649,719.3720546293384
650,719.3148937723706
651,719.2572816005859
652,719.1994094961103
653,719.1414736245754
654,719.0836738554686
655,719.0262126347985
656,718.9692938212092
657,718.9131214958113
658,718.857898755031
659,718.8038264951917
660,718.7511021974506
661,718.6999187220448
662,718.6504631212887
663,718.6029154808964
664,718.5574477986924
665,718.5142229087322
666,718.4733934578237
667,718.4351009410226
668,718.3994748032106
669,718.3666316151341
670,718.3366743334839
671,718.3096916546888
672,718.2857574707384
673,718.264930433243
674,718.2472536299776
675,718.2327543764302
676,718.2214441230581
677,718.2133184772931
678,718.2083573385557
679,718.2065251449241
680,718.2077712309568
681,718.2120302963463
682,718.2192229839031
683,718.2292565631606
684,718.2420257135025
685,718.257413398918
686,718.2752918254666
687,718.2955234720464
688,718.3179621847046
689,718.3424543243423
690,718.368839957221
691,718.3969540772683
692,718.4266278489821
693,718.4576898599242
694,718.4899673721012
695,718.5232875612229
696,718.5574787315726
697,718.5923714926132
698,718.6277998826049
699,718.6636024248817
700,718.6996231035629
701,718.7357122468471
702,718.7717273077286
703,718.8075335342827
704,718.8430045242668
705,718.8780226609193
706,718.9124794282307
707,718.9462756050029
708,718.9793213383106
709,719.0115360988639
710,719.0428485232832
711,719.0731961510384
712,719.1025250662763
713,719.130789456585
714,719.1579511017989
715,719.1839788062944
716,719.2088477881313
717,719.2325390380701
718,719.2550386609569
719,719.2763372111738
720,719.2964290329586
721,719.3153116155204
722,719.3329849719333
723,719.3494510497429
724,719.3647131801855
725,719.3787755719632
726,719.3916428545411
727,719.4033196750971
728,719.4138103527429
729,719.4231185934111
730,719.431247268487
731,719.4381982593947
732,719.4439723686249
733,719.4485692955284
734,719.4519876735486
735,719.4542251647384
736,719.4552786067771
737,719.455144206846
738,719.4538177758002
739,719.4512949951536
740,719.4475717082324
741,719.4426442258264
742,719.4365096366624
743,719.4291661142813
744,719.420613213471
745,719.4108521502759
746,719.3998860594033
747,719.3877202219724
748,719.3743622559172
749,719.3598222619851
750,719.3441129203958
751,719.3272495360444
752,719.3092500325457
753,719.2901348968544
754,719.2699270770167
755,719.2486518367776
756,719.2263365727038
757,719.2030106013023
758,719.178704924137
759,719.153451978105
760,719.127285376621
761,719.1002396461945
762,719.0723499618786
763,719.0436518839884
764,719.0141810971621
765,718.9839731518598
766,718.9530632083478
767,718.9214857837779
768,718.889274503621
769,718.8564618592947
770,718.8230789742574
771,718.7891553809658
772,718.7547188110996
773,718.7197950017753
774,718.684407521282
775,718.6485776190493
776,718.6123241056687
777,718.57566326916
778,718.5386088328028
779,718.5011719578044
780,718.4633612916753
781,718.4251830613239
782,718.3866412089242
783,718.3477375681495
784,718.3084720780995
785,718.2688430321556
786,718.2288473588899
787,718.1884809316343
788,718.147738902354
789,718.1066160543612
790,718.0651071673774
791,718.023207387529
792,717.9809125941255
793,717.9382197548009
794,717.8951272612065
795,717.8516352390294
796,717.80774582834
797,717.7634634324404
798,717.7187949347822
799,717.6737498839672
800,717.6283406470044
801,717.5825825317241
802,717.5364938806131
803,717.4900961394927
804,717.4434139046168
805,717.3964749510155
806,717.3493102439239
807,717.3019539344808
808,717.2544433408341
809,717.2068189161912
810,717.1591242056943
811,717.1114057937522
812,717.0637132425265
813,717.0160990210102
814,716.968618423017
815,716.9213294717628
816,716.8742928087613
817,716.8275715654405
818,716.781231216673
819,716.7353394157705
820,716.6899658104588
821,716.6451818394397
822,716.601060509764
823,716.5576761564889
824,716.5151041876998
825,716.4734208192561
826,716.4327028039463
827,716.3930271591388
828,716.35447089603
829,716.3171107525416
830,716.281022930704
831,716.2462828378505
832,716.2129648293762
833,716.1811419496997
834,716.1508856676478
835,716.1222656026384
836,716.0953492383832
837,716.07020162121
838,716.0468850408098
839,716.0254586924615
840,716.0059783212545
841,715.9884958499819
842,715.9730589931204
843,715.9597108596779
844,715.9484895477109
845,715.9394277334749
846,715.9325522593251
847,715.9278837267535
848,715.9254361033429
849,715.9252163535701
850,715.9272241026547
851,715.9314513405875
852,715.9378821715421
853,715.9464926131125
854,715.9572504500446
855,715.9701151475649
856,715.9850378295794
857,716.0019613266301
858,716.0208202973112
859,716.0415414250404
860,716.0640436899828
861,716.0882387134156
862,716.1140311687373
863,716.1413192504237
864,716.1699951907349
865,716.1999458142349
866,716.2310531215969
867,716.2631948959854
868,716.2962453270995
869,716.3300756493348
870,716.3645547910958
871,716.3995500318828
872,716.4349276626236
873,716.4705536434184
874,716.506294251981
875,716.5420167158283
876,716.5775898217305
877,716.612884497144
878,716.6477743601534
879,716.6821362363862
880,716.7158506431116
881,716.748802242404
882,716.7808802667535
883,716.8119789213603
884,716.8419977672722
885,716.870842088458
886,716.8984232439838
887,716.9246590041246
888,716.9494738671648
889,716.9727993522332
890,716.994574262946
891,717.0147449171042
892,717.0332653389111
893,717.0500974112553
894,717.065210985786
895,717.0785839477755
896,717.0902022317485
897,717.1000597834714
898,717.1081584646856
899,717.114507898939
900,717.1191252594529
901,717.1220350023779
902,717.1232685502453
903,717.1228639307691
904,717.1208653762938
905,717.1173228903248
906,717.1122917899096
907,717.1058322348583
908,717.098008755336
909,717.0888897877168
910,717.0785472255432
911,717.0670559892321
912,717.054493615721
913,717.0409398676954
914,717.0264763608955
915,717.0111862068895
916,716.995153667948
917,716.9784638207649
