acceleration,velocity,displacement
-0.05496621051070337,0.0,0.0
-0.051855449563605244,-2.6705415018577155e-05,-6.676353754644289e-09
-0.048752822258447695,-5.185748297409039e-05,-2.6317078252811173e-08
-0.04566640874458671,-7.5462290724849e-05,-5.814702167754602e-08
-0.04260418295287161,-9.752993864921358e-05,-1.0139507902106167e-07
-0.03957396134147686,-0.0001180744747228007,-1.5529618236406523e-07
-0.036583353716204685,-0.00013711380348722108,-2.1909325191657067e-07
-0.033639716619975155,-0.00015466957107126603,-2.9203909555619244e-07
-0.030750109696022772,-0.00017076702765026551,-3.7339824523657533e-07
-0.02792125536391682,-0.0001854348689152504,-4.6244871937795433e-07
-0.025159502098552333,-0.00019870505828086768,-5.584837011769838e-07
-0.02247079155579147,-0.00021061263169445363,-6.608131236708141e-07
-0.019860629734590594,-0.00022119548701704915,-7.687651533486899e-07
-0.017334062302187543,-0.0002304941600262437,-8.816875651095131e-07
-0.014895654141697717,-0.00023855158913721502,-9.989490024003778e-07
-0.01254947311996186,-0.0002454128709526299,-1.119940117422839e-06
-0.010299078026274888,-0.0002511250087391891,-1.244074587345794e-06
-0.008147510604292068,-0.00025573665589683083,-1.370790003504799e-06
-0.006097291587552489,-0.00025929785644479195,-1.4995486315902046e-06
-0.004150420643562666,-0.00026185978450257074,-1.6298380418270454e-06
-0.0023083801173804782,-0.00026347448469280654,-1.7611716091258896e-06
-0.000572142434066241,-0.00026419461533066824,-1.8930888841317584e-06
0.0010578190268151469,-0.000264073196182481,-2.0251558370100457e-06
0.0025815158212260927,-0.0002631633624704707,-2.1569649766732835e-06
0.003999427375733382,-0.0002615181266712308,-2.288135348958709e-06
0.005312481282187336,-0.00025919014950675064,-2.418312418003204e-06
0.006522031286566841,-0.0002562315213645621,-2.5471678357210324e-06
0.007629833308059171,-0.0002526935552159056,-2.674399104866149e-06
0.008638019811583764,-0.00024862659193599485,-2.7997291416541244e-06
0.009549072842015578,-0.00024407981877259502,-2.9229057443312717e-06
0.010365796016969166,-0.00023910110155784883,-3.043700974413883e-06
0.011091285759692478,-0.00023373683111368342,-3.161910457581766e-06
0.011728902026965238,-0.00022803178416701898,-3.2773526114019416e-06
0.01228223875358096,-0.00022202899897188244,-3.389867807186667e-06
0.01275509420811837,-0.0002157696657314576,-3.499317473362502e-06
0.013151441441841024,-0.00020929303181896775,-3.6055831477501085e-06
0.013475399008148094,-0.00020263632170647048,-3.708565486131468e-06
0.013731202122214636,-0.0001958346714238798,-3.8081832344140553e-06
0.013923174415384765,-0.00018892107728947995,-3.9043721715923956e-06
0.014055700424412986,-0.00018192635857953052,-3.997084030559648e-06
0.014133198951702316,-0.0001748791337355017,-4.086285403638406e-06
0.014160097438068956,-0.00016780580963805886,-4.1719566394817965e-06
0.01414080749166432,-0.00016073058340562555,-4.254090737742718e-06
0.014079701703014055,-0.00015367545610695595,-4.332692247620863e-06
0.013981091846769914,-0.00014666025771950997,-4.407776176077479e-06
0.013849208536666735,-0.00013970268262365081,-4.47936691116327e-06
0.013688182372517307,-0.0001328183348963548,-4.547497165543271e-06
0.013502026602358304,-0.0001260207826526359,-4.6122069449305185e-06
0.013294621319636445,-0.00011932162067213723,-4.673542545761712e-06
0.013069699219685456,-0.00011273054053730675,-4.731555586064073e-06
0.0128308329404092,-0.00010625540749728309,-4.786302073072721e-06
0.01258142399952898,-9.990234326229854e-05,-4.8378415107626165e-06
0.012324693317616391,-9.36758139330122e-05,-4.886236050061444e-06
0.012063673294421817,-8.757872228000265e-05,-4.931549684114697e-06
0.011801201394402265,-8.161250360779662e-05,-4.973847490586647e-06
0.011539915195455901,-7.577722446033208e-05,-5.013194922603679e-06
0.011282248858654318,-7.007168344680452e-05,-5.049657149580464e-06
0.011030430983979468,-6.449351348614608e-05,-5.083298448813701e-06
0.010786483825932834,-5.9039284783668003e-05,-5.114181648381154e-06
0.010552223849287024,-5.370460786486304e-05,-5.142367621543287e-06
0.010329263605824231,-4.848423600108522e-05,-5.167914832509775e-06
0.010119014906831036,-4.3372166372921405e-05,-5.1908789331032765e-06
0.009922693255423784,-3.83617393323577e-05,-5.211312409529596e-06
0.009741323490125386,-3.344573514597041e-05,-5.229264278149178e-06
0.009575746576046868,-2.8616467629427343e-05,-5.244779828843028e-06
0.009426627459804451,-2.3865874120464514e-05,-5.2579004142805e-06
0.009294463880816787,-1.9185601285309205e-05,-5.268663283131944e-06
0.009179596012665063,-1.4567086311938741e-05,-5.277101455031256e-06
0.009082216799120914,-1.0001633108992247e-05,-5.283243634886489e-06
0.00900238284800159,-5.48048319721162e-06,-5.28711416396304e-06
0.00894002574552108,-9.948810488309532e-07,-5.2887330050245505e-06
0.008894963651777246,3.463866300493628e-06,-5.288115758711635e-06
0.008866913036680203,7.90433547260799e-06,-5.2852737082683595e-06
0.00885550041395171,1.2334938835265969e-05,-5.280213889691391e-06
0.008860273923355906,1.6763882419592873e-05,-5.2729391843776765e-06
0.008880714596581815,2.11991295495773e-05,-5.263448431385384e-06
0.008916247128215399,2.5648369980776605e-05,-5.2517365565027955e-06
0.008966249970413356,3.0118994255433794e-05,-5.237794715443743e-06
0.009030064582268878,3.461807289360435e-05,-5.2216104486564835e-06
0.009107003691555295,3.9152339962060395e-05,-5.203167845442568e-06
0.009196358465793895,4.3728180501397695e-05,-5.182447715326703e-06
0.00929740453683999,4.8351621252056165e-05,-5.15942776488834e-06
0.009409406870030673,5.302832410377383e-05,-5.134082778549383e-06
0.00953162350643569,5.776358169789042e-05,-5.106384802098967e-06
0.009663308232341962,6.256231463258484e-05,-5.076303328016348e-06
0.009803712246430512,6.742906975227796e-05,-5.0438054819201325e-06
0.009952084907756086,7.236801904082462e-05,-5.008856209721857e-06
0.010107673663723452,7.738295868369451e-05,-4.971418465290727e-06
0.01026972328176221,8.247730792006593e-05,-4.931453398639787e-06
0.010437474539757952,8.765410737544596e-05,-4.888920544815909e-06
0.010610162559855207,9.291601665034925e-05,-4.84377801380946e-06
0.010787014988142538,9.826531103734868e-05,-4.795982681887536e-06
0.010967250222563524,0.0001037038773400252,-4.7454903847931926e-06
0.011150075871019228,0.00010923320886342088,-4.692256113242331e-06
0.011334687583501197,0.00011485439972705099,-4.636234211094713e-06
0.011520268353841078,0.00012056813871138656,-4.577378576485103e-06
0.01170598833803848,0.00012637470288435647,-4.515642866086168e-06
0.011891005195432127,0.00013227395126772412,-4.450980702548148e-06
0.01207446492970624,0.00013826531879900872,-4.383345885031465e-06
0.012255503190408438,0.0001443478108290374,-4.312692602624453e-06
0.012433246994615808,0.00015051999837529346,-4.238975650323371e-06
0.012606816840519295,0.00015678001433407725,-4.1621506471460284e-06
0.012775329196925953,0.00016312555084343857,-4.082174255851649e-06
0.01293789935063736,0.00016955385798032938,-3.999004403645707e-06
0.013093644581136033,0.00017606174396327272,-3.912600503159807e-06
0.013241687629742144,0.00018264557701599228,-3.82292367291499e-06
0.01338116044888656,0.00018930128903564945,-3.7299369564020796e-06
0.013511208240616092,0.00019602438120802513,-3.633605538841161e-06
0.013630993799789893,0.00020280993171812662,-3.5338969606096233e-06
0.013739702162972166,0.00020965260570881712,-3.4307813262528873e-06
0.013836545542193874,0.00021654666763510863,-3.324231507916906e-06
0.013920768508284284,0.00022348599614772815,-3.2142233419711965e-06
0.013991653387419107,0.000230464101621654,-3.100735817528851e-06
0.014048525840566962,0.00023747414642865053,-2.9837512555162746e-06
0.014090760594235445,0.0002445089680373511,-2.8632554768997743e-06
0.01411778727539024,0.0002515611050047575,-2.739237958639247e-06
0.014129096283180353,0.00025862282589440014,-2.6116919759144577e-06
0.014124244614625378,0.00026568616111885155,-2.4806147291611446e-06
0.01410286154540954,0.0002727429376588603,-2.3460074544667166e-06
0.014064654044103848,0.00027978481655623863,-2.2078755159129417e-06
0.014009411777266842,0.0002868033330115813,-2.0662284785209867e-06
0.01393701155677602,0.000293789938845092,-1.9210801605568184e-06
0.013847421090917538,0.0003007360470070154,-1.7724486640937916e-06
0.013740701921520297,0.0003076330777601248,-1.6203563829020066e-06
0.013617011456726717,0.0003144725061046866,-1.4648299869358038e-06
0.013476604036831139,0.000321245909978076,-1.3059003829151132e-06
0.013319830992000193,0.00032794501873528384,-1.1436026507367732e-06
0.01314713966520841,0.000334561761399586,-9.779759557030557e-07
0.012959071390200793,0.0003410883141634383,-8.090634368122997e-07
0.012756258439644274,0.00034751714662089954,-6.369120716162153e-07
0.01253941998917991,0.0003538410662281056,-4.61572518403964e-07
0.01230935717149512,0.00036005326051827437,-2.83098936717369e-07
0.012066947316726511,0.00036614733664032975,-1.0154878742771794e-07
0.011813137488827213,0.00037211735784171816,8.301738619279405e-08
0.0115489374274349,0.0003779578765707837,2.705361947959195e-07
0.011275411991770179,0.00038366396392558493,4.6094165492001163e-07
0.010993673186734134,0.000389231235220211,6.541654547064606e-07
0.010704871841924667,0.0003946558714773757,8.501372313808573e-07
0.010410189012451004,0.00039993463669096965,1.0487848584229436e-06
0.010110827171273441,0.00040506489073690075,1.2500347402799113e-06
0.009808001264016113,0.00041004459784572316,1.4538121124255672e-06
0.009502929700143917,0.00041487233058676315,1.6600413445336888e-06
0.009196825360944044,0.00041954726935203513,1.8686462445183884e-06
0.008890886712247515,0.00042406919737033303,2.0795503611989805e-06
0.008586289112048494,0.00042843849132640703,2.2926772833731654e-06
0.008284176395772988,0.0004326561077033624,2.5079509331306076e-06
0.007985652809643064,0.00043672356500471643,2.7252958513076274e-06
0.00769177535354645,0.0004406429220455138,2.944637473070185e-06
0.007403546592421483,0.0004444167525320058,3.165902391714565e-06
0.007121907997895134,0.00044804811617958493,3.3890186088924625e-06
0.00684773388935596,0.0004515405266513977,3.613915769600208e-06
0.006581826053391915,0.00045489791663708465,3.840525380422329e-06
0.006324909125675915,0.0004581246004318516,4.068781009689563e-06
0.006077626817614275,0.0004612252344176742,4.2986184684019445e-06
0.005840539067598995,0.0004642047758889775,4.529975970978607e-06
0.005614120197871311,0.00046706844070534506,4.762794275127188e-06
0.00539875815613111,0.0004698216602938457,4.997016800376985e-06
0.00519475490381103,0.0004724700385588312,5.232589725090154e-06
0.0050023279777744074,0.0004750193092792276,5.469462062049669e-06
0.00482161321034226,0.00047747529457625677,5.70758571301354e-06
0.004652668556529039,0.0004798438650179746,5.946915502912098e-06
0.004495478950441125,0.00048213090189471716,6.187409194640271e-06
0.004349962092915519,0.00048434226215555634,6.429027485652839e-06
0.0042159750572636915,0.00048648374644310113,6.671733987802503e-06
0.0040933215862509024,0.0004885610706039798,6.915495192064273e-06
0.003981759935370685,0.0004905798409843852,7.160280419961365e-06
0.0038810110927272774,0.0004925455337414097,7.406061763642814e-06
0.0037907671811842733,0.0004944634783098876,7.652814016655638e-06
0.003710699836532551,0.0004963388450643167,7.900514597499189e-06
0.0036404683632622853,0.0004981766371142654,8.149143468043834e-06
0.0035797274921787682,0.0004999816860781257,8.398683048841932e-06
0.003528134588730918,0.0005017586515983531,8.649118133261052e-06
0.003485356177930639,0.0005035120242900185,8.900435802233145e-06
0.0034510736629944,0.0005052461317502497,9.152625341243213e-06
0.003424988131193819,0.0005069651471987967,9.405678160980474e-06
0.0034068241666848718,0.0005086731002732664,9.659587722848489e-06
0.003396332620064859,0.0005103738894699539,9.914349470284293e-06
0.003393292309779843,0.000512071295702415,1.0169960766577385e-05
0.003397510650537501,0.0005137689964424943,1.0426420839613613e-05
0.003408823221791643,0.0005154705799105767,1.0683730733701881e-05
0.003427092307898969,0.0005171795587929993,1.0941893268377775e-05
0.0034522044623923396,0.0005188993829855722,1.1200913003822418e-05
0.003484067172647025,0.000520633450894332,1.1460796212292394e-05
0.003522604726108188,0.0005223851188690208,1.1721550854733232e-05
0.003567753402132784,0.0005241577084010811,1.1983186561550758e-05
0.0036194561326836493,0.0005259545107847852,1.2245714616347224e-05
0.003677656789842498,0.0005277787890154167,1.2509147941297274e-05
0.0037422942664528933,0.0005296337767794905,1.2773501082746001e-05
0.0038132965150324085,0.0005315226744748618,1.303879019555959e-05
0.003890574699645975,0.0005334486422785314,1.3305033024747937e-05
0.003974017599178426,0.0005354147903532375,1.3572248882905878e-05
0.004063486378204102,0.0005374241663475832,1.3840458622081084e-05
0.0041588098136533325,0.0005394797403955475,1.4109684598766866e-05
0.00425978003855345,0.0005415843878585992,1.4379950630830403e-05
0.004366148846038629,0.0005437408700797472,1.465128194531499e-05
0.004477624588324529,0.000545951813438338,1.492370511619451e-05
0.004593869701445962,0.0005482196870107806,1.519724799130679e-05
0.0047144988782748315,0.0005505467791557108,1.5471939607848414e-05
0.004839077892881153,0.0005529351733484998,1.5747810095974467e-05
0.004967123056523667,0.000555386723585851,1.6024890570208054e-05
0.005098101276734083,0.0005579030296691655,1.6303213008521808e-05
0.005231430701321038,0.0005604854126636793,1.658281011910502e-05
0.005366481945477085,0.0005631348908253788,1.6863715194977284e-05
0.005502579911349189,0.0005658521562895854,1.7145961956756025e-05
0.005639006216743304,0.0005686375528216085,1.7429584384033825e-05
0.005775002253888218,0.0005714910549392664,1.7714616535974045e-05
0.00590977289265435,0.000574412248725902,1.800109236189034e-05
0.006042490822085607,0.000577400314654587,1.828904550273546e-05
0.006172301498819392,0.0005804540127348133,1.8578509084582812e-05
0.006298328653352012,0.0005835716702728562,1.886951550533473e-05
0.006419680299410381,0.0005867511725110467,1.9162096216030705e-05
0.006535455191931814,0.0005899899563838823,1.9456281498254436e-05
0.006644749672857877,0.0005932850076000798,1.9752100239250426e-05
0.00674666482423295,0.0005966328612243525,2.0049579706456535e-05
0.006840313824340251,0.0006000296058864958,2.0348745323234248e-05
0.0069248293916989705,0.0006034708916905056,2.0649620447628497e-05
0.006999371208585422,0.0006069519418405767,2.095222615601127e-05
0.007063133230297961,0.0006104675679502975,2.1256581033458988e-05
0.00711535079817115,0.0006140121889574149,2.1562700972685917e-05
0.007155307482554942,0.0006175798535275964,2.187059898330717e-05
0.007182341588203516,0.0006211642657952861,2.218028501313789e-05
0.007195852258921478,0.0006247588142570674,2.249176578315098e-05
0.007195305123133032,0.000628356603602581,2.2805044637615892e-05
0.00718023743200515,0.0006319504892413655,2.312012141082688e-05
0.007150262658687142,0.0006355331142640385,2.343699231170323e-05
0.007105074548315439,0.0006390969485657892,2.3755649827410688e-05
0.007044450628174842,0.0006426343298599117,2.4076082647017113e-05
0.006968255198928709,0.0006461375063166877,2.4398275606061264e-05
0.006876441824577647,0.0006495986805725643,2.4722209652783576e-05
0.006769055319748396,0.0006530100548586458,2.504786183664138e-05
0.0066462332048713305,0.0006563638769898007,2.537520531960349e-05
0.0065082065733265615,0.0006596524869343502,2.5704209410584525e-05
0.00635530029566774,0.0006628683636515988,2.6034839623231013e-05
0.0061879324776249545,0.000666004171844922,2.6367057757105143e-05
0.006006613094958213,0.0006690528082380678,2.670082200212589e-05
0.005811941753959734,0.0006720074469502973,2.7036087065922983e-05
0.005604604566893422,0.0006748615835305106,2.7372804323543185e-05
0.005385370171302366,0.0006776090772150596,2.771092198872958e-05
0.0051550849455235595,0.0006802441909942661,2.805038530578191e-05
0.00491466747776255,0.0006827616291000876,2.83911367608055e-05
0.0046651023463795864,0.0006851565715561231,2.8733116310969554e-05
0.0044074332809168745,0.0006874247054629472,2.9076261630224322e-05
0.004142755799081685,0.0006895622527329469,2.9420508369773296e-05
0.0038722094394983897,0.0006915659940425919,2.976579043146718e-05
0.003596969718798027,0.000693433288832166,3.011204025218587e-05
0.003318239930637902,0.000695162091244525,3.0459189097205045e-05
0.0030372428780967822,0.0006967509619467087,3.0807167360502855e-05
0.0027552125991928363,0.0006981990758160311,3.115590486994354e-05
0.0024733861220406004,0.0006995062254963395,3.150533119527163e-05
0.0021929952781775106,0.0007006728208463941,3.185537595685731e-05
0.0019152586003228958,0.0007016998843160191,3.220596913314792e-05
0.0016413733223738462,0.0007025890422966934,3.25570413648011e-05
0.0013725074862439312,0.0007033425124988479,3.2908524253499984e-05
0.0011097921533042643,0.0007039630874087349,3.326035065347688e-05
0.0008543137233593079,0.0007044541138779008,3.361245495379854e-05
0.0006071063780308642,0.0007048194689032483,3.396477334949383e-05
0.00036914468075579447,0.000705063531667945,3.4317244099636626e-05
0.00014133637694132924,0.0007051911519323693,3.46698077705367e-05
-7.548455472675731e-05,0.0007052076148879229,3.5022407462241774e-05
-0.00028056453908701653,0.0007051186026144695,3.537498901661737e-05
-0.0004732366506420778,0.0007049301523170372,3.572750120535025e-05
-0.0006529263640398958,0.0007046486115633668,3.607989589632035e-05
-0.0008191566764120152,0.0007042805908032538,3.643212819691201e-05
-0.0009715524518160769,0.0007038329135211968,3.678415657299312e-05
-0.001109843843938033,0.0007033125644472582,3.713594294248524e-05
-0.0012338686885358331,0.0007027266363141398,3.7487452742675586e-05
-0.001343573810709798,0.0007020822756893284,3.7838654970676456e-05
-0.0014390152403977333,0.0007013866284265515,3.818952219670543e-05
-0.0015203573582280572,0.000700646785276895,3.854003055013129e-05
-0.0015878710085841065,0.0006998697281851919,3.889015967849681e-05
-0.0016419306267869429,0.0006990622777763492,3.9239892679987196e-05
-0.0016830104319715308,0.0006982310425116596,3.95892160100592e-05
-0.0017116797353040063,0.0006973823699698407,3.9938119363179574e-05
-0.0017285974132457108,0.0006965223006827032,4.028659553084271e-05
-0.0017345056054843644,0.0006956565249280207,4.063464023724539e-05
-0.0017302227138903505,0.000694790342848177,4.098225195418944e-05
-0.0017166357942244076,0.0006939286282211483,4.132943169695677e-05
-0.0016946924427828924,0.0006930757961618964,4.1676182803052533e-05
-0.0016653922874588028,0.000692235774979336,4.2022510695837844e-05
-0.0016297782030515768,0.0006914119823567084,4.236842263517185e-05
-0.0015889273900261934,0.000690607305958439,4.2713927457250636e-05
-0.001543942479033447,0.0006898240884911741,4.305903530586304e-05
-0.001495942832079452,0.0006890641171633959,4.340375735727668e-05
-0.0014460561925423207,0.0006883286174072404,4.374810554091934e-05
-0.0013954108012354898,0.000687618250658796,4.409209225793585e-05
-0.0013451280659694822,0.0006869331159419948,4.443573009958605e-05
-0.001296315852690927,0.0006862727549623297,4.477903156731213e-05
-0.001250062443512279,0.0006856361603882788,4.512200879614978e-05
-0.0012074311736081122,0.0006850217869839988,4.546467328299285e-05
-0.0011694557265527071,0.0006844275652589586,4.580703562105359e-05
-0.001137136047415007,0.0006838509173154667,4.6149105241697194e-05
-0.0011114348215995682,0.000683288774598213,4.649089016467562e-05
-0.0010932744578551897,0.0006827375972783494,4.683239675764476e-05
-0.001083534508607654,0.0006821933950367337,4.717362950572353e-05
-0.0010830494663769672,0.0006816517490429875,4.751459079174346e-05
-0.0010926068904204833,0.0006811078349537881,4.7855280687742656e-05
-0.0011129458357415148,0.0006805564467722476,4.819569675817416e-05
-0.0011447555712704117,0.0006799920214204946,4.853583387522235e-05
-0.001188674585477511,0.0006794086638813076,4.8875684046547794e-05
-0.0012452898900209145,0.000678800172762433,4.921523625570873e-05
