frame_number,force
0,600.2072100000278
1,600.5213525710826
2,600.818527015942
3,601.0832442280768
4,601.302808711865
5,601.4683102988539
6,601.5751679955173
7,601.6231731814997
8,601.6160703978703
9,601.5607875982546
10,601.4664615559886
11,601.3434000673343
12,601.2020947009922
13,601.0523593504079
14,600.9026316788081
15,600.7594488981173
16,600.6271046115061
17,600.5075007877857
18,600.4002063873297
19,600.3027144032909
20,600.2108690118299
21,600.1194285305857
22,600.0227284023666
23,599.9153934634729
24,599.7930207520417
25,599.6527339170289
26,599.4935187163975
27,599.3162888134702
28,599.1236867230523
29,598.9196765399333
30,598.7090196409437
31,598.4967370230637
32,598.2876523356464
33,598.0860786102947
34,597.8956655331588
35,597.7193818812415
36,597.5595885409252
37,597.4181602633976
38,597.29662142096
39,597.1962602608853
40,597.1181813986844
41,597.0632611294948
42,597.0319952009389
43,597.0242701361914
44,597.0391268261596
45,597.0745967457719
46,597.1276709272986
47,597.1944228889829
48,597.2702692718967
49,597.3503309852086
50,597.4298532650098
51,597.5046388433515
52,597.5714335153584
53,597.628194883262
54,597.6741976388864
55,597.7099742811009
56,597.7371218050102
57,597.7580053544044
58,597.775384306227
59,597.7920040812448
60,597.8102264619404
61,597.8317725589625
62,597.8576095623032
63,597.8879552197642
64,597.9223475896825
65,597.9597462389758
66,597.9986689233152
67,598.0373864723582
68,598.0741796604497
69,598.1076206073216
70,598.1368115724035
71,598.1615181990734
72,598.1821690356065
73,598.1997405937327
74,598.2155885798743
75,598.2313019706768
76,598.2486315375015
77,598.2694857185776
78,598.2959320127839
79,598.3301312491982
80,598.3741705313382
81,598.4298165425389
82,598.4982504307055
83,598.5798582714236
84,598.6741390915814
85,598.7797571368037
86,598.894717054918
87,599.0166043932622
88,599.1428278824617
89,599.2708192632368
90,599.3981737421736
91,599.5227387806476
92,599.6426725880347
93,599.7564877194537
94,599.8630757214343
95,599.9616983831025
96,600.0519452344959
97,600.1336861248456
98,600.2070634387759
99,600.2725483943772
100,600.3310419936997
101,600.3839726557002
102,600.4333496110581
103,600.4817524253245
104,600.532243039013
105,600.5881809585649
106,600.6529338411318
107,600.7295139761706
108,600.8202051542277
109,600.9262416062089
110,601.0475707856825
111,601.18270965746
112,601.3287020830913
113,601.4811863903433
114,601.6345751257405
115,601.7823400232769
116,601.9173903647965
117,602.0325231151018
118,602.1209017285415
119,602.1765023221432
120,602.1944725429512
121,602.171378322871
122,602.1053424842331
123,601.9960888175272
124,601.8449021908762
125,601.6545173725494
126,601.4289620442589
127,601.173390858877
128,600.8939430207912
129,600.5976346728357
130,600.2922727273213
131,599.9863615781811
132,599.6889670223991
133,599.4094959127839
134,599.1573508365434
135,598.941439879843
136,598.7695635514013
137,598.6477462469657
138,598.579607367531
139,598.5658720730311
140,598.6041112387354
141,598.6887787888818
142,598.811580288371
143,598.9621613672268
144,599.1290545713748
145,599.3007732198934
146,599.4668990348066
147,599.6189950127651
148,599.751203023246
149,599.8604542470049
150,599.9463055511579
151,600.0104849169508
152,600.0562628702577
153,600.0877622837692
154,600.1092919405882
155,600.1247634548307
156,600.1372396206941
157,600.1486587478028
158,600.1597674263721
159,600.1702626023522
160,600.1791005476103
161,600.1848969938428
162,600.1863312190649
163,600.1824705909515
164,600.1729466702953
165,600.1579474789668
166,600.1380432820727
167,600.1139142347429
168,600.0860711838183
169,600.0546480840413
170,600.0193111270264
171,599.9792961066793
172,599.9335598174902
173,599.8810103958507
174,599.8207621092107
175,599.7523471939962
176,599.6758236519356
177,599.5917479004881
178,599.5010224508621
179,599.4046666907487
180,599.3035840514833
181,599.1983995153146
182,599.0894115640153
183,598.9766583964363
184,598.8600662807447
185,598.7396389840442
186,598.6156508757966
187,598.4888079367611
188,598.3603379909597
189,598.2319737159934
190,598.1058087656604
191,597.9840385215684
192,597.8686334253916
193,597.7610208933083
194,597.6618579783421
195,597.5709515945958
196,597.487330776097
197,597.4094268685002
198,597.335309525601
199,597.2629560400817
200,597.1905538578757
201,597.116819795946
202,597.0412849228861
203,596.964482648607
204,596.8879993774841
205,596.8143767584291
206,596.7468704161585
207,596.6890787514837
208,596.6444755564623
209,596.6159127053121
210,596.6051846502027
211,596.612746476016
212,596.6376461675643
213,596.6776772098509
214,596.7297018896528
215,596.7900627766289
216,596.8549961713145
217,596.9209772070147
218,596.9849510608979
219,597.0444325408567
220,597.0974855018558
221,597.1426209943411
222,597.1786664014838
223,597.2046445117539
224,597.219670594833
225,597.2228563396909
226,597.2132204623708
227,597.1896331027847
228,597.150834434626
229,597.0955528683473
230,597.0227144795798
231,596.9317009154609
232,596.8225956411509
233,596.6963679597304
234,596.5549706950812
235,596.4013481932683
236,596.2393564330872
237,596.0735976940396
238,595.9091826097367
239,595.7514482483015
240,595.6056644505161
241,595.4767473003412
242,595.3689822911624
243,595.2857545366571
244,595.2292949656131
245,595.2004765274809
246,595.198712444662
247,595.2219926329016
248,595.2670470910485
249,595.3295834472782
250,595.4045399218528
251,595.4863202387942
252,595.5690126426613
253,595.6466256251732
254,595.713386528877
255,595.7641352128996
256,595.7948021544922
257,595.8029038076236
258,595.7879466221475
259,595.7516312800299
260,595.6977914109799
261,595.6320598936292
262,595.5613033990547
263,595.4928952114407
264,595.4339159459621
265,595.3903877014016
266,595.366654727221
267,595.3650116812191
268,595.3856403972133
269,595.4268508422326
270,595.485550940984
271,595.5578199524358
272,595.6394500603046
273,595.7263539075702
274,595.8147965475798
275,595.9014701723697
276,595.9834677951413
277,596.0582277220802
278,596.1235212005926
279,596.177538737542
280,596.2190933551683
281,596.2479117412454
282,596.2649453193668
283,596.2726165230707
284,596.2749211321808
285,596.2773248514894
286,596.2864195623379
287,596.3093536293494
288,596.3531164142813
289,596.423802300986
290,596.525970838151
291,596.662169380077
292,596.8326390614709
293,597.0352134492754
294,597.2654245732822
295,597.5168164777117
296,597.7814256318402
297,598.050352250986
298,598.3143451967759
299,598.5643494646197
300,598.7919935557695
301,598.9900096767229
302,599.1525853595422
303,599.2756455842996
304,599.3570605971172
305,599.3967710596876
306,599.3968249710958
307,599.3613240347473
308,599.296270641629
309,599.2092983142787
310,599.1092778108424
311,599.0058179847109
312,598.9087007930488
313,598.827288787384
314,598.7699350012749
315,598.7434287197079
316,598.7525246085967
317,598.7996109437855
318,598.8845631371777
319,599.0047994518502
320,599.1555165041826
321,599.3300573606646
322,599.5203762629495
323,599.717596130901
324,599.9126643080631
325,600.0970817842139
326,600.263640326543
327,600.4070805291881
328,600.5245819804387
329,600.6160049688016
330,600.6838232668457
331,600.7327252123592
332,600.7689127238357
333,600.7991845000489
334,600.8299353782984
335,600.8662226348536
336,600.9110365836063
337,600.9648763918383
338,601.0256824981738
339,601.0891204994701
340,601.1491599932385
341,601.1988585775417
342,601.2312467741606
343,601.2402069527166
344,601.2212453151944
345,601.1720742904681
346,601.0929538820859
347,600.9867731173096
348,600.8588770806261
349,600.7166672687125
350,600.5690258861089
351,600.4256229420877
352,600.2961504775775
353,600.1895105274596
354,600.1129896011807
355,600.0714857245722
356,600.0668902728529
357,600.0977373660453
358,600.1592061335706
359,600.2435038379338
360,600.3405919372751
361,600.4391656033716
362,600.5277749968451
363,600.5959787330488
364,600.6354196022787
365,600.6406959593069
366,600.6098985211557
367,600.5447249467479
368,600.450157631481
369,600.3337530878337
370,600.2046372718
371,600.072349364454
372,599.9457208289858
373,599.8319813118712
374,599.7362258140723
375,599.6612783034226
376,599.6078929899766
377,599.5751807683683
378,599.5611363380302
379,599.5631575039201
380,599.5784818365269
381,599.6045046820624
382,599.6389687199425
383,599.6800214083844
384,599.7261382344237
385,599.7759308794219
386,599.8279007217898
387,599.8802288872438
388,599.9306851412448
389,599.9766916590257
390,600.015523098212
391,600.0445918886722
392,600.0617682282417
393,600.0657040099195
394,600.0561398314713
395,600.0341533773828
396,600.0022699775001
397,599.9643466747092
398,599.9251880093286
399,599.8899374084049
400,599.8633697904277
401,599.8492500255783
402,599.8498987632339
403,599.8660348163123
404,599.8968815973932
405,599.9404669223567
406,599.99401847152
407,600.0543605238964
408,600.118249660966
409,600.1826323297325
410,600.2448396482303
411,600.3027392823468
412,600.3548468880878
413,600.4003836972319
414,600.4392698493502
415,600.4720559922594
416,600.4997976913481
417,600.5238682198484
418,600.5457075645842
419,600.5665326552319
420,600.5870678205772
421,600.6073595325579
422,600.6267037191038
423,600.6436687958474
424,600.6561818877952
425,600.6616600572792
426,600.6571853408711
427,600.6397273404341
428,600.6064143968304
429,600.5548464849932
430,600.4834241598276
431,600.3916374121412
432,600.2802342164506
433,600.1512013802007
434,600.0075511757806
435,599.8529835027938
436,599.6915315571888
437,599.5272775010442
438,599.3641696773544
439,599.2059215119247
440,599.0559413861538
441,598.9172381034043
442,598.7922722935353
443,598.6827705702583
444,598.5895578384603
445,598.512467581727
446,598.4503610987211
447,598.4012508019032
448,598.3625049829975
449,598.3311137263088
450,598.3039997639255
451,598.2783480336642
452,598.251908034155
453,598.2232125562155
454,598.1916654665938
455,598.1574751422962
456,598.1214411779762
457,598.0846332520534
458,598.048019823817
459,598.0121014138379
460,597.9765906232815
461,597.9401794070827
462,597.9004421604968
463,597.8539204099034
464,597.7964096545954
465,597.723428043187
466,597.6308061485016
467,597.5153103469164
468,597.3752011166112
469,597.2106308603063
470,597.0238109222809
471,596.8189246260606
472,596.6018117286249
473,596.3794804025744
474,596.159517599639
475,595.9494733394365
476,595.7562826782488
477,595.5857579967501
478,595.4421545638118
479,595.3278134343767
480,595.24291766639
481,595.1854254407106
482,595.1512360907029
483,595.1346050588892
484,595.1287733104216
485,595.126732488076
486,595.1220177190797
487,595.1094122332228
488,595.0854655890574
489,595.0487665922601
490,594.9999613126333
491,594.9415500797128
492,594.8775204750584
493,594.8128713227793
494,594.7530679104045
495,594.703463875862
496,594.6687393568435
497,594.6524221872788
498,594.6565577589278
499,594.6815668154087
500,594.7262874491953
501,594.7881572799985
502,594.8634750834542
503,594.947693920221
504,595.0357247059553
505,595.1222473913464
506,595.2020284286751
507,595.2702388110039
508,595.322765073294
509,595.356500315925
510,595.3695896599619
511,595.3615937801422
512,595.3335345190159
513,595.2877963396048
514,595.2278734583113
515,595.1579795543879
516,595.082573160226
517,595.005876471443
518,594.9314593289077
519,594.861931641241
520,594.7987608003698
521,594.7422180497639
522,594.6914574681376
523,594.6447372652232
524,594.5997894120819
525,594.5543125330561
526,594.506514346923
527,594.4555952938399
528,594.4020641618966
529,594.3478107353752
530,594.2959173007113
531,594.2502453515417
532,594.2148682578313
533,594.1934392865867
534,594.1885962164562
535,594.201506050098
536,594.2316374600894
537,594.2768108526857
538,594.3335213134096
539,594.3974714215364
540,594.4642054731245
541,594.5297168015159
542,594.5909117023115
543,594.645856629783
544,594.6937989927545
545,594.735011612431
546,594.7705415922682
547,594.8019414520245
548,594.8310394841969
549,594.8597798034333
550,594.8901326904809
551,594.9240491928009
552,594.9634220593658
553,595.0100226775066
554,595.0654059391591
555,595.130798272515
556,595.2069941716672
557,595.2942834597318
558,595.3924225229965
559,595.5006470928839
560,595.617705536012
561,595.7418876253247
562,595.8710434649456
563,596.0026190863706
564,596.1337620264329
565,596.2615555242046
566,596.3834076064422
567,596.4975519462672
568,596.6035423202219
569,596.7025857717477
570,596.797584828706
571,596.8928360777767
572,596.9934293225776
573,597.1044729393227
574,597.2303093025369
575,597.3738704514908
576,597.5362743749415
577,597.7167062877353
578,597.912587255339
579,598.119999449282
580,598.3342966517099
581,598.5507834339255
582,598.7653245677473
583,598.9747692710863
584,599.1771341008069
585,599.3715559784179
586,599.5580782969245
587,599.7373540451683
588,599.9103382280548
589,600.0780099499289
590,600.2411336864469
591,600.4000558491921
592,600.5545366915023
593,600.7036292932257
594,600.8456361717763
595,600.9781991346476
596,601.0985808593074
597,601.2041441793504
598,601.2929461117676
599,601.3643013252683
600,601.4191716824628
601,601.4602886311684
602,601.4919793515868
603,601.519725814537
604,601.5495297748827
605,601.5871777973047
606,601.6374965553214
607,601.7036745827056
608,601.7867236293574
609,601.8851639617378
610,601.9950193622776
611,602.1101703357065
612,602.2230393396768
613,602.3255061083396
614,602.4099087742262
615,602.4699788812693
616,602.5015704037177
617,602.5030735430088
618,602.4754606890957
619,602.4219857522705
620,602.347622555151
621,602.2583591271695
622,602.1604608616093
623,602.0597953965348
624,601.961291917205
625,601.8685879095738
626,601.7838925541404
627,601.7080676198192
628,601.6408970288105
629,601.5814909226696
630,601.5287554582535
631,601.481856882167
632,601.4406128455055
633,601.4057515588082
634,601.3789915073354
635,601.3629150739067
636,601.3606424830612
637,601.3753565703397
638,601.4097688968064
639,601.465631179735
640,601.543378204442
641,601.6419605154583
642,601.7589033481439
643,601.8905987168384
644,602.0327841870308
645,602.1811030531339
646,602.3316148972876
647,602.4811513687157
648,602.6274741966365
649,602.7692553435614
650,602.905933856168
651,603.0375089566156
652,603.1643197792039
653,603.286847390202
654,603.4055575390626
655,603.5207920568876
656,603.6327160785391
657,603.7413245541687
658,603.8464937649895
659,603.9480401482442
660,604.0457415667094
661,604.1392985270771
662,604.2282502145331
663,604.3118819278354
664,604.3891565585814
665,604.4586919214083
666,604.5188040389706
667,604.5676369584907
668,604.6033859439934
669,604.6245889009997
670,604.630427407142
671,604.6209692628416
672,604.5973064469385
673,604.5615769106397
674,604.5168866622859
675,604.4671664117859
676,604.4169992862577
677,604.3714342225124
678,604.3357681571764
679,604.315271589053
680,604.314855090409
681,604.3387041297817
682,604.3899232782501
683,604.470229021458
684,604.5797238777354
685,604.716778570125
686,604.8780426798546
687,605.0585958522107
688,605.2522389792758
689,605.4519043051872
690,605.6501382102542
691,605.8395962261221
692,606.0135006581331
693,606.166038484472
694,606.2926946561447
695,606.3905089754771
696,606.458226654668
697,606.4963083629681
698,606.506786082261
699,606.4929854621355
700,606.459164382877
701,606.4101310928246
702,606.3509020122419
703,606.2864365254193
704,606.2214482512969
705,606.1602622909693
706,606.1066872490634
707,606.0638901797736
708,606.0342769987586
709,606.0193853651963
710,606.0198017418061
711,606.0351188313715
712,606.0639454262442
713,606.1039683341534
714,606.1520570968147
715,606.2044081133545
716,606.2567429166209
717,606.3045884381687
718,606.3436583099735
719,606.3703201624176
720,606.3820870413168
721,606.3780357684849
722,606.35905308999
723,606.3278425256784
724,606.2886702110651
725,606.2468682913772
726,606.208151706572
727,606.1778471908757
728,606.1601717584327
729,606.1577058306333
730,606.17116987893
731,606.1995426248558
732,606.2404722218936
733,606.2908532822004
734,606.3474045919229
735,606.407105780461
736,606.4674234696465
737,606.5263439419442
738,606.582293806047
739,606.6340440729542
740,606.6806541912001
741,606.721454426459
742,606.7560266078549
743,606.7841361612692
744,606.8055876950044
745,606.8200208509691
746,606.8267150278364
747,606.8244884509634
748,606.8117413912947
749,606.7866418120162
750,606.7474251364608
751,606.6927751780864
752,606.6222466121327
753,606.5366772030916
754,606.4385309814545
755,606.3321055179202
756,606.2235166193797
757,606.1203688286222
758,606.0310770043366
759,605.9639181249821
760,605.9259915301509
761,605.9222838104558
762,605.9549746357834
763,606.0230403718597
764,606.1221678968429
765,606.24499167509
766,606.3816798660761
767,606.5208763122811
768,606.6509392561932
769,606.7613317746429
770,606.8439574986821
771,606.8942219751078
772,606.9116329155897
773,606.8998263918647
774,606.866014956799
775,606.8199695213674
776,606.7727241922953
777,606.7352095047728
778,606.7169931310698
779,606.7252700312183
780,606.7642072844035
781,606.8347007729875
782,606.9345337864448
783,607.0588608903452
784,607.2009046623592
785,607.3527529723468
786,607.506157616041
787,607.6532454003594
788,607.7870688439062
789,607.9019595040073
790,607.9936966291145
791,608.0595407817358
792,608.0981844076794
793,608.1096466226196
794,608.0951176730214
795,608.0567584575164
796,607.9974742506979
797,607.9206941369144
798,607.8301933057128
799,607.7299902280628
800,607.6243256346559
801,607.5176855689709
802,607.4147898026145
803,607.3204634732182
804,607.2393566321186
805,607.1755458324136
806,607.1320985968358
807,607.1106871006062
808,607.1113214664
809,607.1322591612595
810,607.1701329901257
811,607.220310060283
812,607.2774437420793
813,607.3361247951976
814,607.3914995762599
815,607.4397211793079
816,607.478141000274
817,607.5052253901049
818,607.5202647643288
819,607.5229908261762
820,607.5132147490967
821,607.4905638029667
822,607.4543525505482
823,607.4035891796383
824,607.3370933415223
825,607.2536965797276
826,607.1525070289389
827,607.0332279296615
828,606.8965079535382
829,606.7442698896506
830,606.5799263483103
831,606.4083707647338
832,606.2356596091628
833,606.0683899559745
834,605.91289021764
835,605.7744132992877
836,605.6565095127067
837,605.5606796260037
838,605.4863199428228
839,605.4309144975448
840,605.3904105481282
841,605.359711342998
842,605.3332182917741
843,605.3053575360409
844,605.2710435830661
845,605.2260616739378
846,605.1673727368706
847,605.0933443700153
848,605.0038954327064
849,604.9005353359731
850,604.7862924892914
851,604.6655433725585
852,604.5437562308343
853,604.4271534811937
854,604.3222916218148
855,604.2355684102241
856,604.1726874839522
857,604.1381262174274
858,604.1346612907374
859,604.1630133993109
860,604.2216715606953
861,604.306934292746
862,604.4131601883722
863,604.5331775188868
864,604.6587862484392
865,604.7812963927892
866,604.8920634718841
867,604.9829917575025
868,605.0469832482175
869,605.0783198939865
870,605.0729753760842
871,605.0288549858482
872,604.9459532519102
873,604.8264007713836
874,604.6743612791976
875,604.495759036796
876,604.2978619824277
877,604.0887852171119
878,603.8769865060436
879,603.6708087808449
880,603.478105733784
881,603.3059694569055
882,603.1605578765705
883,603.0469994993313
884,602.9693408877134
885,602.9304961593823
886,602.9321588480648
887,602.974653314546
888,603.0567340509987
889,603.1753731422607
890,603.3256019428381
891,603.5004924458647
892,603.6913640547327
893,603.8882623296355
894,604.0806819396769
895,604.2584340280517
896,604.4125268806138
897,604.5359440829685
898,604.6242429382123
899,604.675931939856
900,604.6926078547632
901,604.678841665987
902,604.6418062553565
903,604.5906490527036
904,604.5356407566459
905,604.4871757598243
906,604.4547429183197
907,604.4460023287422
908,604.4660832734186
909,604.5171721236266
910,604.5984111804968
911,604.7060946309282
912,604.8341233164235
913,604.974659449793
914,605.1189067083486
915,605.2579353063954
916,605.3834739115945
917,605.4885927696597
