frame_number,force
0,723.3807370077384
1,723.3735772654396
2,723.3663353136252
3,723.3589296851356
4,723.3512803874755
5,723.3433096154298
6,723.3349424351259
7,723.3261074320076
8,723.3167373170384
9,723.3067694872304
10,723.2961465377168
11,723.2848167232422
12,723.2727343678531
13,723.259860222849
14,723.2461617740163
15,723.2316134993848
16,723.2161970786639
17,723.1999015556618
18,723.1827234553169
19,723.1646668570703
20,723.1457434260575
21,723.1259724032493
22,723.1053805554867
23,723.0840020862863
24,723.061878508092
25,723.0390584763267
26,723.015597585189
27,722.9915581245284
28,722.9670087960691
29,722.9420243857371
30,722.9166853872115
31,722.8910775708893
32,722.8652914930782
33,722.8394219424279
34,722.8135673232858
35,722.78782897768
36,722.762310449069
37,722.7371166928979
38,722.7123532419291
39,722.6881253377111
40,722.6645370422143
41,722.6416903449426
42,722.619684280905
43,722.5986140741583
44,722.578570320252
45,722.5596382188927
46,722.5418968660313
47,722.5254186128989
48,722.5102684981848
49,722.4965037581798
50,722.4841734183365
51,722.4733179686602
52,722.4639691246016
53,722.4561496741336
54,722.4498734101364
55,722.4451451454189
56,722.4419608062472
57,722.4403075991693
58,722.4401642447664
59,722.441501270442
60,722.444281352922
61,722.4484597007529
62,722.4539844680845
63,722.4607971924812
64,722.4688332502349
65,722.4780223224145
66,722.4882888643739
67,722.4995525713435
68,722.5117288333088
69,722.5247291736993
70,722.5384616684287
71,722.552831344149
72,722.5677405567594
73,722.5830893529801
74,722.598775819179
75,722.6146964226292
76,722.6307463509077
77,722.6468198550715
78,722.6628106013991
79,722.6786120349661
80,722.6941177566746
81,722.7092219139373
82,722.7238196039613
83,722.7378072874017
84,722.751083209356
85,722.7635478244376
86,722.7751042228608
87,722.7856585546814
88,722.7951204492864
89,722.8034034270171
90,722.8104252998662
91,722.8161085587045
92,722.8203807451943
93,722.8231748069073
94,722.824429433934
95,722.8240893746265
96,722.8221057274692
97,722.8184362055682
98,722.8130453697876
99,722.8059048262078
100,722.7969933835445
101,722.7862971664466
102,722.7738096810574
103,722.7595318297887
104,722.7434718729094
105,722.7256453355545
106,722.7060748605843
107,722.6847900103486
108,722.6618270230031
109,722.6372285306478
110,722.6110432470687
111,722.5833256327676
112,722.5541355445929
113,722.5235378765071
114,722.4916021969833
115,722.4584023878081
116,722.4240162890178
117,722.3885253547386
118,722.3520143240672
119,722.314570909712
120,722.2762855055475
121,722.2372509132164
122,722.1975620874039
123,722.15731589882
124,722.116610912912
125,722.0755471812416
126,722.034226041697
127,721.9927499233094
128,721.9512221512828
129,721.9097467481547
130,721.8684282280364
131,721.8273713823503
132,721.7866810565578
133,721.7464619175294
134,721.7068182107562
135,721.667853506158
136,721.6296704310448
137,721.5923703887265
138,721.5560532614304
139,721.5208170966841
140,721.4867577770398
141,721.4539686737608
142,721.4225402858559
143,721.392559866608
144,721.3641110403531
145,721.3372734125954
146,721.3121221766778
147,721.2887277204237
148,721.2671552365528
149,721.2474643408383
150,721.2297087015692
151,721.2139356833832
152,721.2001860088764
153,721.1884934423853
154,721.1788845007205
155,721.1713781947394
156,721.1659858043397
157,721.1627106889637
158,721.1615481362401
159,721.1624852521663
160,721.1655008965348
161,721.1705656670308
162,721.1776419346694
163,721.186683931966
164,721.1976378935725
165,721.210442247581
166,721.225027854986
167,721.2413182952064
168,721.259230196591
169,721.2786736115376
170,721.2995524357524
171,721.3217648707367
172,721.3452039285035
173,721.3697579778393
174,721.3953113315155
175,721.421744873288
176,721.4489367225383
177,721.4767629333876
178,721.5050982240251
179,721.5338167305061
180,721.5627927777206
181,721.5919016593238
182,721.6210204182992
183,721.6500286196963
184,721.6788091064092
185,721.7072487280375
186,721.7352390326387
187,721.7626769116783
188,721.7894651894304
189,721.8155131492815
190,721.8407369907854
191,721.8650602127166
192,721.8884139185737
193,721.910737042055
194,721.9319764912243
195,721.9520872116228
196,721.9710321704151
197,721.9887822657931
198,722.0053161681519
199,722.0206201014175
200,722.0346875735329
201,722.0475190642014
202,722.0591216760886
203,722.0695087537996
204,722.078699473875
205,722.086718408924
206,722.0935950695268
207,722.0993634283333
208,722.1040614315765
209,722.107730503863
210,722.1104150526985
211,722.1121619799578
212,722.1130202082438
213,722.1130402301922
214,722.1122736878448
215,722.1107729874554
216,722.1085909528105
217,722.1057805175824
218,722.1023944548887
219,722.0984851405419
220,722.0941043451312
221,722.0893030486416
222,722.0841312703195
223,722.0786379068333
224,722.0728705735146
225,722.066875445822
226,722.0606971002711
227,722.0543783554335
228,722.0479601142797
229,722.041481209583
230,722.0349782547482
231,722.0284855032961
232,722.0220347207891
233,722.0156550725516
234,722.0093730292049
235,722.0032122906455
236,721.997193728186
237,721.9913353439521
238,721.9856522460899
239,721.9801566378552
240,721.9748578181875
241,721.9697621909859
242,721.9648732803308
243,721.9601917494568
244,721.9557154223204
245,721.951439308141
246,721.9473556311921
247,721.9434538698881
248,721.9397208102774
249,721.9361406191459
250,721.9326949410453
251,721.9293630220468
252,721.9261218616094
253,721.9229463933143
254,721.919809695244
255,721.9166832307274
256,721.9135371195727
257,721.9103404390914
258,721.9070615537149
259,721.9036684719495
260,721.9001292294005
261,721.8964122962126
262,721.8924870065592
263,721.8883240071676
264,721.8838957214846
265,721.8791768256148
266,721.8741447310787
267,721.8687800678443
268,721.863067159829
269,721.8569944846917
270,721.8505551098286
271,721.8437470963355
272,721.8365738622894
273,721.8290444965727
274,721.8211740148987
275,721.8129835507314
276,721.8045004755021
277,721.7957584449314
278,721.786797370946
279,721.7776633207935
280,721.7684083458247
281,721.759090242064
282,721.749772243762
283,721.7405226505276
284,721.7314143889266
285,721.722524510552
286,721.7139336301304
287,721.70572530885
288,721.6979853895184
289,721.6908012912035
290,721.6842612715523
291,721.6784536649064
292,721.6734661037996
293,721.6693847310988
294,721.6662934106726
295,721.6642729459975
296,721.663400317514
297,721.6637479496657
298,721.6653830174098
299,721.668366800498
300,721.672754092788
301,721.6785926731709
302,721.6859228438203
303,721.6947770400569
304,721.7051795142987
305,721.7171460946192
306,721.7306840166393
307,721.7457918260677
308,721.7624593484154
309,721.7806677224851
310,721.8003894952135
311,721.821588776908
312,721.8442214571953
313,721.8682354826204
314,721.8935711968176
315,721.9201617437515
316,721.9479335338344
317,721.9768067717504
318,722.0066960433932
319,722.0375109572706
320,722.0691568332568
321,722.1015354293986
322,722.1345456961882
323,722.1680845473843
324,722.2020476368887
325,722.2363301320166
326,722.2708274743351
327,722.3054361200026
328,722.3400542525918
329,722.3745824627565
330,722.4089243902017
331,722.4429873236818
332,722.4766827545968
333,722.5099268802177
334,722.5426410542252
335,722.5747521845043
336,722.6061930796525
337,722.6369027457722
338,722.6668266346501
339,722.6959168446459
340,722.7241322765278
341,722.7514387470717
342,722.7778090629648
343,722.8032230569983
344,722.8276675883831
345,722.8511365093036
346,722.8736305999721
347,722.89515747395
348,722.9157314542622
349,722.9353734193381
350,722.9541106166052
351,722.9719764407977
352,722.9890101735781
353,723.0052566808563
354,723.0207660643808
355,723.0355932648133
356,723.049797614322
357,723.0634423376346
358,723.0765940018244
359,723.0893219173272
360,723.1016974957103
361,723.1137935728551
362,723.125683708845
363,723.1374414777131
364,723.1491397613189
365,723.1608500621801
366,723.1726418503467
367,723.184581959228
368,723.1967340439944
369,723.2091581133506
370,723.221910141474
371,723.2350417628166
372,723.2486000492922
373,723.2626273674676
374,723.2771613124024
375,723.2922347143063
376,723.3078757138726
377,723.3241079016586
378,723.3409505159798
379,723.3584186927297
380,723.3765237599781
381,723.3952735704307
382,723.4146728656264
383,723.4347236666065
384,723.4554256863895
385,723.476776759784
386,723.4987732859653
387,723.5214106789663
388,723.5446838207777
389,723.5685875109143
390,723.5931169051144
391,723.6182679347066
392,723.6440376974795
393,723.670424810758
394,723.6974297180606
395,723.7250549423395
396,723.7533052809225
397,723.7821879388626
398,723.8117125980442
399,723.8418914198039
400,723.8727389800312
401,723.9042721378329
402,723.9365098411887
403,723.9694728749286
404,724.0031835577156
405,724.0376653955801
406,724.072942699947
407,724.1090401780691
408,724.1459825035294
409,724.1837938741852
410,724.222497564739
411,724.2621154811401
412,724.302667724394
413,724.3441721720277
414,724.386644086048
415,724.430095756189
416,724.47453618631
417,724.5199708301309
418,724.5664013802342
419,724.6138256116261
420,724.6622372785628
421,724.7116260616161
422,724.761977561405
423,724.8132733354445
424,724.8654909743202
425,724.9186042127415
426,724.9725830704665
427,725.0273940179477
428,725.083000161579
429,725.1393614433156
430,725.1964348492143
431,725.254174621552
432,725.3125324698749
433,725.3714577775331
434,725.4308978019145
435,725.4907978685868
436,725.551101561278
437,725.6117509101582
438,725.672686579883
439,725.7338480568827
440,725.7951738333643
441,725.8566015840985
442,725.918068331624
443,725.9795105960801
444,726.0408645272624
445,726.1020660182367
446,726.1630508015072
447,726.2237545300378
448,726.2841128461092
449,726.344061440787
450,726.4035361057445
451,726.4624727781234
452,726.5208075789135
453,726.5784768462568
454,726.6354171666062
455,726.6915654080694
456,726.7468587609808
457,726.8012347904669
458,726.8546315043934
459,726.9069874380659
460,726.9582417553534
461,727.0083343652268
462,727.0572060529066
463,727.1047986251315
464,727.151055068895
465,727.1959197223995
466,727.2393384564352
467,727.2812588642805
468,727.3216304585043
469,727.3604048732515
470,727.3975360700693
471,727.4329805439403
472,727.4666975243879
473,727.4986491650284
474,727.5288007142477
475,727.557120659894
476,727.5835808417555
477,727.6081565269833
478,727.6308264456269
479,727.651572786044
480,727.6703811525688
481,727.6872404896953
482,727.702142977664
483,727.7150839038891
484,727.7260615139953
485,727.7350768464438
486,727.7421335560597
487,727.7472377333768
488,727.7503977276158
489,727.7516239810268
490,727.7509288813419
491,727.7483266373064
492,727.743833180117
493,727.7374660917369
494,727.7292445598935
495,727.719189358973
496,727.7073228556433
497,727.6936690377773
498,727.6782535653142
499,727.6611038420983
500,727.6422491082291
501,727.6217205526058
502,727.5995514448131
503,727.5757772842211
504,727.5504359626378
505,727.5235679355625
506,727.4952163960717
507,727.4654274444235
508,727.434250245822
509,727.4017371688118
510,727.3679438973783
511,727.3329295106223
512,727.2967565247409
513,727.259490892932
514,727.2212019597243
515,727.181962367199
516,727.1418479117232
517,727.1009373510285
518,727.0593121622961
519,727.0170562520098
520,726.9742556179926
521,726.9309979640093
522,726.8873722682016
523,726.8434683084171
524,726.7993761493683
525,726.7551855975117
526,726.7109856291984
527,726.6668637964451
528,726.6229056133046
529,726.5791939250636
530,726.5358082629565
531,726.4928241885256
532,726.4503126334693
533,726.4083392424518
534,726.3669637280672
535,726.326239248929
536,726.2862118231278
537,726.2469197894916
538,726.2083933282007
539,726.170654050828
540,726.1337146682389
541,726.097578742954
542,726.0622405302183
543,726.0276849091089
544,725.9938874019783
545,725.9608142779178
546,725.9284227342597
547,725.8966611496028
548,725.8654694021
549,725.8347792472425
550,725.8045147498672
551,725.7745927656558
552,725.7449234681071
553,725.7154109177571
554,725.6859536710772
555,725.6564454267474
556,725.6267757067429
557,725.5968305689819
558,725.5664933477755
559,725.5356454187331
560,725.504166986026
561,725.4719378908851
562,725.4388384398968
563,725.4047502502831
564,725.3695571080362
565,725.333145834502
566,725.2954071577869
567,725.2562365862549
568,725.2155352813397
569,725.1732109258357
570,725.1291785824059
571,725.0833615358094
572,725.0356921113421
573,724.9861124612542
574,724.9345753108639
575,724.8810446568729
576,724.8254964116022
577,724.7679189879096
578,724.7083138200696
579,724.6466958158032
580,724.5830937341956
581,724.5175504841246
582,724.4501233384926
583,724.3808840608457
584,724.3099189424464
585,724.2373287493062
586,724.1632285800058
587,724.0877476362685
588,724.0110289089662
589,723.933228782416
590,723.8545165599072
591,723.7750739139818
592,723.6950942660278
593,723.6147821003913
594,723.5343522178977
595,723.4540289327086
596,723.3740452154816
597,723.2946417850336
598,723.2160661498319
599,723.138571599626
600,723.0624161471162
601,722.9878614203035
602,722.9151715077047
603,722.8446117599677
604,722.7764475520262
605,722.7109430101245
606,722.6483597083422
607,722.5889553398728
608,722.5329823693278
609,722.4806866737382
610,722.4323061814077
611,722.3880695188101
612,722.3481946760206
613,722.3128877010214
614,722.2823414331223
615,722.2567342858558
616,722.236229089776
617,722.2209720052969
618,722.2110915149398
619,722.2066975033318
620,722.2078804324312
621,722.214710618856
622,722.2272376195623
623,722.2454897311234
624,722.2694736064858
625,722.2991739918828
626,722.3345535861753
627,722.3755530250622
628,722.4220909922502
629,722.474064458182
630,722.5313490448832
631,722.5937995139136
632,722.6612503737739
633,722.7335166031893
634,722.8103944870004
635,722.8916625611735
636,722.977082662076
637,723.0664010730022
638,723.1593497590281
639,723.2556476800572
640,723.3550021709001
641,723.4571103761659
642,723.5616607270625
643,723.6683344472665
644,723.7768070757107
645,723.8867499951409
646,723.9978319563124
647,724.1097205885309
648,724.2220838879972
649,724.3345916764752
650,724.4469170240756
651,724.5587376307359
652,724.669737160857
653,724.7796065251556
654,724.8880451038475
655,724.9947619057133
656,725.0994766579261
657,725.2019208216718
658,725.301838528824
659,725.3989874354529
660,725.4931394888487
661,725.5840816059823
662,725.6716162629126
663,725.7555619965763
664,725.8357538224483
665,725.9120435730213
666,725.9843001622885
667,726.0524097808923
668,726.1162760265379
669,726.175819975114
670,726.2309801988082
671,726.2817127374175
672,726.3279910282993
673,726.3698057997926
674,726.4071649324127
675,726.4400932909414
676,726.4686325284247
677,726.4928408606238
678,726.5127928075474
679,726.5285788979154
680,726.540305332718
681,726.5480936047927
682,726.5520800717882
683,726.5524154798961
684,726.5492644359749
685,726.5428048268075
686,726.5332271859705
687,726.520734010295
688,726.5055390287839
689,726.4878664274257
690,726.4679500338801
691,726.4460324663467
692,726.4223642508035
693,726.3972029103355
694,726.3708120296748
695,726.3434602974351
696,726.3154205279593
697,726.2869686645284
698,726.2583827660045
699,726.2299419794363
700,726.2019255012262
701,726.1746115289868
702,726.1482762055281
703,726.1231925559405
704,726.099629418579
705,726.0778503708199
706,726.0581126507519
707,726.0406660764696
708,726.0257519652503
709,726.013602055476
710,726.0044374345806
711,725.9984674765506
712,725.9958887929492
713,725.9968842024848
714,726.0016217256001
715,726.010253611673
716,726.0229154068328
717,726.0397250706377
718,726.0607821505878
719,726.0861670246144
720,726.1159402225442
721,726.1501418374424
722,726.1887910367442
723,726.2318856816278
724,726.2794020614419
725,726.3312947481041
726,726.3874965732753
727,726.4479187289659
728,726.5124509902558
729,726.5809620572824
730,726.653300012828
731,726.7292928916379
732,726.8087493576168
733,726.8914594850421
734,726.9771956396747
735,727.0657134549401
736,727.1567528972827
737,727.2500394139041
738,727.3452851555554
739,727.4421902662323
740,727.5404442299325
741,727.6397272624315
742,727.7397117341491
743,727.8400636089033
744,727.9404438825017
745,728.0405100046952
746,728.1399172683292
747,728.2383201508671
748,728.3353735957465
749,728.4307342237604
750,728.5240614671952
751,728.6150186215492
752,728.7032738115743
753,728.7885008705491
754,728.870380134057
755,728.9485991517439
756,729.022853322247
757,729.0928464576327
758,729.1582912844377
759,729.2189098888596
760,729.2744341136088
761,729.3246059133852
762,729.3691776755675
763,729.4079125130573
764,729.440584537039
765,729.4669791180615
766,729.4868931439647
767,729.5001352826115
768,729.5065262562458
769,729.5058991328916
770,729.4980996389133
771,729.4829864957957
772,729.4604317833691
773,729.4303213309672
774,729.3925551369801
775,729.3470478157333
776,729.2937290688561
777,729.23254417688
778,729.1634545059555
779,729.0864380242248
780,729.0014898221791
781,728.9086226309199
782,728.8078673315276
783,728.6992734480468
784,728.582909616291
785,728.4588640209312
786,728.3272447938779
787,728.1881803672468
788,728.0418197738285
789,727.8883328869698
790,727.7279105904428
791,727.5607648678708
792,727.3871288012518
793,727.2072564691169
794,727.0214227363538
795,726.8299229292497
796,726.6330723908133
797,726.4312059128512
798,726.2246770424736
799,726.0138572617635
800,725.7991350405259
801,725.5809147633283
802,725.3596155334682
803,725.1356698583919
804,724.9095222237529
805,724.681627566294
806,724.4524496581354
807,724.2224594161966
808,723.9921331503982
809,723.7619507634504
810,723.5323939138406
811,723.3039441520524
812,723.0770810378299
813,722.8522802437682
814,722.630011648732
815,722.4107374245913
816,722.1949101214104
817,721.982970758213
818,721.775346927588
819,721.5724509227438
820,721.374677896005
821,721.1824040583731
822,720.9959849299307
823,720.8157536500821
824,720.6420193553427
825,720.475065631336
826,720.3151490453336
827,720.1624977664068
828,720.0173102818418
829,719.8797542200476
830,719.7499652909521
831,719.6280463548806
832,719.5140666307836
833,719.4080610549065
834,719.3100298013954
835,719.2199379763674
836,719.1377154963216
837,719.0632571605544
838,718.9964229256184
839,718.9370383879942
840,718.8848954791894
841,718.8397533753918
842,718.8013396212605
843,718.7693514642264
844,718.7434573921284
845,718.7232988637163
846,718.7084922187737
847,718.698630752199
848,718.6932869341159
849,718.6920147562288
850,718.6943521838069
851,718.6998236932244
852,718.7079428765124
853,718.7182150957732
854,718.7301401705001
855,718.7432150797182
856,718.756936659343
857,718.7708042745304
858,718.784322447418
859,718.7970034218157
860,718.808369647361
861,718.8179561665872
862,718.8253128896896
863,718.8300067432657
864,718.8316236802973
865,718.8297705391168
866,718.8240767397882
867,718.8141958078412
868,718.7998067176611
869,718.7806150508784
870,718.7563539685991
871,718.7267849997088
872,718.691698649963
873,718.6509148376956
874,718.6042831617884
875,718.5516830064521
876,718.4930234859867
877,718.4282432317497
878,718.3573100236488
879,718.2802202697335
880,718.1969983397781
881,718.1076957618309
882,718.0123902937794
883,717.9111848841121
884,717.8042065369391
885,717.6916050963913
886,717.573551965125
887,717.4502387708917
888,717.3218759939019
889,717.1886915659437
890,717.0509294502465
891,716.9088482095941
892,716.7627195695243
893,716.6128269832086
894,716.4594642041488
895,716.3029338718922
896,716.1435461147706
897,715.9816171726084
898,715.8174680417582
899,715.6514231449529
900,715.4838090293081
901,715.314953097148
902,715.1451823756169
903,714.9748223318254
904,714.8041957405109
905,714.6336216111544
906,714.4634141813758
907,714.293881983013
908,714.1253269863511
909,713.9580438266629
910,713.7923191160488
911,713.6284308428152
912,713.4666478600703
913,713.3072294643584
914,713.1504250636328
915,712.9964739318767
916,712.8456050459013
917,712.6980369986132
