acceleration,velocity,displacement
-0.05288071978598271,0.0,0.0
-0.052514881741703844,-2.6348900381921638e-05,-6.5872250954804095e-09
-0.052151746784828354,-5.2515557513554685e-05,-2.630333956934949e-08
-0.05179425660166542,-7.850205836017813e-05,-5.905774353778269e-08
-0.05144530786737286,-0.0001043119494774377,-1.0476124549718664e-07
-0.05110759930942094,-0.00012995017627163614,-1.633267769344551e-07
-0.05078347514114155,-0.00015542294488427675,-2.3467005722343333e-07
-0.05047477573556831,-0.0001807375076034542,-3.187101703453661e-07
-0.050182706561722364,-0.00020590187817777687,-4.1537001679067386e-07
-0.049907736088333564,-0.00023092448884029086,-5.245766085451908e-07
-0.049649531933111876,-0.0002558138058456522,-6.462611822166766e-07
-0.0494069420653215,-0.00028057792434526055,-7.803591147644048e-07
-0.049178025225038585,-0.0003052241661678506,-9.268096373926825e-07
-0.048960132021002876,-0.00032975870547936095,-1.0855553553044854e-06
-0.04875003411449589,-0.00035418624701323564,-1.2565415934276347e-06
-0.04854409244480246,-0.00037850977865306023,-1.4397155998442086e-06
-0.04833844781840476,-0.000402730413718862,-1.6350256479371892e-06
-0.04812921172572763,-0.00042684732860489514,-1.8424200835181284e-06
-0.047912635190103414,-0.0004508577903338529,-2.0618463632528152e-06
-0.04768523949179568,-0.0004747572590043277,-2.2932501255873605e-06
-0.04744390245322863,-0.0004985395444905838,-2.5365743264610886e-06
-0.04718590376407404,-0.0005221969960449095,-2.791758461594962e-06
-0.04690893912762367,-0.0005457207067678339,-3.058737887298148e-06
-0.04661111458535894,-0.0005691007201960795,-3.3374432440391263e-06
-0.046290930593282174,-0.0005923262314907398,-3.627799981960831e-06
-0.04594726251878693,-0.000615385779768757,-3.929727984775705e-06
-0.045579341492076826,-0.0006382674307714729,-4.243141287410762e-06
-0.045186737314401405,-0.0006609589504730925,-4.567947882721904e-06
-0.04476934349888466,-0.000683447970676414,-4.90404961300928e-06
-0.04432736370200923,-0.0007057221474766376,-5.251342142547543e-06
-0.04386129890641844,-0.0007277693131287445,-5.609715007698888e-06
-0.04337193502513537,-0.0007495776216116329,-5.979051741383982e-06
-0.04286032970284792,-0.0007711356877936287,-6.359230068735298e-06
-0.04232779473332409,-0.0007924327189026718,-6.750122170409373e-06
-0.041775868400591346,-0.0008134586346861506,-7.151595008806579e-06
-0.04120627187711935,-0.0008342041697555783,-7.563510709917011e-06
-0.040620845511416606,-0.0008546609491027123,-7.985726989631584e-06
-0.04002146344123063,-0.0008748215263408741,-8.41809760849248e-06
-0.03940992797786749,-0.0008946793741956486,-8.860472833626612e-06
-0.03878784844539747,-0.0009142288183014649,-9.31269988175089e-06
-0.03815651223005632,-0.0009334649084703283,-9.774623313443838e-06
-0.03751675840060416,-0.0009523832261279934,-1.0246085347093418e-05
-0.03686886641917791,-0.0009709796323329389,-1.072692606170865e-05
-0.03621247388552417,-0.0009892499674091144,-1.1216983461644164e-05
-0.03554653686777561,-0.0010071897200974393,-1.1716093383520803e-05
-0.034869343037339386,-0.001024793690073718,-1.2224089236063592e-05
-0.034178581818896395,-0.001042055671287777,-1.2740801576403965e-05
-0.03347146908493031,-0.0010589681840137337,-1.3266057540229342e-05
-0.0327449186488922,-0.0010755222809471893,-1.3799680156469574e-05
-0.03199574961670523,-0.0010917074480135886,-1.4341487588709768e-05
-0.031220917113116253,-0.0011075116146960439,-1.4891292354387176e-05
-0.030417753202281524,-0.0011229212822748934,-1.544890057862991e-05
-0.029584204203050787,-0.0011379217716262265,-1.6014111342105193e-05
-0.028719050169849727,-0.0011524975852194516,-1.6586716181316613e-05
-0.027822093008587907,-0.001166632871014061,-1.7166498795374993e-05
-0.026894301670816814,-0.001180311969683912,-1.7753235005549486e-05
-0.025937905184119026,-0.001193520021397646,-1.8346693003319874e-05
-0.02495642651341484,-0.0012062436043220296,-1.8946633909749794e-05
-0.023954652840593206,-0.0012184713741605316,-1.9552812654370434e-05
-0.022938541020908747,-0.001230194672625907,-2.0164979166067044e-05
-0.021915060462833685,-0.0012414080729968426,-2.078287985247273e-05
-0.020891978987270753,-0.0012521098328593687,-2.1406259328936785e-05
-0.019877599791875013,-0.001262302227554155,-2.2034862344040166e-05
-0.01888045954397269,-0.001271991742388117,-2.2668435836525734e-05
-0.01790899983982682,-0.001281189107234067,-2.330673104893128e-05
-0.016971227570558862,-0.0012899091640866634,-2.3949505616761462e-05
-0.016074383469029913,-0.0012981705668465605,-2.4596525549494768e-05
-0.015224640275129521,-0.0013059953227826005,-2.5247567021902058e-05
-0.014426850494594932,-0.0013134081954750316,-2.5902417901466467e-05
-0.013684358295908085,-0.0013204359976726574,-2.656087894975339e-05
-0.012998882633926415,-0.001327106807905116,-2.7222764651147835e-05
-0.012370471971952363,-0.0013334491465565857,-2.788790363976326e-05
-0.011797526638052237,-0.0013394911462090869,-2.855613871295468e-05
-0.011276882551971736,-0.0013452597485065928,-2.92273264366336e-05
-0.010803948100462646,-0.0013507799561697014,-2.9901336362802673e-05
-0.010372883234345154,-0.0013560741640034034,-3.057804989284595e-05
-0.009976807525125964,-0.001361161586693271,-3.1257358830520116e-05
-0.00960802440680174,-0.001366057794676253,-3.1939163675862496e-05
-0.009258253009827813,-0.0013707743640304104,-3.2623371715539164e-05
-0.008918864350744207,-0.0013753186433705534,-3.3309894967389405e-05
-0.008581121287630862,-0.0013796936397801472,-3.399864803817708e-05
-0.00823642020362106,-0.0013838980251529602,-3.4689545954410355e-05
-0.007876528867110478,-0.001387926262420643,-3.5382502026303755e-05
-0.007493812148823378,-0.0013917688476746265,-3.6077425803827575e-05
-0.007081436500798178,-0.001395412659837032,-3.677422118070549e-05
-0.006633545032551356,-0.0013988414052203693,-3.747278469696984e-05
-0.006145396921339052,-0.0014020361407088419,-3.8173004083452145e-05
-0.005613467155846826,-0.0014049758567281384,-3.887475708281139e-05
-0.005035504807655677,-0.001407638099719014,-3.957791057192318e-05
-0.0044105500888262745,-0.0014099996134431345,-4.028232000021372e-05
-0.0037389126099904735,-0.0014120369791178386,-4.098782914835396e-05
-0.003022115269908993,-0.0014137272360878136,-4.169427020215537e-05
-0.0022628091410605046,-0.001415048467190556,-4.240146412797497e-05
-0.0014646641272107728,-0.0014159803355076237,-4.310922132864951e-05
-0.0006322392097431975,-0.0014165045613418622,-4.381734255286188e-05
0.0002291638419120246,-0.00141660533018382,-4.4525620025743304e-05
0.0011136588927872723,-0.0014162696245001451,-4.523383876441429e-05
0.002014942274954428,-0.0014154874742082096,-4.5941778039091385e-05
0.0029264663451000696,-0.001414252122053196,-4.664921293815674e-05
0.00384161981225534,-0.0014125601005138572,-4.73559159937985e-05
0.00475391483703699,-0.0014104112168515342,-4.806165882313985e-05
0.005657179081852876,-0.0014078084433718117,-4.876621373819568e-05
0.006545748112270908,-0.0014047577115732807,-4.9469355276931955e-05
0.007414650291362918,-0.0014012676119723722,-5.0170861607818365e-05
0.00825977300920321,-0.0013973490061472307,-5.087051576234827e-05
0.00907799743788056,-0.0013930145635354598,-5.156810665476894e-05
0.009867291350851029,-0.0013882782413382768,-5.226342985598737e-05
0.010626756073004078,-0.001383154729482313,-5.295628809869252e-05
0.011356630838826539,-0.0013776588827543554,-5.364649150175169e-05
0.012058261023661873,-0.0013718051597887333,-5.4333857512387456e-05
0.012734034319831548,-0.0013656070859528599,-5.501821057382285e-05
0.013387284265647418,-0.0013590767563064902,-5.569938153438769e-05
0.014022158705998536,-0.0013522243955635786,-5.637720682235521e-05
0.014643453673706851,-0.0013450579924686522,-5.705152741936326e-05
0.01525641795669893,-0.0013375830245610507,-5.772218767362069e-05
0.015866536043157166,-0.0013298022860610866,-5.838903400127623e-05
0.016479295999740236,-0.0013217158280503622,-5.905191352980409e-05
0.017099946596015093,-0.0013133210174014233,-5.9710672741167037e-05
0.017733247742810154,-0.001304612718816717,-6.0365156175221575e-05
0.018383220812316844,-0.0012955836016779352,-6.1015205255345236e-05
0.01905290904624727,-0.0012862245692132942,-6.166065729806804e-05
0.019744160923045925,-0.0012765253017209708,-6.230134476580161e-05
0.020457449775324123,-0.0012664748990463782,-6.293709481599345e-05
0.021191741271479665,-0.0012560626012846773,-6.356772919107621e-05
0.021944417801603888,-0.0012452785615164063,-6.419306448177649e-05
0.02271126626161541,-0.0012341146405006015,-6.481291278228074e-05
0.02348653340204751,-0.0012225651905846857,-6.542708274005206e-05
0.024263050840710846,-0.0012106277945239962,-6.603538098632922e-05
0.02503242952091825,-0.0011983039244335889,-6.663761391606862e-05
0.025785319341547226,-0.0011855994872179724,-6.72335897689815e-05
0.0265117233915709,-0.001172525226534693,-6.782312094741967e-05
0.027201350193930343,-0.0011590969581383177,-6.840602649358793e-05
0.027843985088151356,-0.0011453356243177973,-6.898213463920197e-05
0.028429863759455856,-0.0011312671621058954,-6.955128533580789e-05
0.028950033961385128,-0.0011169221876756851,-7.011333267325328e-05
0.029396693143169558,-0.0011023355058995465,-7.066814709664709e-05
0.029763490310139633,-0.0010875454600362193,-7.121561733813103e-05
0.030045781501937603,-0.0010725931420832,-7.175565198866089e-05
0.030240830315607876,-0.0010575214891288137,-7.228818064646389e-05
0.03034794774289564,-0.0010423742946141879,-7.281315459239964e-05
0.03036856880979328,-0.0010271951654760155,-7.333054695742219e-05
0.030306266367436795,-0.001012026456681708,-7.384035236296161e-05
0.030166704626212668,-0.0009969082139332955,-7.434258603061537e-05
0.02995753724462154,-0.000981877153465587,-7.483728237246509e-05
0.029688256950471666,-0.0009669657049168137,-7.53244930870607e-05
0.029370004607984144,-0.0009522011395271998,-7.58042847981717e-05
0.02901534491198928,-0.0009376048021472064,-7.627673628359029e-05
0.02863801440292231,-0.0009231914623184785,-7.674193534970671e-05
0.028252645841749788,-0.0009089687972573104,-7.719997541460066e-05
0.027874471098130245,-0.0008949370180223404,-7.765095186842057e-05
0.02751900313550031,-0.0008810886494639328,-7.809495828529213e-05
0.027201697422811397,-0.0008674084743243548,-7.85320825662392e-05
0.026937594451109936,-0.0008538736513558745,-7.896240309765926e-05
0.026740947780475543,-0.0008404540157979782,-7.938598501444772e-05
0.02662484647040955,-0.0008271125672352569,-7.980287666020602e-05
0.02660084693007343,-0.0008138061438851362,-8.021310633798612e-05
0.026678635228638958,-0.000800486273345458,-8.061667944229377e-05
0.02686574323458069,-0.0007871001787296531,-8.101357605531255e-05
0.027167338552361444,-0.0007735919082829176,-8.14037490770657e-05
0.02758610010307269,-0.0007599035486190591,-8.178712294129119e-05
0.028122181125098292,-0.0007459764783120163,-8.216359294802395e-05
0.028773252442731632,-0.0007317526199200588,-8.253302522258198e-05
0.029534613790358988,-0.0007171756533617861,-8.289525729090244e-05
0.030399360636932233,-0.0007021921597549633,-8.325009924418162e-05
0.03135859630795944,-0.0006867526705187404,-8.359733545175004e-05
0.0324016812552101,-0.000670812601127948,-8.393672676966171e-05
0.033516511849240274,-0.0006543330528518354,-8.426801318315666e-05
0.034689820676922604,-0.0006372814697202947,-8.45909168137997e-05
0.03590748971263405,-0.0006196321421229056,-8.490514521676049e-05
0.03715486725587142,-0.0006013665528807792,-8.521039489051141e-05
0.038417079833215836,-0.0005824735661085074,-8.550635492025873e-05
0.03967933180673498,-0.0005629494631985197,-8.579271067758549e-05
0.04092718780025342,-0.0005427978332967725,-8.606914750170931e-05
0.04214683546376129,-0.0005220293274807689,-8.63353542919037e-05
0.0433253278545375,-0.0005006612866511942,-8.659102694543668e-05
0.04445080493500647,-0.0004787172534538082,-8.683587158046293e-05
0.04551269152156766,-0.00045622637933966467,-8.706960748866129e-05
0.046501865006298645,-0.00043322274020769807,-8.729196976854813e-05
0.04741078294217907,-0.00040974457822057865,-8.75027115981552e-05
0.0482335610511967,-0.0003858334922222347,-8.77016061157659e-05
0.04896599695746504,-0.00036153360272006926,-8.788844788950147e-05
0.049605541755385105,-0.0003368907180418567,-8.806305396969196e-05
0.05015122720850659,-0.0003119515258008838,-8.822526453065263e-05
0.05060355899699222,-0.00028676282924950915,-8.837494311941524e-05
0.05096438639027961,-0.0002613708429026912,-8.851197653745328e-05
0.05123675760626911,-0.000235820556903554,-8.863627438740484e-05
0.051424768566506546,-0.00021015517536036009,-8.874776832047083e-05
0.05153341023361514,-0.00018441563066032965,-8.8846411021976e-05
0.05156841618518985,-0.0001586401740556284,-8.893217497315499e-05
0.05153610881476016,-0.0001328640428056409,-8.900505102737031e-05
0.05144324123908557,-0.00010711920529217947,-8.906504683939476e-05
0.05129683353970822,-8.143418659748102e-05,-8.911218518736717e-05
0.051104005864978395,-5.583397674630937e-05,-8.914650222820312e-05
0.050871815122080416,-3.0340021499544662e-05,-8.916804572776459e-05
0.05060710404050634,-4.970291708897975e-06,-8.91768733060667e-05
0.0503163705945619,2.0260576949869084e-05,-8.917305073475647e-05
0.050005663748231365,4.5341085535567404e-05,-8.91566503191351e-05
0.049680509916919136,7.026262895185503e-05,-8.912774939051324e-05
0.049345873332908595,9.501922476431197e-05,-8.90864289270842e-05
0.04900615175538834,0.00011960723103638621,-8.903277231313403e-05
0.04866520663703909,0.00014402507063449306,-8.89668642377163e-05
0.04832642459536815,0.00016827297844259487,-8.888878972544703e-05
0.047992804975100924,0.00019235278583521213,-8.879863328437757e-05
0.04766706583046504,0.00021626775353660363,-8.869647814953462e-05
0.04735175754968079,0.0002400224593816401,-8.858240559630506e-05
0.047049370466645306,0.0002636227413857216,-8.845649429611322e-05
0.04676242159573026,0.0002870756894013155,-8.831881968841646e-05
0.04649350710274469,0.00031038967157593424,-8.816945334817214e-05
0.04624531142615681,0.0003335743762081596,-8.800846233622612e-05
0.04602057017798423,0.0003566408466091949,-8.783590853052179e-05
0.04582199037071844,0.00037960148674637056,-8.765184794718289e-05
0.04565213655039651,0.0004024700184766493,-8.745633007087714e-05
0.045513294374076536,0.00042526137620776754,-8.724939722220603e-05
0.04540732419963927,0.0004479915308511965,-8.703108399544129e-05
0.04533551706047723,0.00047067724116622563,-8.680141680243694e-05
0.045298464730400854,0.0004933357366139451,-8.65604135579919e-05
0.04529595430883502,0.0005159843413737541,-8.630808353849497e-05
0.04532689517856208,0.0005386400537456033,-8.604442743971512e-05
0.04538928298032917,0.0005613190982853261,-8.57694376517074e-05
0.04548020335152724,0.0005840364698682901,-8.548309875966899e-05
0.04559587779038064,0.000606805490153767,-8.518538826966347e-05
0.045731752696363426,0.000629637397775453,-8.487627754768116e-05
0.04588262857284163,0.0006525409930927543,-8.45557329499641e-05
0.04604282083399826,0.0006755223554444642,-8.42237171128298e-05
0.046206339467705186,0.0006985846455198901,-8.38801903625887e-05
0.04636707346496885,0.0007217279987530586,-8.352511220152047e-05
0.0465189669672679,0.0007449495088611178,-8.315844282461692e-05
0.04665617683256565,0.0007682432948110762,-8.278014462369887e-05
0.046773205861214445,0.0007916006404845213,-8.239018363987497e-05
0.046865011474065896,0.0008150101948183414,-8.198853093104925e-05
0.04692709358705124,0.0008384582210836206,-8.157516382707376e-05
0.04695556574542667,0.0008619288859167401,-8.115006705032367e-05
0.046947211218330016,0.0008854045801576793,-8.071323368380507e-05
0.04689952339429037,0.0009088662638108344,-8.026466597281294e-05
0.04681072924964215,0.0009322938269718176,-7.980437595011728e-05
0.04667979618583829,0.0009556664583306877,-7.933238587879165e-05
0.0465064253591447,0.0009789630137169334,-7.884872851077975e-05
0.046291036782132804,0.0010021623792522529,-7.835344716253745e-05
0.04603475086843653,0.0010252438261648953,-7.784659561118316e-05
0.04573936787079823,0.001048187355849704,-7.732823781567952e-05
0.04540734353642119,0.0010709740337015087,-7.679844746829171e-05
0.04504175868301736,0.0010935863092563685,-7.625730738255224e-05
0.04464628179675081,0.0011160083193763105,-7.570490872539408e-05
0.04422512465682467,0.0011382261709897044,-7.514135010280257e-05
0.0437829900243513,0.0011602281996599983,-7.456673651014015e-05
0.04332500883109153,0.001182005199373859,-7.398117816038169e-05
0.042856664095143784,0.0012035506176054178,-7.338478920613687e-05
0.04238370032253341,0.001224860708709837,-7.277768637455806e-05
0.04191201896399511,0.0012459346385314692,-7.215998753774773e-05
0.04144756142437046,0.0012667745336285606,-7.153181024470772e-05
0.04099618187348334,0.001287385469453024,-7.089327024393732e-05
0.040563513939867554,0.0013077753934063617,-7.024448002822248e-05
0.04015483772063849,0.0013279549813214882,-6.958554743454052e-05
0.03977495445311549,0.0013479374293649266,-6.891657433186892e-05
0.03942807475601411,0.001367738186667209,-6.823765542786089e-05
0.03911772326478866,0.0013873746361724097,-6.754887722215098e-05
0.03884665887422981,0.0014068657317071642,-6.685031713018108e-05
0.03861680693763664,0.0014262315981601308,-6.614204279771426e-05
0.038429199226295355,0.0014454930997011139,-6.542411162324895e-05
0.03828391963539164,0.0014646713794165356,-6.469657050346953e-05
0.038180056571348084,0.0014837873734682206,-6.395945581524834e-05
0.038115664407719345,0.0015028613037129876,-6.321279364595304e-05
0.03808773679570638,0.001521912154013844,-6.245660028152134e-05
0.03809219608245022,0.0015409571372333832,-6.169088295870953e-05
0.03812390575827788,0.0015600111626935653,-6.091564088372779e-05
0.03817671442602631,0.0015790863177396414,-6.0130866513619486e-05
0.03824353854543825,0.0015981913809825076,-5.9336547088938946e-05
0.0383164877917074,0.001617331387566794,-5.853266639680162e-05
0.03838703326953646,0.001636507267832105,-5.77192067329519e-05
0.03844621632941421,0.0016557155802318427,-5.689615102093591e-05
0.03848489371197877,0.001674948357742191,-5.60634850364424e-05
0.03849401176547106,0.0016941930841115535,-5.522119967597896e-05
0.038464898605081656,0.0017134328117041917,-5.4369293202025024e-05
0.03838956009842515,0.0017326464263800684,-5.350777339250396e-05
0.038260964957483275,0.0017518090576440456,-5.263665952149793e-05
0.03807330607225959,0.0017708926254014813,-5.175598410073655e-05
0.03782222888061349,0.0017898665091396996,-5.086579431710126e-05
0.03750502195852471,0.0018086983218494842,-4.996615310935396e-05
0.03712076823380326,0.0018273547693975663,-4.9057139836542195e-05
0.036670455483393906,0.0018458025753268655,-4.813885050036109e-05
0.03615704227507309,0.0018640094497664823,-4.7211397494087754e-05
0.03558547231135819,0.0018819450784130901,-4.627490886204286e-05
0.03496262819585204,0.0018995821035398927,-4.532952706655461e-05
0.03429721595124762,0.0019168970645766677,-4.437540727452547e-05
0.03359957429039505,0.0019338712621370783,-4.341271519284704e-05
0.03288140706366229,0.0019504915074755927,-4.244162450044387e-05
0.03215544288944704,0.00196675071996387,-4.146231394358401e-05
0.03143503274587547,0.0019826483388727008,-4.047496417887487e-05
0.03073370374369427,0.0019981905229950934,-3.947975446340792e-05
0.03006469317563812,0.0020133901222249262,-3.847685930210291e-05
0.02944048873945971,0.0020282664177037005,-3.746644516712075e-05
0.02887239828440083,0.0020428446394596656,-3.644866740282991e-05
0.02837016751629838,0.0020571552809098403,-3.542366742273753e-05
0.027941658848967748,0.0020712332375011568,-3.439157029313478e-05
0.027592599676447442,0.0020851168021325107,-3.335248278322636e-05
0.02732640359623193,0.0020988465529506806,-3.230649194445556e-05
0.02714406370032958,0.002112464169774821,-3.125366426377419e-05
0.027044113615277143,0.0021260112141037227,-3.0194045417804553e-05
0.02702264989698377,0.002139527904981788,-2.9127660638033174e-05
0.02707340882563641,0.002153051919662443,-2.8054515681872115e-05
