frame_number,force
0,542.979237948068
1,542.9995966683907
2,543.0198049631321
3,543.039699128791
4,543.0591179667161
5,543.0779112939548
6,543.0959486561039
7,543.1131276372437
8,543.1293811535728
9,543.1446831350198
10,543.1590520785071
11,543.1725520940196
12,543.1852912117866
13,543.197416869223
14,543.2091087219059
15,543.2205692819043
16,543.2320133115778
17,543.2436572047105
18,543.2557095901442
19,543.2683640570457
20,543.2817943531729
21,543.296151862555
22,543.3115648182531
23,543.3281386181952
24,543.3459567113207
25,543.3650816829208
26,543.3855563202491
27,543.4074045636695
28,543.4306323391281
29,543.4552283132344
30,543.4811646065326
31,543.5083974833215
32,543.5368680861568
33,543.566503414314
34,543.5972178629886
35,543.6289156497184
36,543.6614943599486
37,543.6948496987692
38,543.7288813683784
39,543.7634998106264
40,543.798633383057
41,543.8342353918771
42,543.8702902851469
43,543.9068182302752
44,543.9438773215945
45,543.9815628494102
46,544.0200033961854
47,544.0593538973468
48,544.0997860977681
49,544.1414770127527
50,544.1845960882185
51,544.2292917935772
52,544.275678415247
53,544.3238238426412
54,544.3737390996047
55,544.4253702644247
56,544.4785932927326
57,544.5332121331371
58,544.5889603811495
59,544.6455065404919
60,544.7024627667619
61,544.7593967842694
62,544.8158465238522
63,544.8713369238677
64,544.9253982133341
65,544.9775848124124
66,545.0274937776215
67,545.0747815988021
68,545.1191782362231
69,545.1604975884336
70,545.19864399638
71,545.2336147631022
72,545.2654989096142
73,545.2944725155392
74,545.3207911020609
75,545.3447796652529
76,545.3668210978234
77,545.3873437101607
78,545.4068083288788
79,545.4256951529721
80,545.4444904004039
81,545.4636728585285
82,545.48370064728
83,545.5049986581199
84,545.5279471748751
85,545.5528721308292
86,545.5800373506052
87,545.6096389994742
88,545.6418023405759
89,545.6765807856708
90,545.7139571050685
91,545.7538465501472
92,545.7961015899322
93,545.8405179959522
94,545.8868420629719
95,545.9347787499406
96,545.9840004961316
97,546.0341565052995
98,546.0848824040805
99,546.1358102771476
100,546.1865790791978
101,546.2368453224593
102,546.2862937837396
103,546.3346477937113
104,546.381678487508
105,546.4272123037789
106,546.4711361500438
107,546.5134000154429
108,546.5540172132668
109,546.5930626130403
110,546.6306690887526
111,546.6670221502908
112,546.7023526233316
113,546.7369274049145
114,546.7710385876937
115,546.8049913809355
116,546.8390911930463
117,546.8736301156591
118,546.9088730356403
119,546.9450437405175
120,546.9823115853031
121,547.0207794369794
122,547.0604736362902
123,547.1013366231542
124,547.1432227287742
125,547.1858974958293
126,547.2290407586108
127,547.2722535999196
128,547.3150691725773
129,547.3569671477211
130,547.3973912018122
131,547.4357686188459
132,547.4715309576255
133,547.5041348384867
134,547.533082072997
135,547.5579384527642
136,547.5783505478315
137,547.594059923923
138,547.6049143014621
139,547.6108753374529
140,547.6120228904362
141,547.6085557879476
142,547.6007892407112
143,547.5891491713314
144,547.5741638457811
145,547.5564532480728
146,547.5367165977432
147,547.5157183270024
148,547.4942727423247
149,547.4732274903097
150,547.4534458602975
151,547.4357879420867
152,547.4210907321452
153,547.4101474345916
154,547.4036864496181
155,547.4023508861246
156,547.4066797694431
157,547.4170922446198
158,547.4338758864865
159,547.4571797757803
160,547.4870124401479
161,547.5232442620237
162,547.5656136737703
163,547.6137364413834
164,547.6671174689847
165,547.7251646705671
166,547.7872044846717
167,547.8524985858088
168,547.9202613122911
169,547.9896773036677
170,548.0599188579256
171,548.1301626045619
172,548.1996052214758
173,548.2674780576893
174,548.3330606217453
175,548.3956929079621
176,548.4547864121957
177,548.5098334654759
178,548.5604143340659
179,548.6062015605776
180,548.6469612847094
181,548.682551661027
182,548.7129188076136
183,548.7380908653396
184,548.7581707452055
185,548.7733280791475
186,548.7837908033322
187,548.7898366625537
188,548.7917847277911
189,548.7899868373609
190,548.7848187991315
191,548.7766712774392
192,548.7659405052924
193,548.7530191963576
194,548.7382881454104
195,548.7221089617572
196,548.704818267485
197,548.686723605091
198,548.6681012318377
199,548.6491958810185
200,548.6302224407141
201,548.6113693746438
202,548.5928035949729
203,548.5746763601785
204,548.5571295982008
205,548.5403018949846
206,548.5243333212309
207,548.5093683523822
208,548.4955563762148
209,548.4830496282895
210,548.4719987526158
211,548.4625464650107
212,548.4548199612467
213,548.4489227693911
214,548.4449267348632
215,548.4428647896058
216,548.442725085799
217,548.4444469310923
218,548.4479187838077
219,548.4529784609953
220,548.459415690754
221,548.4669770672909
222,548.4753732409894
223,548.484287867241
224,548.4933876046033
225,548.5023323782135
226,548.5107851823077
227,548.5184208486972
228,548.5249334607299
229,548.530042401177
230,548.5334972424135
231,548.5350817050067
232,548.5346167793517
233,548.5319629736637
234,548.5270216199843
235,548.5197352546752
236,548.5100872472182
237,548.4981009711211
238,548.4838387768916
239,548.4674008477741
240,548.4489238449803
241,548.428579214611
242,548.4065711062481
243,548.3831339034833
244,548.358529312828
245,548.3330428682941
246,548.3069796973381
247,548.2806594791004
248,548.2544106266231
249,548.2285637763758
250,548.2034447102393
251,548.1793669370722
252,548.1566242918709
253,548.135483961302
254,548.1161802643765
255,548.0989093454491
256,548.0838247357567
257,548.0710335803319
258,548.060593296776
259,548.0525085538178
260,548.0467286216902
261,548.0431452271687
262,548.0415910683132
263,548.0418392256015
264,548.0436038546121
265,548.0465426328981
266,548.0502613646748
267,548.0543209569655
268,548.0582467806369
269,548.0615402909297
270,548.0636926696305
271,548.0642000851486
272,548.0625799510498
273,548.058387397513
274,548.051231136567
275,548.0407880051891
276,548.0268156739822
277,548.0091632534359
278,547.9877797089009
279,547.962720009714
280,547.9341487988223
281,547.9023411910165
282,547.8676802000483
283,547.8306503121104
284,547.7918268718578
285,547.7518611932259
286,547.7114616180232
287,547.6713711220937
288,547.6323424829806
289,547.5951123499868
290,547.5603756577962
291,547.5287616830609
292,547.5008127698658
293,547.4769664579537
294,547.457541474191
295,547.4427277837218
296,547.4325806516641
297,547.4270184750037
298,547.4258240288574
299,547.4286487400746
300,547.435019684349
301,547.4443491974456
302,547.455947178045
303,547.4690361840138
304,547.4827692561598
305,547.4962501459764
306,547.50855538711
307,547.5187574815648
308,547.5259483674427
309,547.5292622968408
310,547.5278973257966
311,547.5211348194089
312,547.5083565993397
313,547.4890594721796
314,547.4628668853128
315,547.4295374949635
316,547.3889705696307
317,547.3412083307437
318,547.2864354581824
319,547.2249760136821
320,547.1572879544195
321,547.0839552634131
322,547.0056776083846
323,546.9232574449599
324,546.8375846100406
325,546.749618638898
326,546.6603692038874
327,546.5708751768203
328,546.482182880863
329,546.3953241302821
330,546.3112946152409
331,546.2310330649966
332,546.155401492893
333,546.0851667713174
334,546.0209838230769
335,545.9633808234569
336,545.9127469366088
337,545.8693231942271
338,545.8331971050103
339,545.8043014450445
340,545.7824174716143
341,545.7671826079029
342,545.7581024904837
343,545.7545671028855
344,545.7558705087157
345,545.7612335144594
346,545.7698285042396
347,545.780805658475
348,545.7933196973484
349,545.8065561376281
350,545.819755875304
351,545.8322368099516
352,545.8434112773753
353,545.8527982635161
354,545.860029721081
355,545.8648507673519
356,545.8671140336111
357,545.8667688886792
358,545.8638466248717
359,545.8584429207217
360,545.8506989395845
361,545.8407823316506
362,545.8288692598525
363,545.8151283744986
364,545.7997074058968
365,545.7827227981319
366,545.7642526290872
367,545.7443328932995
368,545.7229569915193
369,545.7000780076423
370,545.6756131568605
371,545.6494497277032
372,545.6214519230477
373,545.5914681731433
374,545.5593386556876
375,545.5249028521897
376,545.4880069958808
377,545.4485112560725
378,545.4062964704706
379,545.3612701811751
380,545.3133716940748
381,545.2625759345384
382,545.20889602608
383,545.1523847096591
384,545.0931348730496
385,545.0312795184469
386,544.9669914431221
387,544.9004827786896
388,544.8320044003934
389,544.7618451257941
390,544.6903305887192
391,544.6178217198294
392,544.5447128741904
393,544.4714297083868
394,544.3984268181254
395,544.3261849464008
396,544.255207405661
397,544.1860152999008
398,544.1191411662958
399,544.0551207817264
400,543.9944831403637
401,543.9377389663746
402,543.8853684142363
403,543.8378086976481
404,543.7954423333164
405,543.7585866352854
406,543.7274850879019
407,543.7023011687671
408,543.683115008157
409,543.6699229849585
410,543.6626400621637
411,543.6611044363973
412,543.6650839444043
413,543.6742836244034
414,543.6883538729829
415,543.7068987797517
416,543.7294844049707
417,543.7556468837731
418,543.7849002784378
419,543.8167441467814
420,543.8506708937095
421,543.8861730526052
422,543.9227506089019
423,543.9599183028131
424,543.9972125808855
425,544.0341976074087
426,544.0704696078659
427,544.1056588846646
428,544.1394291622297
429,544.171474420407
430,544.2015138725595
431,544.229286051933
432,544.2545430315223
433,544.2770456705723
434,544.2965605397109
435,544.3128589004825
436,544.3257178351896
437,544.3349233340922
438,544.3402748652111
439,544.3415907522462
440,544.3387136491967
441,544.3315155270013
442,544.31990179975
443,544.3038144358446
444,544.2832340769987
445,544.2581812916861
446,544.2287171000568
447,544.1949428332963
448,544.156999265557
449,544.1150648602988
450,544.069353017845
451,544.0201084259143
452,543.967602876485
453,543.9121310512039
454,543.8540067186715
455,543.7935595769485
456,543.7311327165673
457,543.667080459838
458,543.6017662039677
459,543.5355599041371
460,543.4688350095205
461,543.4019649603836
462,543.3353196119821
463,543.2692620138774
464,543.2041458157129
465,543.1403132929595
466,543.078093708913
467,543.0178015448423
468,542.9597341133976
469,542.9041682460255
470,542.8513560456742
471,542.8015199816971
472,542.754847739792
473,542.7114871984328
474,542.6715417931275
475,542.6350664756418
476,542.6020644844835
477,542.5724851266455
478,542.5462226774109
479,542.5231163965542
480,542.5029516244955
481,542.4854619545864
482,542.4703325143391
483,542.4572044190005
484,542.4456805019287
485,542.435332435234
486,542.4257092691691
487,542.4163472524041
488,542.4067806252273
489,542.3965529750355
490,542.3852287346464
491,542.3724044623447
492,542.357719612195
493,542.3408665317426
494,542.3215993654376
495,542.2997413974108
496,542.2751902622568
497,542.2479205652537
498,542.2179838029564
499,542.1855058625805
500,542.1506825903476
501,542.1137739274029
502,542.0750970483816
503,542.0350189252093
504,541.9939487744062
505,541.9523308186625
506,541.9106376127634
507,541.8693638944561
508,541.8290206706797
509,541.7901291540227
510,541.7532142199162
511,541.7187971888028
512,541.6873878959302
513,541.6594761710327
514,541.6355229917098
515,541.6159516869462
516,541.6011396430415
517,541.5914109805841
518,541.5870306060485
519,541.5881999012028
520,541.5950541365829
521,541.607661538671
522,541.6260238380266
523,541.6500780465631
524,541.679699103921
525,541.7147029206918
526,541.7548493274791
527,541.799844570469
528,541.849343241721
529,541.9029498183677
530,541.9602202328136
531,542.0206640398491
532,542.0837477506903
533,542.1488997771836
534,542.2155172035646
535,542.2829743205275
536,542.3506325898591
537,542.4178515419011
538,542.4840000543265
539,542.5484674417823
540,542.6106737627854
541,542.6700788005652
542,542.7261893665482
543,542.7785648418569
544,542.826821095471
545,542.8706330667821
546,542.9097364076493
547,542.943928622139
548,542.9730700379309
549,542.9970846786698
550,543.0159607979084
551,543.0297506158197
552,543.0385687160127
553,543.0425886162203
554,543.0420372329693
555,543.0371872735295
556,543.0283478932458
557,543.0158541518161
558,543.0000558552612
559,542.9813063036709
560,542.9599513638868
561,542.9363192708889
562,542.9107116615306
563,542.8833964457392
564,542.8546030881441
565,542.824520674972
566,542.7932988421397
567,542.761051340183
568,542.7278617877545
569,542.6937910399744
570,542.6588855547001
571,542.6231861677795
572,542.5867367795107
573,542.5495925716858
574,542.5118274636596
575,542.4735405497803
576,542.4348612517308
577,542.3959529026209
578,542.3570144906528
579,542.3182803526906
580,542.2800177377414
581,542.24252234124
582,542.2061120601214
583,542.1711192501022
584,542.1378816971062
585,542.1067324524547
586,542.0779887378221
587,542.0519403248289
588,542.0288380070921
589,542.0088828258786
590,541.9922165579341
591,541.9789137736835
592,541.9689756394906
593,541.9623255491986
594,541.9588065970169
595,541.958180895396
596,541.9601308391273
597,541.9642625489558
598,541.9701117612952
599,541.9771523101513
600,541.9848071422148
601,541.9924616277232
602,541.9994788422438
603,542.0052164768092
604,542.0090449895534
605,542.0103664613002
606,542.0086334115846
607,542.0033667201475
608,541.9941718607148
609,541.9807528199195
610,541.9629232268876
611,541.9406143046215
612,541.913879303428
613,541.882894155338
614,541.8479542329885
615,541.809467294507
616,541.7679429141947
617,541.7239788988263
618,541.6782453251237
619,541.6314668544383
620,541.5844038691699
621,541.5378328124514
622,541.4925260329825
623,541.4492314715751
624,541.4086525821688
625,541.3714289151502
626,541.338117868761
627,541.3091782594398
628,541.2849564907535
629,541.265676120026
630,541.2514314977823
631,541.2421859056333
632,541.2377743174746
633,541.2379106408001
634,541.2421990424374
635,541.2501486472896
636,541.2611905741492
637,541.2746961352591
638,541.289995172548
639,541.3063938183534
640,541.3231912895664
641,541.3396955882855
642,541.35523817161
643,541.369187715697
644,541.3809629989951
645,541.3900447273649
646,541.395985944529
647,541.3984206032237
648,541.3970699184339
649,541.3917462394837
650,541.3823543302537
651,541.3688901258564
652,541.3514372149891
653,541.3301614238578
654,541.305303912103
655,541.2771731856787
656,541.246136486907
657,541.2126111324692
658,541.1770563885623
659,541.1399662984348
660,541.1018636095835
661,541.0632947580265
662,541.0248257916135
663,540.9870390685227
664,540.9505304988423
665,540.9159070267141
666,540.8837839998159
667,540.8547820291569
668,540.829522900085
669,540.8086241022505
670,540.7926916474968
671,540.7823109983593
672,540.7780360732362
673,540.7803764697414
674,540.7897833242226
675,540.8066345321736
676,540.8312202322766
677,540.8637294401038
678,540.9042385805097
679,540.9527025249863
680,541.00894863762
681,541.0726742383026
682,541.1434477706243
683,541.2207138197568
684,541.30380197585
685,541.3919393796201
686,541.4842666210301
687,541.5798565173981
688,541.6777352144159
689,541.7769050295789
690,541.876368413378
691,541.9751522551175
692,542.0723315437069
693,542.1670512647812
694,542.258545475066
695,542.3461526789779
696,542.4293268498707
697,542.5076437318789
698,542.5808024907283
699,542.6486232462598
700,542.7110413282642
701,542.7680991881393
702,542.8199368239434
703,542.8667813882672
704,542.9089364092704
705,542.9467708601238
706,542.9807082021439
707,543.0112154458621
708,543.0387921785901
709,543.0639594545363
710,543.0872485057068
711,543.1091893802425
712,543.1302997601549
713,543.1510743008218
714,543.1719748649713
715,543.1934219979742
716,543.215787923001
717,543.2393912593507
718,543.2644936192266
719,543.2912982189387
720,543.3199506057958
721,543.3505414902978
722,543.3831114785766
723,543.4176573081396
724,543.4541391114701
725,543.4924882932346
726,543.5326157208297
727,543.5744199895295
728,543.6177955098492
729,543.662640117052
730,543.7088618539549
731,543.756384546069
732,543.805151795709
733,543.8551290788349
734,543.9063037293594
735,543.9586827594418
736,544.0122887282407
737,544.0671542073815
738,544.1233156568397
739,544.1808075747567
740,544.2396576360458
741,544.2998833277007
742,544.3614903894374
743,544.4244731310223
744,544.4888164056701
745,544.5544987463837
746,544.6214960070184
747,544.6897848258509
748,544.759345339382
749,544.8301627880326
750,544.9022278903346
751,544.9755359947546
752,545.0500849960589
753,545.1258719290173
754,545.2028882008136
755,545.2811136520721
756,545.3605099145049
757,545.4410136812877
758,545.522530464441
759,545.6049292616768
760,545.6880384148825
761,545.7716428795517
762,545.8554831245664
763,545.9392558840854
764,546.0226169192213
765,546.1051857681502
766,546.1865521804017
767,546.266283648148
768,546.343933323807
769,546.4190477420807
770,546.4911740690487
771,546.5598668895411
772,546.624694693482
773,546.6852462632196
774,546.7411371691801
775,546.7920165619436
776,546.8375744025642
777,546.8775492064574
778,546.9117362555671
779,546.9399960374799
780,546.9622624711209
781,546.9785503620195
782,546.9889615056654
783,546.9936889186699
784,546.9930188403775
785,546.9873303880393
786,546.9770929794811
787,546.9628617642605
788,546.9452712909655
789,546.9250275335432
790,546.9028982986986
791,546.8797020004743
792,546.8562948044852
793,546.8335561705819
794,546.8123728668558
795,546.793621661945
796,546.7781511744113
797,546.7667636957061
798,546.7601980338893
799,546.7591144056995
800,546.7640821376857
801,546.7755705607261
802,546.7939431476415
803,546.8194547093422
804,546.8522513084744
805,546.8923724405465
806,546.9397549712944
807,546.9942383398082
808,547.0555706662824
809,547.1234155881932
810,547.1973597836909
811,547.2769211840939
812,547.3615578696724
813,547.4506776372467
814,547.5436482667176
815,547.6398086066275
816,547.738480665186
817,547.8389828018284
818,547.940643825753
819,548.0428174364932
820,548.1448961770127
821,548.246324037463
822,548.3466070223924
823,548.4453212418124
824,548.5421182780724
825,548.6367276667819
826,548.7289563527586
827,548.8186850340154
828,548.905861462705
829,548.9904910424665
830,549.0726253816641
831,549.1523497033851
832,549.2297700633151
833,549.305001181662
834,549.3781554373135
835,549.449333285927
836,549.5186151194584
837,549.5860544500798
838,549.6516723177766
839,549.715452988187
840,549.777341271035
841,549.8372420200459
842,549.8950224234031
843,549.9505175212362
844,550.0035390982245
845,550.0538878143709
846,550.1013681721821
847,550.145805633711
848,550.1870649164994
849,550.2250682967764
850,550.2598126749432
851,550.2913841822669
852,550.319969184464
853,550.345860658136
854,550.3694591201458
855,550.3912676301973
856,550.4118808363849
857,550.4319684791762
858,550.4522541429733
859,550.4734903959204
860,550.4964318289426
861,550.5218077817573
862,550.5502965446386
863,550.5825025254904
864,550.6189374649424
865,550.660006468915
866,550.7059994028021
867,550.7570879019523
868,550.8133278449145
869,550.8746667340712
870,550.9409551669087
871,551.0119614566667
872,551.0873883968953
873,551.1668911324577
874,551.2500951203117
875,551.3366132502081
876,551.4260613373605
877,551.5180713571203
878,551.6123019218132
879,551.7084456225148
880,551.8062330563728
881,551.9054336644823
882,552.0058538258883
883,552.1073328473492
884,552.2097374910489
885,552.3129555690228
886,552.416889037825
887,552.5214469897999
888,552.6265388837201
889,552.7320682408413
890,552.8379269132198
891,552.943989993127
892,553.0501114922378
893,553.1561210292487
894,553.2618218489116
895,553.3669904822898
896,553.4713782153133
897,553.574714303777
898,553.6767106749312
899,553.7770677953367
900,553.8754814610412
901,553.97165038449
902,554.0652845011966
903,554.1561138241949
904,554.2438974562348
905,554.3284321554203
906,554.4095597622204
907,554.4871728543025
908,554.561218157864
909,554.6316974601922
910,554.6986659673432
911,554.7622281627126
912,554.822531245061
913,554.8797562444431
914,554.9341070443038
915,554.9857978092615
916,555.0350396238906
917,555.0820273168756
