acceleration,velocity,displacement
-0.05288071978605326,0.0,0.0
-0.05251488174161489,-2.6348900381917033e-05,-6.587225095479258e-09
-0.05215174678458397,-5.251555751346675e-05,-2.6303339569325204e-08
-0.05179425660126154,-7.850205835992812e-05,-5.905774353767393e-08
-0.05144530786680334,-0.00010431194947694434,-1.0476124549689205e-07
-0.05110759930867762,-0.00012995017627081458,-1.6332677693383177e-07
-0.05078347514022036,-0.00015542294488303908,-2.3467005722229519e-07
-0.050474775734463115,-0.00018073750760170995,-3.1871017034348246e-07
-0.05018270656042705,-0.0002059018781754325,-4.1537001678776806e-07
-0.04990773608684814,-0.0002309244888372513,-5.24576608540939e-07
-0.049649531931444515,-0.00025581380584182445,-6.46261182210708e-07
-0.04940694206348243,-0.0002805779243405562,-7.803591147563031e-07
-0.04917802522303802,-0.0003052241661621863,-9.268096373819888e-07
-0.04896013201886125,-0.0003297587054726611,-1.0855553552907006e-06
-0.04875003411223773,-0.0003541862470054359,-1.2565415934102248e-06
-0.04854409244245023,-0.00037850977864410787,-1.4397155998226108e-06
-0.048338447815976855,-0.00040273041370871465,-1.6350256479108164e-06
-0.04812921172324651,-0.0004268473285935205,-1.8424200834863753e-06
-0.04791263518759156,-0.00045085779032123005,-2.061846363215063e-06
-0.04768523948927351,-0.0004747572589904463,-2.293250125542982e-06
-0.04744390245072066,-0.0004985395444754449,-2.5365743264094547e-06
-0.04718590376160477,-0.0005221969960285262,-2.7917584615354473e-06
-0.04690893912521148,-0.0005457207067502303,-3.0587378872301362e-06
-0.046611114583020155,-0.0005691007201772881,-3.337443243962016e-06
-0.04629093059103518,-0.000592326231470802,-3.6277999818740385e-06
-0.04594726251665623,-0.0006153857797477248,-3.9297279846786704e-06
-0.04557934149008896,-0.0006382674307494111,-4.2431412873029545e-06
-0.04518673731258496,-0.0006609589504500795,-4.567947882602827e-06
-0.044769343497270284,-0.0006834479706525434,-4.904049612878483e-06
-0.04432736370062959,-0.0007057221474520184,-5.251342142404624e-06
-0.043861298905310306,-0.0007277693131035034,-5.609715007543504e-06
-0.04337193502433345,-0.0007495776215859143,-5.979051741215859e-06
-0.04286032970238081,-0.0007711356877675929,-6.359230068554236e-06
-0.04232779473321629,-0.0007924327188764922,-6.750122170215257e-06
-0.04177586840086328,-0.0008134586346600121,-7.151595008599383e-06
-0.041206271877781225,-0.0008342041697296733,-7.563510709696804e-06
-0.04062084551246842,-0.0008546609490772357,-7.985726989398532e-06
-0.04002146344266011,-0.0008748215263160178,-8.418097608246845e-06
-0.03940992797965217,-0.0008946793741715958,-8.860472833368748e-06
-0.038787848447504644,-0.000914228818278385,-9.312699881481244e-06
-0.03815651223243901,-0.000933464908448371,-9.774623313162933e-06
-0.03751675840320311,-0.0009523832261072814,-1.0246085346801847e-05
-0.03686886642192162,-0.0009709796323135626,-1.0726926061407058e-05
-0.03621247388834113,-0.0009892499673911283,-1.121698346133323e-05
-0.035546536870592275,-0.0010071897200808616,-1.1716093383201228e-05
-0.03486934304007812,-0.0010247936900585292,-1.2224089235736075e-05
-0.03417858182147343,-0.0010420556712739172,-1.2740801576069185e-05
-0.033471469087257795,-0.0010589681840011,-1.326605753988794e-05
-0.03274491865088637,-0.001075522280935636,-1.3799680156122124e-05
-0.031995749618302746,-0.0010917074480029333,-1.4341487588356767e-05
-0.03122091711427828,-0.0011075116146860786,-1.489129235402902e-05
-0.03041775320299171,-0.001122921282265396,-1.544890057826689e-05
-0.029584204203313206,-0.0011379217716169722,-1.6014111341737482e-05
-0.028719050169692964,-0.0011524975852102238,-1.658671618094428e-05
-0.027822093008060975,-0.0011666328710046622,-1.7166498794998003e-05
-0.02689430166998099,-0.0011803119696741726,-1.775323500516771e-05
-0.025937905183041718,-0.0011935200213874283,-1.834669300293311e-05
-0.02495642651216753,-0.0012062436043112307,-1.8946633909357777e-05
-0.02395465283924535,-0.001218471374149084,-1.9552812653972854e-05
-0.022938541019525704,-0.0012301946726137767,-2.0164979165663568e-05
-0.02191506046147062,-0.0012414080729840258,-2.0782879852063018e-05
-0.020891978985976688,-0.0012521098328458877,-2.1406259328520495e-05
-0.019877599790690814,-0.0012623022275400546,-2.203486234361698e-05
-0.018880459542926963,-0.001271991742373459,-2.266843583609536e-05
-0.017908999838944093,-0.0012811891072189267,-2.3306731048493456e-05
-0.01697122756986162,-0.001289909164071128,-2.394950561631597e-05
-0.016074383468532478,-0.0012981705668307266,-2.4596525549041433e-05
-0.01522464027484417,-0.0013059953227665707,-2.5247567021440757e-05
-0.014426850494531901,-0.0013134081954589147,-2.590241790099713e-05
-0.013684358296077616,-0.0013204359976565672,-2.6560878949276e-05
-0.01299888263433466,-0.0013271068078891703,-2.7222764650662434e-05
-0.012370471972597304,-0.0013334491465409033,-2.788790363926995e-05
-0.011797526638921644,-0.0013394911461937832,-2.855613871245362e-05
-0.01127688255305133,-0.0013452597484917765,-2.922732643612501e-05
-0.010803948101727932,-0.0013507799561554713,-2.9901336362286823e-05
-0.010372883235767554,-0.0013560741639898452,-3.0578049892323154e-05
-0.009976807526666676,-0.0013611615866804538,-3.125735882999073e-05
-0.009608024408413789,-0.001366057794664224,-3.19391636753269e-05
-0.009258253011456049,-0.0013707743640191915,-3.2623371714997754e-05
-0.008918864352325305,-0.0013753186433601368,-3.330989496684259e-05
-0.00858112128909945,-0.001379693639770493,-3.3998648037625246e-05
-0.008236420204915848,-0.0013838980251439969,-3.468954595385387e-05
-0.007876528868176299,-0.00138792626241227,-3.538250202574294e-05
-0.007493812149611194,-0.0013917688476667168,-3.6077425803262685e-05
-0.0070814365012712025,-0.0013954126598294374,-3.677422118013672e-05
-0.006633545032680972,-0.0013988414052129253,-3.7472784696397314e-05
-0.006145396921108899,-0.0014020361407013728,-3.8173004082875885e-05
-0.005613467155252799,-0.0014049758567204632,-3.8874757082231346e-05
-0.005035504806701841,-0.0014076380997109519,-3.95779105713392e-05
-0.004410550087522822,-0.001409999613434508,-4.0282319999625564e-05
-0.0037389126083496424,-0.0014120369791084761,-4.098782914776131e-05
-0.0030221152679491487,-0.0014137272360775508,-4.169427020155782e-05
-0.0022628091388041008,-0.001415048467179239,-4.240146412737202e-05
-0.0014646641246904785,-0.0014159803354951127,-4.310922132804061e-05
-0.0006322392069998552,-0.0014165045613280353,-4.381734255224639e-05
0.00022916384483552652,-0.0014166053301685763,-4.4525620025120545e-05
0.0011136588958439574,-0.0014162696244834066,-4.523383876378354e-05
0.002014942278097317,-0.0014154874741899213,-4.594177803845187e-05
0.0029264663482862652,-0.0014142521220333255,-4.664921293750768e-05
0.0038416198154439868,-0.0014125601004923928,-4.735591599313911e-05
0.004753914840185185,-0.0014104112168284856,-4.806165882246933e-05
0.005657179084917714,-0.0014078084433472098,-4.876621373751326e-05
0.006545748115213568,-0.001404757711547177,-4.946935527623685e-05
0.007414650294150704,-0.001401267611944836,-5.017086160710985e-05
0.008259773011807511,-0.0013973490061183465,-5.087051576162565e-05
0.009077997440272765,-0.0013930145635053263,-5.1568106654031565e-05
0.009867291353004563,-0.0013882782413070069,-5.226342985523465e-05
0.010626756074898502,-0.0013831547294500311,-5.295628809792391e-05
0.01135663084044754,-0.0013776588827211947,-5.364649150096671e-05
0.012058261025007394,-0.001371805159754831,-5.4333857511585715e-05
0.012734034320907705,-0.001365607085918352,-5.501821057300401e-05
0.013387284266466461,-0.0013590767562715086,-5.569938153355147e-05
0.014022158706580884,-0.0013522243955282468,-5.637720682150141e-05
0.014643453674074972,-0.001345057992433083,-5.705152741849175e-05
0.015256417956879376,-0.0013375830245253445,-5.772218767273135e-05
0.015866536043176494,-0.0013298022860253305,-5.838903400036902e-05
0.016479295999627046,-0.0013217158280146297,-5.905191352887901e-05
0.01709994659580208,-0.0013133210173657726,-5.9710672740224106e-05
0.017733247742525923,-0.0013046127187811905,-6.036515617426085e-05
0.018383220811973657,-0.0012955836016425655,-6.101520525436679e-05
0.019052909045845137,-0.0012862245691781108,-6.166065729707196e-05
0.019744160922578725,-0.0012765253016860049,-6.230134476478799e-05
0.020457449774785738,-0.0012664748990116638,-6.293709481496241e-05
0.02119174127087419,-0.0012560626012502489,-6.35677291900279e-05
0.02194441780094155,-0.001245278561482295,-6.419306448071103e-05
0.022711266260904386,-0.0012341146404668336,-6.481291278119831e-05
0.023486533401298016,-0.001222565190551283,-6.542708273895284e-05
0.024263050839939224,-0.0012106277944909736,-6.60353809852134e-05
0.025032429520144932,-0.0011983039244009524,-6.663761391493639e-05
0.02578531934079875,-0.0011855994871857165,-6.723358976783305e-05
0.026511723390881998,-0.0011725252265027963,-6.782312094625519e-05
0.02720135019333572,-0.0011590969581067418,-6.840602649240757e-05
0.027843985087683678,-0.001145335624286487,-6.898213463800587e-05
0.028429863759145746,-0.0011312671620747796,-6.955128533459619e-05
0.028950033961263194,-0.0011169221876446774,-7.011333267202605e-05
0.029396693143260287,-0.0011023355058685466,-7.066814709540435e-05
0.029763490310465462,-0.001087545460005115,-7.121561733687276e-05
0.030045781502523006,-0.0010725931420518678,-7.1755651987387e-05
0.030240830316473243,-0.0010575214890971188,-7.228818064517426e-05
0.030347947744047064,-0.0010423742945819888,-7.281315459109403e-05
0.030368568811218462,-0.0010271951654431725,-7.333054695610032e-05
0.03030626636911118,-0.00101202645664809,-7.384035236162313e-05
0.030166704628099457,-0.0009969082138987875,-7.434258602925984e-05
0.0299575372466778,-0.0009818771534300932,-7.483728237109206e-05
0.02968825695264629,-0.0009669657048802622,-7.532449308566965e-05
0.029370004610223998,-0.0009522011394895447,-7.580428479676211e-05
0.02901534491423715,-0.0009376048021084293,-7.627673628216161e-05
0.028638014405118938,-0.0009231914622785904,-7.674193534825836e-05
0.028252645843835928,-0.0009089687972163517,-7.719997541313209e-05
0.0278744711000487,-0.0008949370179803805,-7.765095186693128e-05
0.027519003137193885,-0.0008810886494210698,-7.809495828378165e-05
0.027201697424226998,-0.0008674084742807146,-7.853208256470709e-05
0.02693759445221081,-0.0008538736513116051,-7.896240309610517e-05
0.026740947781239248,-0.0008404540157532426,-7.938598501287138e-05
0.026624846470823867,-0.0008271125671902268,-7.980287665860726e-05
0.026600846930138398,-0.0008138061438399863,-8.021310633636482e-05
0.02667863522835871,-0.000800486273300362,-8.06166794406499e-05
0.026865743233969574,-0.00078710017868478,-8.101357605364618e-05
0.027167338551441985,-0.0007735919082384271,-8.140374907537698e-05
0.027586100101869456,-0.0007599035485750992,-8.178712293958036e-05
0.028122181123641975,-0.0007459764782687214,-8.216359294629132e-05
0.0287732524410611,-0.0007317526198775456,-8.253302522082789e-05
0.029534613788515147,-0.0007171756533201515,-8.289525728912731e-05
0.030399360634949857,-0.0007021921597142852,-8.325009924238592e-05
0.031358596305865134,-0.0006867526704790814,-8.359733544993426e-05
0.03240168125302228,-0.0006708126010893596,-8.393672676782637e-05
0.03351651184696715,-0.0006543330528143623,-8.42680131813023e-05
0.034689820674568286,-0.0006372814696839784,-8.459091681192687e-05
0.0359074897102006,-0.0006196321420877862,-8.490514521486982e-05
0.037154867253354776,-0.0006013665528468973,-8.521039488860348e-05
0.03841707983060169,-0.0005824735660759082,-8.550635491833419e-05
0.03967933180400904,-0.0005629494631672555,-8.579271067564498e-05
0.04092718779739934,-0.0005427978332669034,-8.606914749975352e-05
0.042146835460768826,-0.0005220293274523614,-8.633535428993333e-05
0.04332532785140664,-0.0005006612866243175,-8.65910269434525e-05
0.04445080493174537,-0.0004787172534285295,-8.683587157846571e-05
0.045512691518186495,-0.0004562263793160465,-8.706960748665185e-05
0.04650186500280965,-0.00043322274018579745,-8.729196976652731e-05
0.047410782938592425,-0.0004097445782004469,-8.750271159612387e-05
0.04823356104751849,-0.0003858334922039192,-8.770160611372496e-05
0.048965996953697265,-0.00036153360270361524,-8.788844788745184e-05
0.049605541751525685,-0.0003368907180273095,-8.806305396763457e-05
0.05015122720455548,-0.0003119515257882892,-8.822526452858848e-05
0.050603558992947335,-0.0002867628292389135,-8.837494311734528e-05
0.05096438638613479,-0.00026137084289414296,-8.851197653537854e-05
0.05123675760202431,-0.0002358205568971032,-8.863627438532636e-05
0.0514247685621699,-0.00021015517535605464,-8.874776831838965e-05
0.051533410229205,-0.0001844156306582109,-8.88464110198932e-05
0.05156841618073682,-0.00015864017405572544,-8.893217497107168e-05
0.05153610881029894,-0.0001328640428079665,-8.900505102528761e-05
0.05144324123466313,-0.00010711920529672596,-8.906504683731379e-05
0.05129683353537356,-8.14341866042168e-05,-8.911218518528903e-05
0.05110400586078257,-5.583397675517776e-05,-8.914650222612888e-05
0.050871815118076515,-3.034002151046299e-05,-8.91680457256953e-05
0.05060710403674952,-4.9702917217564805e-06,-8.917687330400335e-05
0.05031637059110729,2.0260576935207723e-05,-8.917305073269998e-05
0.05000566374513617,4.5341085519268586e-05,-8.915665031708635e-05
0.049680509914242596,7.026262893411328e-05,-8.9127749388473e-05
0.04934587333071607,9.501922474535295e-05,-8.908642892505314e-05
0.04900615175374725,0.00011960723101646878,-8.903277231111268e-05
0.04866520663601889,0.00014402507061391033,-8.896686423570508e-05
0.048326424595032176,0.0001682729784216731,-8.888878972344619e-05
0.0479928049754982,0.00019235278581430568,-8.87986332823872e-05
0.04766706583162622,0.0002162677535160868,-8.86964781475546e-05
0.047351757551618134,0.00024002245936189789,-8.85824055943351e-05
0.047049370469354736,0.0002636227413671411,-8.845649429415283e-05
0.0467624215991934,0.00028707568938427815,-8.831881968646497e-05
0.046493507106932945,0.00031038967156080973,-8.81694533462287e-05
0.04624531143103545,0.0003335743761953018,-8.800846233428967e-05
0.04602057018351241,0.00035664084659893877,-8.78359085285911e-05
0.045821990376841024,0.00037960148673902715,-8.765184794525662e-05
0.04565213655704813,0.00040247001847249945,-8.745633006895373e-05
0.045513294381185704,0.00042526137620705793,-8.724939722028385e-05
0.045407324207130416,0.000447991530854137,-8.703108399351855e-05
0.04533551706827274,0.00047067724117298774,-8.680141680051177e-05
0.045298464738423104,0.0004933357366246617,-8.656041355606236e-05
0.04529595431700845,0.0005159843413885196,-8.630808353655906e-05
0.04532689518681519,0.0005386400537644755,-8.604442743777081e-05
0.04538928298859457,0.0005613190983083279,-8.57694376497526e-05
0.04548020335973956,0.0005840364698954113,-8.548309875770166e-05
0.045595877798466355,0.0006068054901849628,-8.518538826768157e-05
0.04573175270424082,0.0006296373978106396,-8.487627754568268e-05
0.04588262858042083,0.000652540993131805,-8.455573294794707e-05
0.04604282084118733,0.0006755223554872071,-8.422371711079231e-05
0.04620633947441834,0.0006985846455661085,-8.388019036052898e-05
0.04636707347113458,0.0007217279988024968,-8.352511219943683e-05
0.04651896697282899,0.0007449495089134877,-8.315844282250783e-05
0.0466561768374792,0.0007682432948660648,-8.278014462156295e-05
0.046773205865455934,0.0007916006405417986,-8.239018363771098e-05
0.04686501147762918,0.0008150101948775698,-8.198853092885614e-05
0.04692709358995265,0.0008384582211444653,-8.157516382485063e-05
0.04695556574770092,0.0008619288859788787,-8.11500670480698e-05
0.04694721122002203,0.0008854045802208094,-8.071323368151988e-05
0.04689952339545121,0.0009088662638746778,-8.026466597049601e-05
0.04681072925032491,0.0009322938270361218,-7.980437594776832e-05
0.046679796186089945,0.0009556664583952255,-7.933238587641047e-05
0.046506425359001985,0.0009789630137814985,-7.884872850836629e-05
0.0462910367816284,0.0010021623793166562,-7.835344716009175e-05
0.046034750867603114,0.001025243826228964,-7.784659560870534e-05
0.04573936786967254,0.001048187355913283,-7.732823781316978e-05
0.04540734353503794,0.0010709740337644606,-7.679844746575034e-05
0.04504175868141536,0.001093586309318574,-7.625730737997958e-05
0.04464628179496886,0.00111600831943767,-7.570490872279052e-05
0.04422512465490157,0.0011382261710501376,-7.514135010016856e-05
0.0437829900223279,0.0011602281997194449,-7.456673650747616e-05
0.0433250088290046,0.001182005199432278,-7.398117815768822e-05
0.042856664093026,0.0012035506176627858,-7.338478920341445e-05
0.04238370032042155,0.0012248607087661477,-7.277768637180722e-05
0.04191201896192593,0.0012459346385867345,-7.2159987534969e-05
0.041447561422382796,0.0012667745336828117,-7.153181024190161e-05
0.04099618187161396,0.0012873854695063108,-7.089327024110433e-05
0.04056351393815733,0.0013077753934587536,-7.024448002536306e-05
0.04015483771912625,0.0013279549813730745,-6.95855474316551e-05
0.039774954451833926,0.0013479374294158145,-6.891657432895789e-05
0.0394280747549898,0.0013677381867175204,-6.823765542492456e-05
0.03911772326403796,0.0013873746362222774,-6.75488772191896e-05
0.03884665887376704,0.0014068657317567285,-6.685031712719485e-05
0.03861680693746999,0.0014262315982095377,-6.614204279470328e-05
0.03842919922642893,0.0014454930997505125,-6.542411162021326e-05
0.03828391963582954,0.0014646713794660771,-6.469657050040911e-05
0.03818005657209032,0.001483787373518057,-6.395945581216308e-05
0.038115664408759825,0.0015028613037632696,-6.321279364284275e-05
0.03808773679703285,0.0015219121540647178,-6.245660027838575e-05
0.03809219608404228,0.0015409571372849867,-6.169088295554833e-05
0.038123905760100794,0.0015600111627460224,-6.091564088054058e-05
0.03817671442803924,0.0015790863177930574,-6.013086651040581e-05
0.03824353854760239,0.001598191381036968,-5.93365470856983e-05
0.03831648779398393,0.0016173313876223646,-5.853266639353347e-05
0.03838703327189064,0.0016365072678888332,-5.771920672965567e-05
0.038446216331815414,0.0016557155802897597,-5.6896151017611026e-05
0.03848489371439837,0.0016749483578013132,-5.606348503308826e-05
0.03849401176788659,0.0016941930841718844,-5.522119967259496e-05
0.03846489860747878,0.0017134328117657258,-5.436929319861055e-05
0.03838956010079569,0.0017326464264427945,-5.3507773389058424e-05
0.038260964959821064,0.0017518090577079487,-5.263665951802074e-05
0.038073306074560526,0.001770892625466544,-5.175598409722712e-05
0.037822228882873454,0.0017898665092059025,-5.086579431355901e-05
0.037505021960733465,0.0018086983219168043,-4.996615310577833e-05
0.03712076823595055,0.0018273547694659753,-4.9057139832932635e-05
0.036670455485471536,0.0018458025753963307,-4.813885049671706e-05
0.036157042277070825,0.0018640094498369663,-4.721139749040873e-05
0.03558547231326782,0.001881945078484551,-4.627490885832835e-05
0.03496262819767151,0.0018995821036122858,-4.532952706280414e-05
0.034297215952980985,0.001916897064649949,-4.437540727073858e-05
0.033599574292050474,0.0019338712622112067,-4.341271518902329e-05
0.03288140706525203,0.0019504915075505324,-4.244162449658285e-05
0.03215544289098334,0.001966750720039591,-4.146231393968532e-05
0.03143503274737263,0.00198264833894918,-4.047496417493813e-05
0.030733703745162516,0.0019981905230723137,-3.947975445943276e-05
0.030064693177077464,0.002013390122302874,-3.8476859298088965e-05
0.029440488740853834,0.002028266417782357,-3.746644516306766e-05
0.028872398285721156,0.0020428446395390006,-3.644866739873732e-05
0.02837016751751021,0.0020571552809898084,-3.542366741860512e-05
0.02794165885003638,0.0020712332375816952,-3.439157028896224e-05
0.02759259967734023,0.0020851168022135392,-3.335248277901344e-05
0.027326403596926438,0.002098846553032106,-3.2306491940202026e-05
0.027144063700813587,0.002112464169856541,-3.1253664259479867e-05
0.027044113615542514,0.00212601121418563,-3.0194045413469324e-05
0.027022649897026456,0.002139527905063772,-2.9127660633656972e-05
0.02707340882545644,0.002153051919744393,-2.805451567745493e-05
0.027187892140597386,0.0021666172449859066,-2.6974598386272356e-05
