frame_number,force
0,542.9523353490929
1,542.9657456634573
2,542.9794261018486
3,542.993392775632
4,543.0076621952746
5,543.0222512366622
6,543.0371771049907
7,543.0524572943679
8,543.0681095412885
9,543.0841517702639
10,543.1006020301819
11,543.1174784204551
12,543.1347990065142
13,543.1525817247209
14,543.1708442775074
15,543.1896040206775
16,543.2088778461252
17,543.2286820641765
18,543.2490322898126
19,543.2699433360694
20,543.2914291163024
21,543.3135025554033
22,543.33617550902
23,543.3594586895689
24,543.3833615981109
25,543.4078924616283
26,543.4330581756618
27,543.458864252604
28,543.4853147761728
29,543.5124123626757
30,543.5401581296087
31,543.5685516720224
32,543.5975910471789
33,543.627272768346
34,543.6575918088628
35,543.68854161757
36,543.720114146352
37,543.7522998900376
38,543.7850879383419
39,543.8184660389289
40,543.852420670102
41,543.8869371211309
42,543.9219995778082
43,543.9575912105256
44,543.9936942621713
45,544.0302901336346
46,544.0673594656464
47,544.1048822167305
48,544.1428377378569
49,544.1812048448651
50,544.2199618899265
51,544.2590868333801
52,544.2985573173321
53,544.3383507424346
54,544.3784443491098
55,544.4188153041232
56,544.4594407930038
57,544.500298118425
58,544.5413648042268
59,544.5826187042421
60,544.6240381145395
61,544.6656018871809
62,544.7072895432241
63,544.7490813824561
64,544.790958587063
65,544.8329033160021
66,544.874898786344
67,544.9169293376282
68,544.9589804756685
69,545.0010388933017
70,545.0430924669735
71,545.0851302293427
72,545.1271423189787
73,545.1691199087795
74,545.2110551152367
75,545.2529408912819
76,545.2947709059879
77,545.3365394144545
78,545.3782411206375
79,545.4198710350951
80,545.4614243292633
81,545.5028961881735
82,545.5442816641314
83,545.5855755343459
84,545.6267721656054
85,545.6678653889009
86,545.7088483865144
87,545.7497135936304
88,545.7904526160527
89,545.8310561651459
90,545.8715140106193
91,545.9118149512828
92,545.95194680359
93,545.9918964077063
94,546.0316496508302
95,546.0711915073063
96,546.1105060948147
97,546.1495767458634
98,546.1883860939872
99,546.2269161741943
100,546.2651485370524
101,546.3030643753744
102,546.3406446618941
103,546.3778702956733
104,546.4147222543556
105,546.4511817490271
106,546.4872303787764
107,546.5228502830738
108,546.5580242912456
109,546.5927360688191
110,546.6269702600982
111,546.6607126255454
112,546.6939501722392
113,546.7266712761539
114,546.7588657958054
115,546.790525177213
116,546.8216425499487
117,546.852212813686
118,546.8822327146345
119,546.9117009116742
120,546.9406180326315
121,546.9689867215997
122,546.9968116783114
123,547.0240996903311
124,547.050859658458
125,547.077102615367
126,547.1028417372083
127,547.1280923476262
128,547.1528719133833
129,547.1772000302268
130,547.2010983967342
131,547.2245907730389
132,547.2477029211435
133,547.270462524036
134,547.2928990815487
135,547.3150437814064
136,547.3369293442613
137,547.3585898419462
138,547.3800604887779
139,547.4013774064819
140,547.4225773641095
141,547.4436974950465
142,547.4647749938325
143,547.4858467961092
144,547.5069492455772
145,547.5281177521789
146,547.5493864457502
147,547.5707878292505
148,547.5923524354794
149,547.6141084909033
150,547.6360815899448
151,547.6582943829765
152,547.6807662813802
153,547.7035131833265
154,547.7265472244632
155,547.7498765584747
156,547.7735051731842
157,547.797432747927
158,547.8216545570118
159,547.84616142235
160,547.8709397162705
161,547.8959714136361
162,547.9212341911109
163,547.94670157095
164,547.9723431066398
165,547.9981246076517
166,548.0240084002653
167,548.0499536209827
168,548.0759165386196
169,548.1018509007778
170,548.1277083001917
171,548.1534385564797
172,548.1789901090502
173,548.2043104171848
174,548.2293463635392
175,548.2540446573091
176,548.2783522329744
177,548.302216639937
178,548.3255864179488
179,548.3484114534562
180,548.370643312969
181,548.3922355509144
182,548.4131439906356
183,548.4333269779155
184,548.4527456066998
185,548.4713639168315
186,548.4891490636841
187,548.506071459496
188,548.5221048859668
189,548.5372265774652
190,548.5514172743117
191,548.5646612461674
192,548.5769462865038
193,548.5882636801077
194,548.5986081461697
195,548.6079777596128
196,548.616373853192
197,548.6238009028182
198,548.6302663985181
199,548.63578070328
200,548.6403569017479
201,548.6440106404234
202,548.6467599607395
203,548.6486251259735
204,548.6496284424496
205,548.6497940749647
206,548.6491478561126
207,548.647717089349
208,548.6455303462449
209,548.6426172592847
210,548.6390083124925
211,548.6347346328446
212,548.6298277857569
213,548.6243195779228
214,548.6182418705662
215,548.6116264058685
216,548.604504648929
217,548.5969076469931
218,548.588865906964
219,548.580409291711
220,548.5715669354471
221,548.5623671780598
222,548.5528375174557
223,548.5430045779158
224,548.532894091646
225,548.5225308903762
226,548.5119389039488
227,548.5011411632285
228,548.4901598053693
229,548.4790160803749
230,548.4677303585346
231,548.4563221383952
232,548.4448100545695
233,548.4332118843515
234,548.4215445520822
235,548.4098241305513
236,548.3980658392858
237,548.386284040039
238,548.3744922298118
239,548.3627030313237
240,548.3509281804558
241,548.3391785102112
242,548.327463931087
243,548.3157934080159
244,548.3041749339876
245,548.2926155002868
246,548.2811210633431
247,548.2696965085122
248,548.2583456114681
249,548.247070998085
250,548.2358741038381
251,548.224755134073
252,548.2137130268712
253,548.2027454203777
254,548.1918486261776
255,548.1810176097534
256,548.1702459783916
257,548.159525976361
258,548.1488484870139
259,548.1382030417286
260,548.1275778360113
261,548.1169597532125
262,548.1063343962896
263,548.0956861281894
264,548.0849981217846
265,548.0742524204728
266,548.0634300102746
267,548.0525109036395
268,548.0414742345325
269,548.0302983639288
270,548.0189609944949
271,548.0074392927467
272,547.9957100163456
273,547.9837496437409
274,547.9715345033094
275,547.9590408995153
276,547.9462452342904
277,547.9331241226391
278,547.9196545020966
279,547.9058137357929
280,547.8915797085541
281,547.8769309150197
282,547.8618465385082
283,547.846306519476
284,547.8302916128983
285,547.8137834346614
286,547.7967644979816
287,547.7792182419702
288,547.761129055649
289,547.7424823016255
290,547.7232643438392
291,547.703462583252
292,547.6830655043971
293,547.6620627346748
294,547.6404451172892
295,547.6182047977451
296,547.5953353228948
297,547.5718317507551
298,547.5476907687691
299,547.5229108179084
300,547.4974922200778
301,547.4714373067101
302,547.4447505468587
303,547.4174386730717
304,547.3895108027617
305,547.3609785519963
306,547.3318561379423
307,547.3021604657573
308,547.2719111955131
309,547.2411307847764
310,547.2098445028848
311,547.1780804137949
312,547.1458693253254
313,547.1132447032697
314,547.0802425492242
315,547.0469012414729
316,547.0132613390798
317,546.979365350282
318,546.945257467078
319,546.9109832683957
320,546.8765893944025
321,546.8421231944807
322,546.80763235143
323,546.7731644848099
324,546.7387667370346
325,546.7044853466548
326,546.6703652139664
327,546.6364494645605
328,546.6027790167282
329,546.5693921587769
330,546.5363241421829
331,546.5036067960633
332,546.4712681679289
333,546.4393321953263
334,546.40781841284
335,546.376741698947
336,546.3461120672516
337,546.3159345064907
338,546.2862088732105
339,546.2569298401538
340,546.2280869022983
341,546.1996644414135
342,546.1716418490431
343,546.143993706817
344,546.1166900218807
345,546.089696514207
346,546.062974951837
347,546.0364835295732
348,546.0101772860401
349,545.9840085532047
350,545.9579274316052
351,545.9318822839598
352,545.905820239739
353,545.8796877036968
354,545.8534308622397
355,545.8269961827554
356,545.8003309024159
357,545.7733835042828
358,545.7461041796321
359,545.7184452761305
360,545.6903617317
361,545.6618114937359
362,545.6327559230372
363,545.6031601813821
364,545.5729936010964
365,545.5422300344316
366,545.5108481802581
367,545.4788318853143
368,545.4461704168111
369,545.4128587026802
370,545.3788975354508
371,545.3442937358544
372,545.3090602728099
373,545.2732163372647
374,545.2367873681771
375,545.1998050295492
376,545.1623071378409
377,545.124337539425
378,545.0859459379994
379,545.0471876720704
380,545.0081234428769
381,544.9688189936423
382,544.929344741857
383,544.8897753672082
384,544.8501893585681
385,544.810668523947
386,544.771297467476
387,544.7321630373832
388,544.6933537488057
389,544.6549591852437
390,544.6170693825829
391,544.5797741999335
392,544.543162682008
393,544.5073224180668
394,544.4723389022652
395,544.4382948996804
396,544.4052698218036
397,544.3733391150677
398,544.3425736660005
399,544.3130392268415
400,544.2847958660673
401,544.2578974491277
402,544.2323911553036
403,544.2083170365734
404,544.185707623889
405,544.1645875857611
406,544.1449734436378
407,544.1268733479894
408,544.1102869180235
409,544.0952051466547
410,544.0816103710099
411,544.0694763075935
412,544.058768150379
413,544.049442729483
414,544.0414487277421
415,544.0347269524821
416,544.0292106598721
417,544.0248259291993
418,544.0214920841116
419,544.0191221576566
420,544.0176233979038
421,544.0168978108743
422,544.0168427371384
423,544.0173514576928
424,544.0183138237495
425,544.0196169041526
426,544.0211456436213
427,544.0227835251544
428,544.0244132308516
429,544.0259172969103
430,544.0271787600949
431,544.0280817939764
432,544.0285123335517
433,544.0283586866212
434,544.0275121297791
435,544.0258674862711
436,544.0233236823951
437,544.0197842785362
438,544.0151579703873
439,544.0093590556343
440,544.0023078616075
441,543.9939311301308
442,543.9841623567894
443,543.972942082856
444,543.9602181390158
445,543.9459458407127
446,543.930088135347
447,543.9126157016952
448,543.8935070019182
449,543.8727482865768
450,543.8503335535446
451,543.8262644626581
452,543.800550209014
453,543.7732073585082
454,543.7442596492764
455,543.7137377622889
456,543.6816790637714
457,543.6481273216216
458,543.6131323977368
459,543.5767499182786
460,543.5390409244843
461,543.500071507533
462,543.4599124317265
463,543.4186387503902
464,543.3763294183502
465,543.333066903911
466,543.288936802295
467,543.2440274517924
468,543.1984295536291
469,543.1522357968702
470,543.1055404903356
471,543.0584392041051
472,543.0110284233294
473,542.9634052166668
474,542.9156669210554
475,542.8679108440878
476,542.8202339849977
477,542.7727327749415
478,542.7255028367105
479,542.6786387634316
480,542.6322339154689
481,542.5863802346124
482,542.5411680745574
483,542.4966860465895
484,542.4530208793774
485,542.4102572916847
486,542.3684778764867
487,542.3277629944361
488,542.2881906741101
489,542.2498365161944
490,542.2127735987929
491,542.177072381328
492,542.1428006048313
493,542.1100231866712
494,542.0788021077811
495,542.0491962902348
496,542.0212614629409
497,541.9950500138176
498,541.9706108281175
499,541.9479891139961
500,541.9272262173318
501,541.9083594281059
502,541.8914217807328
503,541.8764418509606
504,541.8634435523086
505,541.852445935154
506,541.8434629912488
507,541.8365034657538
508,541.8315706782843
509,541.8286623542809
510,541.8277704682632
511,541.8288811009518
512,541.8319743127169
513,541.8370240362405
514,541.843997991616
515,541.8528576273251
516,541.8635580905939
517,541.8760482304838
518,541.8902706366483
519,541.906161716007
520,541.9236518087711
521,541.9426653444756
522,541.9631210380309
523,541.9849321252223
524,542.0080066364002
525,542.0322477063974
526,542.0575539182831
527,542.0838196785857
528,542.1109356219852
529,542.1387890439804
530,542.1672643604339
531,542.1962435930137
532,542.2256068792732
533,542.2552330054726
534,542.2849999593453
535,542.3147854989758
536,542.3444677330095
537,542.3739257068024
538,542.4030399888784
539,542.4316932519769
540,542.4597708429047
541,542.4871613356091
542,542.5137570625452
543,542.5394546203372
544,542.5641553465593
545,542.5877657651104
546,542.6101979982091
547,542.6313701434314
548,542.6512066141886
549,542.6696384415736
550,542.6866035349159
551,542.7020468980786
552,542.7159207986392
553,542.7281848876249
554,542.7388062684531
555,542.7477595150222
556,542.7550266401612
557,542.7605970165785
558,542.7644672529434
559,542.7666410278597
560,542.7671288844912
561,542.7659479888414
562,542.7631218552459
563,542.7586800431792
564,542.7526578295962
565,542.7450958606314
566,542.7360397857544
567,542.7255398767265
568,542.713650633153
569,542.700430376141
570,542.6859408315111
571,542.6702467041306
572,542.6534152452282
573,542.6355158148876
574,542.6166194421554
575,542.5967983852445
576,542.5761256942161
577,542.5546747783765
578,542.5325189805408
579,542.5097311603647
580,542.4863832891723
581,542.4625460590693
582,542.438288509379
583,542.4136776733188
584,542.3887782473959
585,542.3636522855751
586,542.338358920178
587,542.3129541117945
588,542.2874904308443
589,542.262016873269
590,542.2365787120925
591,542.2112173857032
592,542.1859704230242
593,542.1608714051964
594,542.1359499629108
595,542.111231808243
596,542.0867387998973
597,542.0624890409363
598,542.0384970079804
599,542.0147737103304
600,541.9913268767194
601,541.9681611667605
602,541.9452784038199
603,541.9226778259522
604,541.9003563513953
605,541.8783088546995
606,541.8565284490119
607,541.8350067697965
608,541.8137342555734
609,541.7927004218967
610,541.7718941254113
611,541.75130381527
612,541.7309177695314
613,541.7107243146016
614,541.690712026421
615,541.6708699128917
616,541.6511875778925
617,541.6316553680097
618,541.6122645036877
619,541.5930071967189
620,541.5738767557833
621,541.554867681371
622,541.535975751251
623,541.5171980978009
624,541.4985332786858
625,541.4799813424664
626,541.4615438908971
627,541.4432241400361
628,541.4250269825744
629,541.4069590537301
630,541.3890288025541
631,541.371246569604
632,541.3536246708993
633,541.3361774871194
634,541.3189215561059
635,541.3018756656556
636,541.2850609424968
637,541.2685009328287
638,541.2522216701584
639,541.2362517270477
640,541.2206222483162
641,541.2053669640391
642,541.1905221812854
643,541.1761267538074
644,541.162222028707
645,541.1488517686544
646,541.1360620478811
647,541.1239011201837
648,541.1124192575498
649,541.1016685586276
650,541.0917027270026
651,541.082576820078
652,541.074346970207
653,541.0670700804228
654,541.060803497534
655,541.0556046656525
656,541.0515307636896
657,541.0486383309772
658,541.0469828854904
659,541.046618538879
660,541.0475976119287
661,541.0499702536918
662,541.0537840674407
663,541.0590837465693
664,541.0659107234177
665,541.0743028338031
666,541.0842939998544
667,541.0959139335357
668,541.1091878629933
669,541.1241362836994
670,541.1407747364498
671,541.159113614457
672,541.1791580018995
673,541.2009075464565
674,541.224356368799
675,541.2494930124975
676,541.2763004378952
677,541.3047560629795
678,541.3348318533972
679,541.3664944628438
680,541.3997054242634
681,541.434421391522
682,541.4705944303843
683,541.508172356742
684,541.54709911917
685,541.5873152220088
686,541.6287581843227
687,541.6713630293339
688,541.715062798419
689,541.759789083467
690,541.8054725711061
691,541.8520435917658
692,541.8994326658544
693,541.9475710389665
694,541.9963911982904
695,542.0458273630677
696,542.0958159427947
697,542.146295957969
698,542.1972094197582
699,542.2485016666834
700,542.3001216576905
701,542.3520222216569
702,542.4041602635781
703,542.4564969275631
704,542.5089977165088
705,542.5616325682066
706,542.6143758877633
707,542.6672065364367
708,542.7201077771398
709,542.7730671771436
710,542.8260764690948
711,542.8791313722916
712,542.9322313769464
713,542.9853794947569
714,543.0385819794865
715,543.0918480214385
716,543.1451894197232
717,543.1986202361811
718,543.2521564348322
719,543.3058155107786
720,543.3596161124658
721,543.413577660919
722,543.467719969015
723,543.5220628632579
724,543.5766258102555
725,543.6314275502036
726,543.6864857399358
727,543.7418166081583
728,543.7974346253185
729,543.8533521902583
730,543.9095793354858
731,543.9661234526201
732,544.0229890393857
733,544.0801774694884
734,544.1376867867835
735,544.1955115254005
736,544.2536425580266
737,544.3120669753031
738,544.3707679998176
739,544.4297249380593
740,544.488913172991
741,544.5483041990087
742,544.6078657001835
743,544.6675616717027
744,544.727352583279
745,544.7871955822086
746,544.8470447329961
747,544.9068512901176
748,544.9665640005591
749,545.0261294331398
750,545.085492332082
751,545.1445959924371
752,545.2033826546826
753,545.2617939153694
754,545.3197711506323
755,545.3772559498772
756,545.4341905576082
757,545.4905183216526
758,545.546184145786
759,545.6011349442024
760,545.6553200947782
761,545.7086918878364
762,545.7612059670936
763,545.8128217594859
764,545.8635028904167
765,545.9132175805086
766,545.9619390192075
767,546.0096457098887
768,546.0563217809218
769,546.101957257757
770,546.1465482922417
771,546.1900973465307
772,546.2326133297115
773,546.2741116857453
774,546.3146144317224
775,546.3541501457848
776,546.392753904369
777,546.4304671686759
778,546.4673376203955
779,546.5034189466112
780,546.538770573715
781,546.5734573503091
782,546.6075491794909
783,546.6411206015845
784,546.6742503293327
785,546.707020738728
786,546.7395173197683
787,546.771828092192
788,546.8040429915574
789,546.8362532310301
790,546.8685506442046
791,546.901027014388
792,546.933773395981
793,546.9668794337631
794,547.0004326860596
795,547.034517958143
796,547.0692166529396
797,547.104606146972
798,547.1407591999431
799,547.177743406044
800,547.21562069395
801,547.2544468809781
802,547.2942712854606
803,547.3351364002314
804,547.3770776291561
805,547.4201230877827
806,547.4642934684526
807,547.5096019697063
808,547.5560542896164
809,547.6036486826509
810,547.6523760794862
811,547.7022202687497
812,547.7531581390904
813,547.8051599794301
814,547.8581898348565
815,547.9122059154228
816,547.9671610548814
817,548.0230032157149
818,548.0796760356163
819,548.1371194091677
820,548.1952700974176
821,548.2540623577627
822,548.3134285868964
823,548.3732999702218
824,548.4336071316343
825,548.4942807778282
826,548.5552523313811
827,548.6164545471064
828,548.6778221067425
829,548.7392921880116
830,548.8008050052229
831,548.862304319536
832,548.9237379174042
833,548.9850580555615
834,549.0462218704549
835,549.1071917494944
836,549.1679356611043
837,549.2284274405189
838,549.2886470286828
839,549.3485806624951
840,549.4082210158118
841,549.4675672917065
842,549.5266252670358
843,549.5854072902541
844,549.6439322329741
845,549.702225395336
846,549.7603183648718
847,549.8182488281072
848,549.8760603337031
849,549.9338020057279
850,549.9915282058184
851,550.0492981434159
852,550.1071754338403
853,550.1652276046478
854,550.2235255516154
855,550.2821429469807
856,550.3411556041357
857,550.4006408044952
858,550.4606765935374
859,550.5213410541774
860,550.5827115668138
861,550.6448640662486
862,550.7078723056693
863,550.7718071369469
864,550.8367358151922
865,550.9027213344508
866,550.9698218005705
867,551.0380898462081
868,551.1075720914872
869,551.1783086523551
870,551.2503326976208
871,551.3236700549742
872,551.3983388657687
873,551.4743492879214
874,551.5517032460009
875,551.6303942274861
876,551.7104071242586
877,551.7917181185139
878,551.874294612333
879,551.9580952001895
880,552.0430696839426
881,552.1291591304598
882,552.2162959726811
883,552.3044041552272
884,552.3933993254017
885,552.483189069848
886,552.5736731966026
887,552.6647440619552
888,552.7562869411599
889,552.8481804415077
890,552.9402969557341
891,553.0325031534699
892,553.1246605084687
893,553.2166258595464
894,553.3082520033024
895,553.3993883165526
896,553.4898814059007
897,553.5795757811211
898,553.6683145483876
899,553.7559401191678
900,553.8422949308058
901,553.9272221751637
902,554.0105665318464
903,554.0921749022729
904,554.1718971402462
905,554.2495867740861
906,554.3251017151858
907,554.3983049481016
908,554.4690651978418
909,554.5372575707568
910,554.6027641661087
911,554.6654746558409
912,554.7252868302273
913,554.7821071072544
914,554.8358510040731
915,554.8864435697805
916,554.9338197798037
917,554.9779248927725
