frame_number,force
0,542.9523353378565
1,542.965745652224
2,542.9794260906122
3,542.9933927643866
4,543.0076621840151
5,543.0222512253839
6,543.03717709369
7,543.052457283042
8,543.0681095299359
9,543.0841517588834
10,543.1006020187731
11,543.117478409018
12,543.1347989950493
13,543.1525817132297
14,543.1708442659916
15,543.1896040091398
16,543.2088778345689
17,543.2286820526051
18,543.2490322782302
19,543.2699433244799
20,543.2914291047093
21,543.3135025438099
22,543.3361754974289
23,543.3594586779818
24,543.3833615865287
25,543.407892450051
26,543.4330581640885
27,543.4588642410332
28,543.4853147646024
29,543.5124123511036
30,543.5401581180323
31,543.5685516604389
32,543.5975910355847
33,543.6272727567376
34,543.6575917972365
35,543.6885416059217
36,543.7201141346774
37,543.7522998783319
38,543.7850879266002
39,543.8184660271461
40,543.8524206582721
41,543.8869371092478
42,543.9219995658655
43,543.9575911985169
44,543.9936942500899
45,544.0302901214736
46,544.067359453399
47,544.1048822043897
48,544.1428377254159
49,544.1812048323181
50,544.2199618772687
51,544.2590868206074
52,544.2985573044404
53,544.3383507294195
54,544.3784443359671
55,544.4188152908484
56,544.4594407795933
57,544.5002981048756
58,544.5413647905362
59,544.5826186904094
60,544.6240381005645
61,544.6656018730647
62,544.7072895289696
63,544.7490813680677
64,544.7909585725465
65,544.8329033013649
66,544.8748987715949
67,544.916929322777
68,544.9589804607265
69,545.0010388782808
70,545.0430924518865
71,545.0851302142028
72,545.1271423037989
73,545.1691198935732
74,545.2110551000178
75,545.2529408760647
76,545.2947708907867
77,545.3365393992837
78,545.3782411055114
79,545.4198710200272
80,545.4614243142669
81,545.5028961732608
82,545.5442816493135
83,545.5855755196332
84,545.6267721510079
85,545.6678653744281
86,545.7088483721749
87,545.7497135794314
88,545.7904526020001
89,545.8310561512443
90,545.8715139968721
91,545.9118149376925
92,545.9519467901586
93,545.9918963944353
94,546.0316496377205
95,546.0711914943579
96,546.1105060820265
97,546.1495767332328
98,546.1883860815105
99,546.2269161618673
100,546.2651485248698
101,546.3030643633309
102,546.3406446499838
103,546.3778702838903
104,546.4147222426941
105,546.4511817374813
106,546.4872303673403
107,546.5228502717406
108,546.5580242800077
109,546.5927360576676
110,546.626970249023
111,546.6607126145357
112,546.6939501612839
113,546.7266712652415
114,546.7588657849244
115,546.790525166352
116,546.8216425390966
117,546.8522128028318
118,546.8822327037673
119,546.9117009007839
120,546.9406180217084
121,546.9689867106346
122,546.9968116672961
123,547.0240996792585
124,547.0508596473211
125,547.0771026041594
126,547.1028417259243
127,547.1280923362607
128,547.1528719019315
129,547.1772000186843
130,547.2010983850975
131,547.2245907613049
132,547.2477029093095
133,547.2704625120998
134,547.2928990695082
135,547.3150437692591
136,547.3369293320051
137,547.3585898295788
138,547.3800604762971
139,547.401377393886
140,547.4225773513973
141,547.443697482217
142,547.4647749808854
143,547.485846783045
144,547.5069492323973
145,547.5281177388858
146,547.5493864323471
147,547.5707878157411
148,547.5923524218681
149,547.6141084771954
150,547.6360815761464
151,547.6582943690946
152,547.6807662674224
153,547.703513169301
154,547.7265472103783
155,547.7498765443387
156,547.7735051590046
157,547.7974327337113
158,547.8216545427671
159,547.8461614080832
160,547.8709397019884
161,547.8959713993448
162,547.9212341768167
163,547.9467015566593
164,547.9723430923592
165,547.9981245933883
166,548.024008386026
167,548.049953606774
168,548.0759165244475
169,548.1018508866479
170,548.1277082861089
171,548.1534385424488
172,548.1789900950755
173,548.2043104032704
174,548.2293463496891
175,548.2540446435277
176,548.2783522192666
177,548.3022166263083
178,548.3255864044053
179,548.3484114400044
180,548.370643299616
181,548.3922355376667
182,548.4131439774998
183,548.4333269648976
184,548.4527455938047
185,548.4713639040634
186,548.4891490510458
187,548.5060714469896
188,548.5221048735929
189,548.5372265652232
190,548.5514172622003
191,548.5646612341841
192,548.5769462746457
193,548.5882636683713
194,548.5986081345509
195,548.6079777481069
196,548.6163738417937
197,548.6238008915213
198,548.6302663873163
199,548.6357806921661
200,548.6403568907141
201,548.6440106294618
202,548.6467599498416
203,548.6486251151304
204,548.6496284316518
205,548.6497940642016
206,548.649147845373
207,548.6477170786212
208,548.6455303355164
209,548.6426172485425
210,548.6390083017233
211,548.6347346220351
212,548.629827774894
213,548.6243195669937
214,548.6182418595585
215,548.611626394771
216,548.6045046377316
217,548.5969076356868
218,548.5888658955406
219,548.5804092801635
220,548.571566923769
221,548.5623671662454
222,548.5528375055001
223,548.543004565815
224,548.532894079397
225,548.5225308779771
226,548.5119388913989
227,548.5011411505274
228,548.4901597925168
229,548.4790160673705
230,548.4677303453778
231,548.456322125086
232,548.4448100411083
233,548.4332118707395
234,548.4215445383209
235,548.4098241166425
236,548.3980658252314
237,548.3862840258411
238,548.374492215473
239,548.3627030168467
240,548.3509281658439
241,548.3391784954683
242,548.3274639162171
243,548.3157933930235
244,548.3041749188772
245,548.2926154850634
246,548.2811210480127
247,548.2696964930816
248,548.258345595945
249,548.2470709824775
250,548.2358740881549
251,548.2247551183232
252,548.2137130110641
253,548.2027454045225
254,548.1918486102834
255,548.1810175938289
256,548.170245962445
257,548.1595259604005
258,548.1488484710474
259,548.138203025764
260,548.1275778200569
261,548.1169597372767
262,548.1063343803804
263,548.0956861123145
264,548.084998105951
265,548.0742524046873
266,548.063429994544
267,548.0525108879706
268,548.0414742189322
269,548.0302983484037
270,548.0189609790518
271,548.0074392773918
272,547.9957100010845
273,547.9837496285788
274,547.9715344882512
275,547.9590408845662
276,547.9462452194554
277,547.9331241079228
278,547.9196544875027
279,547.9058137213241
280,547.8915796942113
281,547.8769309008019
282,547.8618465244131
283,547.8463065054995
284,547.8302915990344
285,547.8137834209024
286,547.7967644843187
287,547.7792182283937
288,547.7611290421487
289,547.742482288191
290,547.7232643304606
291,547.7034625699198
292,547.6830654911031
293,547.6620627214118
294,547.6404451040507
295,547.6182047845256
296,547.5953353096895
297,547.57183173756
298,547.5476907555816
299,547.5229108047265
300,547.4974922069008
301,547.4714372935381
302,547.4447505336926
303,547.4174386599127
304,547.3895107896113
305,547.3609785388563
306,547.3318561248157
307,547.3021604526479
308,547.2719111824255
309,547.241130771716
310,547.2098444898576
311,547.1780804008067
312,547.1458693123823
313,547.1132446903775
314,547.0802425363887
315,547.0469012286995
316,547.0132613263736
317,546.979365337648
318,546.9452574545209
319,546.9109832559195
320,546.87658938201
321,546.8421231821739
322,546.8076323392094
323,546.773164472675
324,546.7387667249847
325,546.7044853346883
326,546.6703652020816
327,546.6364494527552
328,546.6027790049998
329,546.5693921471222
330,546.5363241305982
331,546.5036067845438
332,546.4712681564687
333,546.439332183919
334,546.4078184014787
335,546.3767416876248
336,546.3461120559616
337,546.3159344952261
338,546.2862088619645
339,546.2569298289197
340,546.2280868910694
341,546.199664430183
342,546.1716418378048
343,546.1439936955653
344,546.1166900106105
345,546.089696502914
346,546.0629749405178
347,546.0364835182254
348,546.0101772746614
349,545.9840085417932
350,545.9579274201598
351,545.93188227248
352,545.9058202282248
353,545.8796876921481
354,545.8534308506562
355,545.8269961711362
356,545.8003308907602
357,545.7733834925895
358,545.7461041679001
359,545.7184452643586
360,545.6903617198867
361,545.6618114818796
362,545.6327559111363
363,545.6031601694349
364,545.5729935891011
365,545.5422300223865
366,545.510848168162
367,545.4788318731656
368,545.4461704046078
369,545.4128586904197
370,545.3788975231305
371,545.3442937234711
372,545.3090602603603
373,545.273216324745
374,545.2367873555836
375,545.199805016878
376,545.1623071250885
377,545.1243375265885
378,545.0859459250763
379,545.0471876590593
380,545.0081234297778
381,544.9688189804567
382,544.9293447285876
383,544.8897753538592
384,544.8501893451449
385,544.8106685104561
386,544.771297453925
387,544.7321630237807
388,544.6933537351613
389,544.6549591715673
390,544.6170693688848
391,544.5797741862243
392,544.5431626682984
393,544.5073224043673
394,544.4723388885864
395,544.4382948860328
396,544.405269808198
397,544.3733391015146
398,544.3425736525103
399,544.3130392134241
400,544.2847958527324
401,544.2578974358847
402,544.2323911421618
403,544.2083170235412
404,544.1857076109751
405,544.1645875729739
406,544.1449734309859
407,544.1268733354813
408,544.1102869056672
409,544.0952051344581
410,544.0816103589798
411,544.0694762957365
412,544.0587681387015
413,544.0494427179905
414,544.0414487164401
415,544.0347269413752
416,544.0292106489647
417,544.024825918495
418,544.0214920736131
419,544.0191221473657
420,544.0176233878215
421,544.0168978010006
422,544.016842727472
423,544.0173514482307
424,544.0183138144868
425,544.0196168950824
426,544.0211456347353
427,544.022783516443
428,544.0244132223041
429,544.0259172885152
430,544.0271787518399
431,544.0280817858487
432,544.0285123255385
433,544.0283586787098
434,544.0275121219566
435,544.025867478525
436,544.0233236747127
437,544.0197842709046
438,544.0151579627935
439,544.0093590480657
440,544.0023078540519
441,543.9939311225761
442,543.9841623492239
443,543.9729420752684
444,543.9602181313952
445,543.9459458330488
446,543.9300881276291
447,543.9126156939133
448,543.8935069940628
449,543.8727482786397
450,543.8503335455189
451,543.8262644545383
452,543.8005502007961
453,543.7732073501892
454,543.7442596408548
455,543.7137377537653
456,543.6816790551475
457,543.6481273129002
458,543.6131323889219
459,543.5767499093752
460,543.5390409154976
461,543.5000714984682
462,543.4599124225886
463,543.4186387411838
464,543.3763294090797
465,543.3330668945798
466,543.2889367929058
467,543.2440274423475
468,543.1984295441305
469,543.1522357873197
470,543.1055404807353
471,543.0584391944574
472,543.0110284136373
473,542.9634052069333
474,542.915666911284
475,542.8679108342822
476,542.820233975161
477,542.7727327650763
478,542.7255028268186
479,542.6786387535141
480,542.6322339055259
481,542.5863802246441
482,542.5411680645634
483,542.4966860365693
484,542.4530208693301
485,542.4102572816092
486,542.3684778663819
487,542.3277629843011
488,542.2881906639443
489,542.2498365059972
490,542.2127735885636
491,542.177072371066
492,542.1428005945361
493,542.1100231763426
494,542.0788020974193
495,542.0491962798407
496,542.0212614525158
497,541.9950500033636
498,541.9706108176368
499,541.9479891034911
500,541.9272262068047
501,541.9083594175581
502,541.8914217701655
503,541.8764418403745
504,541.8634435417036
505,541.8524459245299
506,541.8434629806044
507,541.8365034550876
508,541.8315706675941
509,541.8286623435641
510,541.8277704575166
511,541.8288810901721
512,541.831974301901
513,541.8370240253856
514,541.8439979807197
515,541.8528576163851
516,541.863558079608
517,541.8760482194494
518,541.8902706255632
519,541.9061617048686
520,541.9236517975769
521,541.9426653332227
522,541.9631210267169
523,541.984932113845
524,542.0080066249577
525,542.0322476948879
526,542.0575539067058
527,542.0838196669403
528,542.1109356102719
529,542.1387890322003
530,542.1672643485884
531,542.1962435811048
532,542.2256068673029
533,542.255232993443
534,542.2849999472584
535,542.3147854868334
536,542.3444677208139
537,542.3739256945557
538,542.4030399765833
539,542.4316932396355
540,542.4597708305191
541,542.4871613231811
542,542.5137570500763
543,542.5394546078289
544,542.5641553340135
545,542.5877657525292
546,542.6101979855953
547,542.6313701307876
548,542.6512066015175
549,542.6696384288781
550,542.6866035221985
551,542.7020468853416
552,542.7159207858842
553,542.728184874853
554,542.7388062556649
555,542.7477595022182
556,542.7550266273421
557,542.7605970037453
558,542.7644672400978
559,542.766641015004
560,542.7671288716278
561,542.7659479759728
562,542.7631218423746
563,542.7586800303073
564,542.7526578167257
565,542.7450958477647
566,542.7360397728944
567,542.7255398638763
568,542.7136506203153
569,542.7004303633183
570,542.6859408187053
571,542.6702466913429
572,542.6534152324591
573,542.6355158021369
574,542.6166194294223
575,542.596798372528
576,542.576125681515
577,542.5546747656891
578,542.5325189678651
579,542.509731147698
580,542.4863832765104
581,542.4625460464073
582,542.438288496711
583,542.4136776606382
584,542.3887782346955
585,542.3636522728477
586,542.3383589074168
587,542.3129540989928
588,542.2874904179961
589,542.262016860369
590,542.2365786991357
591,542.2112173726846
592,542.1859704099388
593,542.1608713920394
594,542.1359499496773
595,542.1112317949284
596,542.0867387864972
597,542.0624890274473
598,542.0384969944
599,542.0147736966571
600,541.9913268629527
601,541.968161152901
602,541.9452783898683
603,541.9226778119101
604,541.9003563372648
605,541.8783088404831
606,541.8565284347122
607,541.835006755417
608,541.8137342411176
609,541.7927004073678
610,541.7718941108122
611,541.7513038006032
612,541.7309177547985
613,541.7107242998038
614,541.6907120115594
615,541.6708698979678
616,541.651187562908
617,541.6316553529664
618,541.612264488588
619,541.5930071815653
620,541.5738767405783
621,541.5548676661168
622,541.5359757359507
623,541.5171980824579
624,541.4985332633041
625,541.4799813270506
626,541.4615438754521
627,541.443224124567
628,541.4250269670864
629,541.4069590382283
630,541.3890287870433
631,541.3712465540895
632,541.3536246553863
633,541.3361774716128
634,541.3189215406106
635,541.3018756501765
636,541.2850609270383
637,541.2685009173954
638,541.2522216547544
639,541.2362517116768
640,541.220622232982
641,541.205366948745
642,541.1905221660346
643,541.1761267386032
644,541.1622220135528
645,541.1488517535533
646,541.1360620328368
647,541.1239011051999
648,541.1124192426299
649,541.101668543775
650,541.0917027122207
651,541.0825768053702
652,541.0743469555765
653,541.0670700658732
654,541.0608034830693
655,541.0556046512771
656,541.0515307494087
657,541.0486383167965
658,541.046982871416
659,541.0466185249172
660,541.0475975980859
661,541.0499702399737
662,541.0537840538536
663,541.0590837331193
664,541.065910710111
665,541.0743028206457
666,541.0842939868519
667,541.0959139206931
668,541.1091878503142
669,541.1241362711864
670,541.1407747241044
671,541.1591136022801
672,541.1791579898909
673,541.2009075346157
674,541.2243563571249
675,541.2494930009882
676,541.2763004265485
677,541.3047560517927
678,541.3348318423671
679,541.3664944519672
680,541.3997054135373
681,541.4344213809429
682,541.470594419948
683,541.5081723464444
684,541.5470991090067
685,541.5873152119746
686,541.6287581744116
687,541.6713630195395
688,541.7150627887343
689,541.7597890738837
690,541.8054725616151
691,541.8520435823579
692,541.8994326565196
693,541.9475710296949
694,541.9963911890721
695,542.0458273538927
696,542.095815933653
697,542.1462959488501
698,542.1972094106518
699,542.2485016575787
700,542.3001216485769
701,542.3520222125243
702,542.4041602544169
703,542.4564969183642
704,542.5089977072643
705,542.5616325589092
706,542.614375878407
707,542.6672065270166
708,542.7201077676523
709,542.7730671675861
710,542.8260764594652
711,542.8791313625884
712,542.9322313671686
713,542.9853794849032
714,543.0385819695558
715,543.0918480114298
716,543.1451894096353
717,543.1986202260132
718,543.2521564245839
719,543.3058155004508
720,543.3596161020598
721,543.4135776504374
722,543.4677199584614
723,543.5220628526369
724,543.5766257995721
725,543.6314275394639
726,543.6864857291464
727,543.7418165973266
728,543.7974346144526
729,543.853352179366
730,543.9095793245748
731,543.9661234416985
732,544.0229890284616
733,544.0801774585694
734,544.1376867758776
735,544.1955115145148
736,544.2536425471679
737,544.3120669644778
738,544.3707679890313
739,544.4297249273163
740,544.4889131622955
741,544.5483041883639
742,544.6078656895918
743,544.6675616611655
744,544.7273525727965
745,544.7871955717803
746,544.8470447226207
747,544.9068512797935
748,544.9665639902844
749,545.0261294229122
750,545.0854923218986
751,545.1445959822945
752,545.203382644577
753,545.2617939052961
754,545.3197711405863
755,545.3772559398527
756,545.4341905475986
757,545.4905183116512
758,545.5461841357857
759,545.6011349341961
760,545.6553200847591
761,545.7086918777976
762,545.7612059570286
763,545.8128217493883
764,545.8635028802804
765,545.913217570328
766,545.9619390089781
767,546.0096456996062
768,546.0563217705828
769,546.1019572473587
770,546.146548281782
771,546.190097336009
772,546.2326133191284
773,546.2741116751024
774,546.3146144210222
775,546.3541501350304
776,546.3927538935637
777,546.4304671578233
778,546.4673376094986
779,546.503418935673
780,546.5387705627384
781,546.5734573392966
782,546.6075491684451
783,546.6411205905082
784,546.6742503182288
785,546.7070207275995
786,546.7395173086185
787,546.7718280810246
788,546.8040429803766
789,546.8362532198399
790,546.8685506330083
791,546.9010270031886
792,546.9337733847805
793,546.9668794225627
794,547.00043267486
795,547.0345179469446
796,547.0692166417423
797,547.104606135775
798,547.1407591887453
799,547.1777433948437
800,547.2156206827453
801,547.2544468697669
802,547.29427127424
803,547.3351363889984
804,547.3770776179073
805,547.420123076514
806,547.4642934571601
807,547.5096019583862
808,547.5560542782655
809,547.6036486712669
810,547.6523760680678
811,547.7022202572961
812,547.7531581276012
813,547.8051599679056
814,547.8581898232977
815,547.9122059038308
816,547.9671610432574
817,548.0230032040604
818,548.0796760239335
819,548.1371193974587
820,548.1952700856848
821,548.2540623460083
822,548.3134285751231
823,548.3732999584331
824,548.4336071198342
825,548.4942807660208
826,548.5552523195707
827,548.6164545352968
828,548.6778220949373
829,548.7392921762137
830,548.8008049934349
831,548.8623043077604
832,548.9237379056432
833,548.9850580438172
834,549.0462218587296
835,549.1071917377908
836,549.1679356494251
837,549.2284274288669
838,549.2886470170607
839,549.3485806509057
840,549.4082210042578
841,549.4675672801908
842,549.5266252555614
843,549.5854072788238
844,549.6439322215906
845,549.7022253840023
846,549.760318353591
847,549.8182488168821
848,549.8760603225356
849,549.9338019946197
850,549.9915281947705
851,550.0492981324287
852,550.1071754229141
853,550.1652275937824
854,550.2235255408102
855,550.2821429362348
856,550.3411555934472
857,550.4006407938613
858,550.4606765829541
859,550.52134104364
860,550.5827115563172
861,550.6448640557874
862,550.7078722952377
863,550.7718071265386
864,550.8367358048006
865,550.9027213240685
866,550.9698217901902
867,551.0380898358223
868,551.1075720810886
869,551.1783086419366
870,551.250332687176
871,551.3236700444969
872,551.3983388552535
873,551.4743492773633
874,551.551703235395
875,551.6303942168286
876,551.710407113546
877,551.7917181077433
878,551.8742946015019
879,551.9580951892957
880,552.043069672984
881,552.1291591194343
882,552.2162959615868
883,552.3044041440618
884,552.393399314163
885,552.4831890585345
886,552.5736731852134
887,552.6647440504893
888,552.7562869296167
889,552.8481804298867
890,552.9402969440347
891,553.0325031416913
892,553.1246604966104
893,553.2166258476082
894,553.3082519912838
895,553.3993883044536
896,553.4898813937219
897,553.5795757688636
898,553.6683145360531
899,553.7559401067585
900,553.8422949183245
901,553.9272221626137
902,554.0105665192317
903,554.092174889598
904,554.1718971275168
905,554.2495867613088
906,554.3251017023687
907,554.3983049352533
908,554.4690651849725
909,554.5372575578767
910,554.6027641532288
911,554.6654746429721
912,554.725286817381
913,554.7821070944417
914,554.835850991305
915,554.8864435570677
916,554.9338197671565
917,554.9779248802015
