acceleration,velocity,displacement
-0.05331842651818251,0.0,0.0
-0.05308242033178485,-2.6600211712491843e-05,-6.650052928122961e-09
-0.05284144263918207,-5.3081177455233575e-05,-2.6570400220054317e-08
-0.05259519479865048,-7.944033681469171e-05,-5.970077878753563e-08
-0.05234337109270466,-0.0001056749782875305,-1.0597960756309119e-07
-0.052085659105230324,-0.00013178223583701424,-1.6534391109422738e-07
-0.05182174015380854,-0.00015775908565177397,-2.3772924146642443e-07
-0.051551289822449456,-0.00018360234314583845,-3.230695986658275e-07
-0.05127397863922191,-0.0002093086602612563,-4.212973495176012e-07
-0.05098947294056698,-0.0002348745231562035,-5.323431453719661e-07
-0.05069743595700041,-0.00026029625038059536,-6.561358387561659e-07
-0.05039752914379767,-0.00028556999165579486,-7.926023992652635e-07
-0.05008941376842882,-0.0003106917273838515,-9.416678290251751e-07
-0.04977275275445509,-0.00033565726901457245,-1.103255078124781e-06
-0.04944721276439583,-0.00036046226039428516,-1.2772849604769955e-06
-0.04911246647773074,-0.0003851021802048168,-1.463676070626771e-06
-0.04876819498931385,-0.00040957234557157795,-1.6623447020708697e-06
-0.04841409023125031,-0.00043386791687671897,-1.873204767682944e-06
-0.04804985731995548,-0.00045798390376452044,-2.096167722843254e-06
-0.047675216752514,-0.00048191517228263783,-2.3311424918550434e-06
-0.047289906413789266,-0.0005056564530742136,-2.5780353981942564e-06
-0.04689368339298776,-0.0005292023505259079,-2.8367500990942867e-06
-0.046486325632450934,-0.0005525473527822675,-3.1071875249213306e-06
-0.046067633437453084,-0.0005756858425497436,-3.3892458237543332e-06
-0.04563743086904417,-0.0005986121086263679,-3.682820311548361e-06
-0.0451955670311145,-0.0006213203581014075,-3.987803428230304e-06
-0.04474191725280485,-0.0006438047291723874,-4.304084700048753e-06
-0.04427638415953256,-0.0006660593045254718,-4.631550708473217e-06
-0.04379889862042525,-0.0006880781252204612,-4.9700850659097e-06
-0.04330942055783919,-0.0007098552050150273,-5.3195683984685725e-06
-0.042807939606141016,-0.0007313845450560224,-5.679878335986335e-06
-0.04229447560935629,-0.0007526601488598968,-6.050889509465314e-06
-0.04176907894515996,-0.0007736760374985258,-6.43247355605492e-06
-0.04123183065500606,-0.0007944262648985674,-6.824499131654193e-06
-0.040682842353432454,-0.000814904933150677,-7.2268319311665045e-06
-0.04012225589039917,-0.000835106207711635,-7.639334716382082e-06
-0.03955024274861956,-0.0008550243323713897,-8.061867351402838e-06
-0.03896700316933454,-0.0008746536438508782,-8.494286845458404e-06
-0.038372765013140867,-0.0008939885858964971,-8.936447402895248e-06
-0.03776778237643332,-0.0009130237227438907,-9.388200480055345e-06
-0.03715233399740187,-0.0009317537518373494,-9.849394848700655e-06
-0.036526721496967236,-0.0009501735157109417,-1.0319876665587728e-05
-0.035891267509874876,-0.0009682780129626523,-1.0799489547756126e-05
-0.03524631376801329,-0.0009860624082821243,-1.128807465306732e-05
-0.03459221919793067,-0.0010035220415236103,-1.1785470765518754e-05
-0.03392935808300367,-0.0010206524358438438,-1.2291514384860618e-05
-0.033258118318894025,-0.0010374493049443182,-1.2806039820057659e-05
-0.03257889976650953,-0.0010539085594656692,-1.3328879286160155e-05
-0.031892112687574505,-0.0010700263125791901,-1.3859863004171371e-05
-0.031198176236954492,-0.0010857988848103225,-1.439881930351875e-05
-0.030497516981079293,-0.001101222808114831,-1.4945574726750037e-05
-0.02979056741043742,-0.00111629482921271,-1.5499954136081923e-05
-0.029077764412754614,-0.0011310119121685082,-1.6061780821427227e-05
-0.02835954767297051,-0.0011453712401899394,-1.663087660951684e-05
-0.027636357969700726,-0.0011593702166006073,-1.7207061973714477e-05
-0.02690863534632502,-0.0011730064649296138,-1.7790156144097032e-05
-0.02617681714436651,-0.0011862778280522866,-1.837997721734251e-05
-0.025441335895897296,-0.0011991823663123524,-1.897634226593367e-05
-0.02470261708183676,-0.001211718354556786,-1.9579067446150952e-05
-0.023961076775149838,-0.0012238842780210326,-2.0187968104295407e-05
-0.023217119200925104,-0.0012356788270150513,-2.0802858880554427e-05
-0.02247113425729626,-0.0012471008903796068,-2.1423553809903093e-05
-0.02172349504990611,-0.0012581495477064074,-2.2049866419424597e-05
-0.020974555498342533,-0.0012688240603434696,-2.2681609821437066e-05
-0.02022464807959908,-0.001279123861237955,-2.3318596801832423e-05
-0.019474081783939733,-0.0012890485437038396,-2.3960639903067872e-05
-0.01872314037029833,-0.0012985978492423991,-2.4607551501304433e-05
-0.017972081013534077,-0.0013077716545883571,-2.525914387726212e-05
-0.017221133426875847,-0.0013165699581984597,-2.5915229280458824e-05
-0.016470499518278916,-0.0013249928664347483,-2.6575619986617125e-05
-0.01572035360677404,-0.0013330405797160115,-2.7240128348154814e-05
-0.014970843194984483,-0.001340713378916451,-2.790856683781293e-05
-0.014222090273216382,-0.0013480116122835013,-2.8580748085612917e-05
-0.013474193117585822,-0.0013549356831312018,-2.9256484909466594e-05
-0.012727228533150581,-0.0013614860385438858,-2.9935590339885365e-05
-0.01198125447882028,-0.0013676631592968785,-3.061787763934556e-05
-0.011236312998246569,-0.0013734675511661452,-3.1303160316961314e-05
-0.010492433379616101,-0.001378899737760611,-3.1991252139193e-05
-0.00974963548055416,-0.0013839602549756535,-3.268196713737707e-05
-0.009007933172661537,-0.0013886496471389575,-3.337511961290572e-05
-0.00826733786854443,-0.001392968464899259,-3.407052414091527e-05
-0.007527862087314522,-0.0013969172648882237,-3.476799557336214e-05
-0.006789523000156306,-0.0014004966111600915,-3.546734904237422e-05
-0.006052345886686338,-0.001403707078381802,-3.616839996475969e-05
-0.0053163674302325065,-0.0014065492567110318,-3.68709640485329e-05
-0.004581638784635444,-0.0014090237582647486,-3.757485730227685e-05
-0.003848228354028179,-0.0014111312250494146,-3.827989604810539e-05
-0.003116224237740725,-0.0014128723381973568,-3.898589693891708e-05
-0.0023857363033589337,-0.0014142478283326316,-3.969267698054958e-05
-0.0016568978618168588,-0.0014152584868739257,-4.040005355935122e-05
-0.000929866929907602,-0.0014159051780718568,-4.110784447558767e-05
-0.00020482707685204194,-0.0014161888515735468,-4.181586798299902e-05
0.0005180121411092526,-0.0014161105553074824,-4.252394283471927e-05
0.0012384151525727898,-0.001415671448484062,-4.323188833566716e-05
0.0019561207434675427,-0.001414872814510052,-4.3939524401415684e-05
0.002670842820235865,-0.0014137160736191262,-4.464667162344798e-05
0.0033822715477896934,-0.0014122027950271199,-4.5353151340609537e-05
0.004090074845153023,-0.0014103347084288842,-4.605878571647354e-05
0.004793900225905988,-0.0014081137146611195,-4.676339782224604e-05
0.005493376973832903,-0.0014055418953611847,-4.746681172475161e-05
0.006188118640736383,-0.0014026215214575422,-4.81688525789563e-05
0.006877725843518459,-0.0013993550603364786,-4.8869346724404805e-05
0.007561789324211766,-0.001395745181544546,-4.956812178487506e-05
0.008239893221763214,-0.0013917947609080523,-5.026500677048821e-05
0.008911618489659517,-0.0013875068829801967,-5.0959832181460275e-05
0.009576546385349025,-0.0013828848417614446,-5.165243011264569e-05
0.01023426196509157,-0.0013779321396738345,-5.234263435800451e-05
0.010884357541888724,-0.0013726524847970894,-5.303028051412224e-05
0.011526436091066322,-0.0013670497863888507,-5.3715206081918725e-05
0.012160114599705356,-0.0013611281487161577,-5.439725056569498e-05
0.012785027346388946,-0.0013548918632296343,-5.5076255568681424e-05
0.013400829079395885,-0.001348345399123188,-5.575206488426963e-05
0.014007198054245407,-0.0013414933923397777,-5.6424524582135374e-05
0.014603838902607313,-0.0013343406331005644,-5.709348308849546e-05
0.01519048532299201,-0.0013268920520441646,-5.775879125978164e-05
0.015766902593077524,-0.0013191527050651472,-5.842030244905897e-05
0.016332889899176983,-0.0013111277569420835,-5.907787256456078e-05
0.016888282469894485,-0.0013028224638498157,-5.973136011975875e-05
0.017432953500228717,-0.001294242154857285,-6.0380626274435524e-05
0.017966815862271297,-0.0012853922125166599,-6.102553486627901e-05
0.01848982361296991,-0.0012762780526478497,-6.166595243257014e-05
0.019001973320163672,-0.0012669051034145662,-6.230174822158573e-05
0.019503305230261735,-0.00125727878377696,-6.293279419338361e-05
0.019993904295181216,-0.001247404481395599,-6.355896500967675e-05
0.02047390106717373,-0.0012372875300550104,-6.41801380125394e-05
0.020943472461534385,-0.0012269331866728334,-6.479619319172136e-05
0.021402842379738652,-0.001216346607962515,-6.54070131403802e-05
0.02185228217940536,-0.001205532826822729,-6.601248299907652e-05
0.022292110970832314,-0.0011944967285351697,-6.661249038791599e-05
0.022722695706817266,-0.0011832430268657573,-6.720692532676623e-05
0.0231444510113715,-0.0011717762401862101,-6.779568014352922e-05
0.023557838673229522,-0.0011601006677650599,-6.837864937051704e-05
0.02396336672531032,-0.0011482203664154248,-6.895572962906216e-05
0.02436158804308182,-0.001136139127723327,-6.952681950259684e-05
0.02475309841140101,-0.0011238604561097062,-7.00918193985551e-05
0.025138534021157417,-0.0011113875480015666,-7.065063139958292e-05
0.025518568365039285,-0.0010987232724050174,-7.120315910468458e-05
0.025893908511764593,-0.0010858701531858165,-7.174930746108229e-05
0.026265290752061736,-0.00107283035336986,-7.228898258772121e-05
0.02663347562681065,-0.0010596056617751418,-7.282209159150747e-05
0.026999242366286355,-0.0010461974822768675,-7.334854237752046e-05
0.027363382786509398,-0.0010326068259886687,-7.386824345458684e-05
0.027726694703061192,-0.001018834306616276,-7.438110373773808e-05
0.0280899749366815,-0.0010048801392063403,-7.488703234919373e-05
0.02845401199813398,-0.0009907441424726366,-7.538593841961348e-05
0.028819578547717502,-0.0009764257448361737,-7.587773089144069e-05
0.029187423725464835,-0.0009619239942678782,-7.63623183262167e-05
0.029558265445061183,-0.0009472375719752467,-7.683960871777748e-05
0.029932782739918402,-0.0009323648099290018,-7.730950931325355e-05
0.0303116082433831,-0.0009173037121831764,-7.777192644378159e-05
0.030695320878772792,-0.0009020519799026375,-7.822676536680305e-05
0.031084438832711673,-0.0008866070399747664,-7.86739301217724e-05
0.031479412888052505,-0.0008709660770445754,-7.911332340102724e-05
0.03188062019981752,-0.0008551260687726079,-7.954484643748154e-05
0.03228835861022438,-0.0008390838240700974,-7.996839891069222e-05
0.0327028416171639,-0.0008228360240132503,-8.038387887271306e-05
0.033124194127274575,-0.0008063792650771408,-8.079118269498565e-05
0.033552449126377,-0.0007897101042637279,-8.119020503732086e-05
0.03398754537898315,-0.0007728251056373878,-8.158083883979614e-05
0.03442932622850105,-0.0007557208877355168,-8.196297533813937e-05
0.03487753952180616,-0.00073839417129794,-8.233650410289774e-05
0.035331838637901514,-0.000720841826758013,-8.270131310241172e-05
0.03579178457118908,-0.0007030609209557404,-8.305728878934015e-05
0.03625684900882286,-0.0006850487625607374,-8.340431621021927e-05
0.03672641834111556,-0.0006668029457232527,-8.374227913729027e-05
0.037199798542567324,-0.000648321391502332,-8.407106022159666e-05
0.03767622085424728,-0.0006296023866531283,-8.439054116613553e-05
0.03815484818842412,-0.0006106446193924604,-8.470060291764692e-05
0.03863478216637856,-0.0005914472118037598,-8.500112587544598e-05
0.039115070691654326,-0.0005720097485892516,-8.529199011554423e-05
0.039594715956346324,-0.0005523323019272514,-8.557307562817336e-05
0.04007268277900554,-0.0005324154522434135,-8.584426256671602e-05
0.040547907178137145,-0.0005122603047541278,-8.61054315059654e-05
0.04101930509169993,-0.0004918685016866686,-8.63564637075756e-05
0.04148578115825474,-0.0004712422301241799,-8.659724139052832e-05
0.04194623747568586,-0.00045038422546569474,-8.682764800442578e-05
0.04239958224571305,-0.00042929777053534504,-8.704756850342604e-05
0.042844738198561105,-0.0004079866904242765,-8.725688961866594e-05
0.043280650682360096,-0.0003864553432040462,-8.745550012707302e-05
0.0437062953072897,-0.00036470860670663376,-8.764329111455069e-05
0.04412068505734115,-0.00034275186161547604,-8.782015623163123e-05
0.04452287681406221,-0.0003205909711476252,-8.7985991939822e-05
0.044911977264591195,-0.0002982322576279619,-8.814069774701589e-05
0.045287148182936214,-0.00027568247626608003,-8.828417643048941e-05
0.045647611080299196,-0.0002529487864502712,-8.841633424616849e-05
0.04599265122330289,-0.00023003872087437068,-8.853708112299966e-05
0.0463216210205661,-0.00020696015281340343,-8.86463308414216e-05
0.046633942776005015,-0.00018372126186426066,-8.874400119509103e-05
0.04692911080134294,-0.00016033049846992368,-8.883001413517457e-05
0.04720669287529274,-0.00013679654755076478,-8.890429589667975e-05
0.04746633103923654,-0.00011312829157213245,-8.896677710646047e-05
0.04770774173230954,-8.933477337924593e-05,-8.901739287269831e-05
0.04793071529059101,-6.542515912352079e-05,-8.9056082855824e-05
0.048135114857644955,-4.14087015864618e-05,-8.90827913210015e-05
0.04832087476731786,-1.7294704180221093e-05,-8.909746717244316e-05
0.048487998461974983,6.907514127102121e-06,-8.910006396995645e-05
0.0486365560061368,3.118865274413007e-05,-8.909053992823864e-05
0.04876668125349358,5.553946205903766e-05,-8.906885789953785e-05
0.048878568723970776,7.995077455340375e-05,-8.903498534038474e-05
0.04897247024355234,0.00010441353429528453,-8.898889426317257e-05
0.0490486913926337,0.00012891882470433103,-8.893056117342266e-05
0.04910758780136831,0.00015345789450283152,-8.885996699362088e-05
0.04914956132327683,0.00017802218178399282,-8.877709697454917e-05
0.04917505610904127,0.00020260333614207233,-8.868194059506765e-05
0.04918455459002478,0.00022719323881683885,-8.857449145132793e-05
0.04917857336884674,0.00025178402080655674,-8.845474713642207e-05
0.04915765900817569,0.00027636807890081235,-8.832270911149523e-05
0.049122383712489684,0.0003009380895809787,-8.817838256937479e-05
0.0490733409115866,0.0003254870207369978,-8.80217762917953e-05
0.049011140775685316,0.00035000814115881577,-8.785290250132134e-05
0.04893640571329696,0.00037449502778106133,-8.767177670908638e-05
0.04884976591880433,0.00039894157068908663,-8.747841755946885e-05
0.04875185504411396,0.0004233419759298162,-8.727284667281412e-05
0.04864330606849561,0.0004476907662079686,-8.705508848727968e-05
0.048524747435584374,0.0004719827795839886,-8.682517010083169e-05
0.04839679951941095,0.0004962131663227374,-8.6583121114355e-05
0.04826007147188764,0.0005203773840705621,-8.632897347675667e-05
0.048115158489592864,0.0005444711915609322,-8.60627613328488e-05
0.047962639520888285,0.0005684906410635524,-8.578452087469268e-05
0.04780307542267591,0.0005924320697994435,-8.549429019697693e-05
0.047637007570474545,0.0006162920905477312,-8.519210915689013e-05
0.04746495691647751,0.0006400675816694691,-8.487801923883584e-05
0.047287423470976316,0.0006637556767663326,-8.455206342422689e-05
0.04710488615788761,0.0006873537541735485,-8.421428606649192e-05
0.046917802976096684,0.0007108594264570446,-8.386473277133427e-05
0.0467266113907436,0.0007342705300487546,-8.350345028220783e-05
0.04653172888063116,0.0007575851151165983,-8.31304863709165e-05
0.04633355357714125,0.0007808014357310414,-8.274588973320459e-05
0.046132464946522386,0.0008039179403619574,-8.234970988918134e-05
0.045928824488424495,0.0008269332627206941,-8.194199708841068e-05
0.04572297643885262,0.0008498462129525134,-8.152280221949237e-05
0.04551524846743509,0.0008726557691790853,-8.109217672395947e-05
0.045305952350775364,0.000895361069383638,-8.065017251431878e-05
0.04509538459594842,0.0009179614036203189,-8.01968418960678e-05
0.04488382698776772,0.000940456206516248,-7.973223749353366e-05
0.0446715470414795,0.0009628450500235598,-7.92564121793987e-05
0.04445879835584217,0.0009851276363728903,-7.876941900779958e-05
0.04424582087250337,0.0010073037911799768,-7.827131115091136e-05
0.04403284104805655,0.0010293734566601167,-7.776214183895134e-05
0.043820071935671806,0.001051336684906049,-7.72419643035598e-05
0.043607713164109066,0.001073193631180994,-7.671083172453804e-05
0.043395950802562665,0.001094944547172662,-7.616879717994962e-05
0.04318495710804854,0.001116589774150315,-7.561591359961888e-05
0.04297489015837763,0.0011381297359669214,-7.505223372208957e-05
0.042765893372677076,0.0011595649318496852,-7.447781005513542e-05
0.04255809491764474,0.0011808959289222657,-7.389269483994244e-05
0.04235160699907764,0.0012021233544014462,-7.329694001911151e-05
0.042146525045977656,0.00122324788741271,-7.269059720865797e-05
0.0419429268031079,0.0012442702503749814,-7.207371767421105e-05
0.04174087135255572,0.0012651911999138972,-7.144635231163883e-05
0.041540398088606864,0.0012860115172741878,-7.08085516323418e-05
0.04134152567770832,0.0013067319982157666,-7.016036575346932e-05
0.041144251044394654,0.0013273534423962922,-6.95018443933163e-05
0.040948548427263975,0.001347876642264207,-6.883303687215118e-05
0.04075436854285867,0.0013683023715067375,-6.815399211870845e-05
0.04056163788235224,0.0013886313731130402,-6.74647586825535e-05
0.040370258150694845,0.001408864347121302,-6.676538475249491e-05
0.040180105845257434,0.0014290019381202903,-6.605591818118452e-05
0.0399910319670899,0.001449044722573377,-6.53364065160111e-05
0.03980286186435181,0.0014689931960312375,-6.460689703635996e-05
0.039615395216782194,0.001488847760301521,-6.386743679727676e-05
0.0394284061735556,0.0015086087106491054,-6.31180726795391e-05
0.03924164365625294,0.0015282762231065574,-6.235885144610019e-05
0.03905483184225866,0.0015478503419811853,-6.158981980482825e-05
0.03886767085223933,0.0015673309676548098,-6.0811024477419255e-05
0.03867983766964658,0.0015867178447852813,-6.002251227430923e-05
0.038490987313840076,0.001606010551031153,-5.922433017535512e-05
0.03830075427399914,0.0016252084864281128,-5.841652541599031e-05
0.038108754196072236,0.0016443108635456306,-5.759914557849687e-05
0.0379145858048315,0.0016633166985458565,-5.6772238687974e-05
0.03771783303497294,0.0016822248032558077,-5.5935853312523586e-05
0.03751806733380535,0.0017010337783480024,-5.5090038667122634e-05
0.03731485008361947,0.0017197420077023585,-5.4234844720610046e-05
0.03710773508109134,0.0017383476539935363,-5.337032230518607e-05
0.03689627100990724,0.0017568486555162859,-5.2496523227808614e-05
0.03668000385142897,0.00177524272423162,-5.1613500382871635e-05
0.03645847919396916,0.0017935273449929696,-5.072130786556549e-05
0.036231244420092096,0.0018116997758964848,-4.9820001085343127e-05
0.035997850765748046,0.0018297570496929449,-4.890963687894577e-05
0.0357578552480623,0.0018476959761963975,-4.7990273622473433e-05
0.035510822450890114,0.0018655131456211357,-4.706197134201905e-05
0.035256326146785054,0.0018832049327705545,-4.612479182242112e-05
0.03499395072815066,0.0019007675019892883,-4.517879871373116e-05
0.034723292422849966,0.0019181968127770384,-4.422405763503958e-05
0.03444396028079582,0.0019354886259529498,-4.3260636275357085e-05
0.03415557693564454,0.00195263851025706,-4.228860449130458e-05
0.0338577791671785,0.001969641849282766,-4.1308034401419625e-05
0.033550218315540295,0.0019864938486534455,-4.0319000476935573e-05
0.033232560626005804,0.002003189543388832,-3.9321579628925e-05
0.03290448762392696,0.002019723805451315,-3.8315851291714965e-05
0.032565696623996394,0.002036091351513296,-3.730189750247381e-05
0.03221590146523201,0.0020522867510356035,-3.627980297683658e-05
0.03185483354058907,0.0020683044347870588,-3.524965518038092e-05
0.03148224316591731,0.0020841387039636852,-3.421154439569323e-05
0.031097901309656343,0.0020997837400825786,-3.3165563784681665e-05
0.03070160168165567,0.0021152336158304064,-3.211180944570342e-05
0.030293163157623527,0.002130482307040226,-3.1050380464985765e-05
0.029872432497529095,0.0021455237059540143,-2.9981378961737204e-05
0.029439287303365255,0.0021603516359042377,-2.8904910126272642e-05
0.02899363915482081,0.0021749598675187844,-2.7821082250416886e-05
0.028535436862843405,0.0021893421365232007,-2.673000674940639e-05
