frame_number,force
0,684.7841800062665
1,684.8650934844442
2,684.9457594172746
3,685.0259322327985
4,685.1053702738473
5,685.1838376774072
6,685.2611061649447
7,685.3369567198444
8,685.4111811312164
9,685.4835833870076
10,685.5539809039758
11,685.6222055871771
12,685.6881047161804
13,685.7515416587628
14,685.8123964153068
15,685.8705659985969
16,685.9259646543856
17,685.9785239285357
18,686.0281925872544
19,686.0749363980761
20,686.1187377807611
21,686.1595953390461
22,686.1975232860739
23,686.2325507778635
24,686.2647211697018
25,686.29409120946
26,686.320730179795
27,686.3447189988228
28,686.3661492871869
29,686.3851224090137
30,686.4017484945865
31,686.4161454528122
32,686.4284379812552
33,686.4387565806023
34,686.4472365790318
35,686.454017170474
36,686.4592404696082
37,686.4630505859725
38,686.4655927198852
39,686.4670122837916
40,686.4674540536256
41,686.4670613550651
42,686.4659752889274
43,686.4643339990939
44,686.4622719861906
45,686.4599194707024
46,686.4574018093335
47,686.4548389677268
48,686.4523450513692
49,686.4500278950517
50,686.4479887100949
51,686.446321788177
52,686.4451142610313
53,686.444445915802
54,686.4443890656394
55,686.4450084742276
56,686.4463613321967
57,686.4484972836299
58,686.4514585020471
59,686.4552798163188
60,686.4599888869488
61,686.465606431985
62,686.4721465003504
63,686.4796167895878
64,686.4880190050018
65,686.4973492575451
66,686.50759849833
67,686.5187529882487
68,686.5307948010948
69,686.5437023568664
70,686.5574509788746
71,686.5720134652233
72,686.5873606633397
73,686.6034620358488
74,686.620286206999
75,686.637801480553
76,686.6559763220038
77,686.6747797997984
78,686.6941819818616
79,686.7141542852255
80,686.734669777951
81,686.7557034332979
82,686.7772323359975
83,686.799235839853
84,686.8216956754414
85,686.8445960067546
86,686.8679234361032
87,686.8916669573515
88,686.9158178585908
89,686.9403695768699
90,686.9653175094351
91,686.9906587873415
92,687.0163920175819
93,687.0425169993
94,687.0690344191831
95,687.0959455315669
96,687.1232518301462
97,687.1509547196187
98,687.179055195884
99,687.2075535421147
100,687.2364490459711
101,687.2657397418446
102,687.2954221818585
103,687.32549123981
104,687.3559399523647
105,687.3867594011274
106,687.417938637758
107,687.4494646523538
108,687.4813223833752
109,687.5134947659669
110,687.5459628147946
111,687.5787057372513
112,687.6117010726779
113,687.6449248527128
114,687.6783517770916
115,687.7119553987492
116,687.7457083125101
117,687.7795823428303
118,687.8135487274079
119,687.8475782947844
120,687.8816416354492
121,687.9157092673271
122,687.9497517972685
123,687.9837400799508
124,688.0176453749383
125,688.0514395023649
126,688.0850949979801
127,688.1185852686378
128,688.1518847491667
129,688.1849690607725
130,688.217815169885
131,688.2504015450223
132,688.282708308251
133,688.3147173775096
134,688.3464125963413
135,688.3777798478535
136,688.4088071496545
137,688.4394847263297
138,688.4698050559083
139,688.4997628865842
140,688.5293552195864
141,688.5585812539958
142,688.5874422902036
143,688.615941590858
144,688.6440842009995
145,688.6718767317303
146,688.6993271137237
147,688.7264443283116
148,688.7532381250375
149,688.7797187350515
150,688.8058965892222
151,688.8317820488246
152,688.8573851558604
153,688.8827154094295
154,688.907781573466
155,688.9325915193837
156,688.9571521050735
157,688.981469089681
158,689.0055470820286
159,689.0293895198577
160,689.0529986774569
161,689.076375700276
162,689.0995206657873
163,689.1224326694272
164,689.1451099330252
165,689.1675499311518
166,689.1897495288017
167,689.2117051225761
168,689.2334127777702
169,689.2548683552684
170,689.2760676239204
171,689.2970063555651
172,689.3176804011584
173,689.3380857476069
174,689.3582185556802
175,689.3780751797865
176,689.3976521708244
177,689.4169462640303
178,689.4359543545448
179,689.4546734639782
180,689.4731007012513
181,689.4912332200779
182,689.5090681738058
183,689.5266026668147
184,689.5438337011628
185,689.5607581176547
186,689.5773725315175
187,689.5936732642713
188,689.6096562753083
189,689.6253170986645
190,689.6406507913334
191,689.6556518985359
192,689.670314438993
193,689.6846319104641
194,689.6985973132752
195,689.7122031875887
196,689.7254416591685
197,689.7383044887986
198,689.7507831220782
199,689.7628687382035
200,689.7745522978238
201,689.7858245909317
202,689.796676286128
203,689.8070979826
204,689.8170802657058
205,689.8266137662124
206,689.8356892224274
207,689.844297544389
208,689.8524298802183
209,689.8600776860911
210,689.8672328020792
211,689.8738875358943
212,689.8800347557001
213,689.8856679923385
214,689.8907815509396
215,689.8953706318473
216,689.8994314605859
217,689.902961425885
218,689.9059592235874
219,689.9084250027553
220,689.9103605088642
221,689.9117692183052
222,689.9126564589577
223,689.9130295130852
224,689.9128977006061
225,689.9122724423025
226,689.911167303415
227,689.9095980182017
228,689.9075824956928
229,689.9051408067454
230,689.902295153281
231,689.8990698221755
232,689.8954911278386
233,689.8915873482441
234,689.8873886588192
235,689.8829270674389
236,689.8782363524714
237,689.8733520048239
238,689.8683111742214
239,689.8631526192779
240,689.8579166603904
241,689.8526451342682
242,689.8473813487273
243,689.8421700356528
244,689.8370572987785
245,689.8320905519646
246,689.827318443698
247,689.8227907642697
248,689.8185583326959
249,689.8146728608879
250,689.8111867936167
251,689.8081531247551
252,689.8056251922469
253,689.8036564550898
254,689.8023002549802
255,689.8016095639746
256,689.8016367187415
257,689.8024331422467
258,689.8040490545509
259,689.8065331749239
260,689.8099324174441
261,689.8142915821063
262,689.8196530435532
263,689.8260564398275
264,689.833538364173
265,689.8421320641319
266,689.8518671537581
267,689.8627693459838
268,689.874860212376
269,689.8881569763907
270,689.9026723439208
271,689.9184143718753
272,689.9353863720776
273,689.9535868443065
274,689.9730094296775
275,689.9936428749215
276,690.0154709999917
277,690.0384726650027
278,690.0626217361379
279,690.0878870526078
280,690.1142323979377
281,690.1416164794999
282,690.1699929206461
283,690.1993102698636
284,690.2295120311554
285,690.2605367199351
286,690.2923179491236
287,690.3247845498668
288,690.3578607298809
289,690.3914662706776
290,690.4255167637436
291,690.4599238852381
292,690.4945957083794
293,690.5294370520484
294,690.5643498631507
295,690.5992336292026
296,690.6339858168385
297,690.6685023319698
298,690.702677998331
299,690.7364070526281
300,690.7695836558433
301,690.8021024213821
302,690.8338589614968
303,690.8647504531037
304,690.8946762225445
305,690.9235383468038
306,690.9512422669031
307,690.9776974076759
308,691.0028177968993
309,691.0265226762126
310,691.048737096482
311,691.0693924907062
312,691.0884272174754
313,691.1057870672038
314,691.1214257222638
315,691.1353051615401
316,691.1473960002935
317,691.1576777574113
318,691.1661390435437
319,691.1727776650553
320,691.1776006404043
321,691.180624127655
322,691.1818732642461
323,691.1813819224644
324,691.1791923857663
325,691.1753549518426
326,691.169927468332
327,691.1629748065719
328,691.1545682778494
329,691.1447849957877
330,691.1337071885581
331,691.1214214658266
332,691.1080180471104
333,691.0935899597595
334,691.0782322157421
335,691.0620409768395
336,691.0451127179841
337,691.0275433985641
338,691.0094276516368
339,690.9908580009522
340,690.9719241152018
341,690.9527121077555
342,690.9333038883897
343,690.913776571551
344,690.8942019440867
345,690.8746459942732
346,690.8551685030667
347,690.8358226973696
348,690.81665496373
349,690.7977046198281
350,690.7790037408771
351,690.76057703824
352,690.7424417872434
353,690.7246078003034
354,690.70707744094
355,690.689845674618
356,690.6729001535032
357,690.6562213338618
358,690.6397826265032
359,690.6235505815863
360,690.6074851086344
361,690.5915397308979
362,690.5756618712896
363,690.5597931661546
364,690.5438698036439
365,690.5278228850723
366,690.5115788096579
367,690.4950596849295
368,690.4781837664124
369,690.4608659304843
370,690.443018183425
371,690.4245502080854
372,690.4053699475975
373,690.3853842231417
374,690.3644993805125
375,690.3426219593831
376,690.3196593803552
377,690.2955206469195
378,690.2701170604756
379,690.2433629457931
380,690.2151763823922
381,690.1854799351657
382,690.1542013754952
383,690.121274382518
384,690.0866392138897
385,690.0502433366398
386,690.0120420107437
387,689.9719988196532
388,689.9300861427841
389,689.8862855651124
390,689.8405882190522
391,689.7929950540268
392,689.7435170297997
393,689.6921752307373
394,689.6390008996794
395,689.5840353919469
396,689.527330052171
397,689.4689460187747
398,689.4089539626098
399,689.3474337671025
400,689.2844741573432
401,689.2201722850689
402,689.1546332754128
403,689.0879697396913
404,689.0203012569305
405,688.951753825964
406,688.8824592899084
407,688.8125547353948
408,688.7421818698444
409,688.6714863811022
410,688.6006172844675
411,688.5297262620734
412,688.4589669986455
413,688.388494516575
414,688.3184645127868
415,688.2490327003595
416,688.1803541588287
417,688.1125826976808
418,688.0458702371055
419,687.9803662089189
420,687.9162169795061
421,687.8535652960893
422,687.7925497573852
423,687.7333043095033
424,687.67595776776
425,687.6206333651286
426,687.567448328376
427,687.51651348365
428,687.467932894393
429,687.4218035356037
430,687.37821500874
431,687.3372493003836
432,687.2989805855485
433,687.2634750742443
434,687.230790898424
435,687.2009780359701
436,687.1740782685252
437,687.1501251701582
438,687.1291441238027
439,687.1111523622811
440,687.0961590308831
441,687.0841652690249
442,687.0751643093407
443,687.0691415932171
444,687.0660749017269
445,687.0659344998711
446,687.0686832904145
447,687.0742769722727
448,687.0826641979711
449,687.0937867253282
450,687.107579560151
451,687.1239710889731
452,687.1428832032504
453,687.164231418719
454,687.187924995681
455,687.21386706733
456,687.2419547833151
457,687.2720794745467
458,687.3041268435747
459,687.3379771838695
460,687.373505631699
461,687.4105824555025
462,687.4490733883089
463,687.4888400078039
464,687.5297401663584
465,687.5716284710724
466,687.6143568128111
467,687.6577749427724
468,687.701731093916
469,687.746072642327
470,687.7906468013198
471,687.8353013395332
472,687.8798853132665
473,687.9242498027564
474,687.9682486421952
475,688.011739133907
476,688.0545827376832
477,688.0966457265948
478,688.1377998009912
479,688.177922653324
480,688.2168984781067
481,688.2546184235604
482,688.2909809836887
483,688.3258923310212
484,688.3592665913018
485,688.391026062697
486,688.4211013835674
487,688.4494316536593
488,688.4759645136317
489,688.5006561876352
490,688.5234714933471
491,688.5443838230177
492,688.5633750978385
493,688.5804356968978
494,688.5955643613942
495,688.6087680744425
496,688.6200619167038
497,688.629468898301
498,688.6370197678123
499,688.6427527990653
500,688.6467135559406
501,688.6489546347376
502,688.6495353831032
503,688.6485215940573
504,688.6459851731598
505,688.6420037763032
506,688.6366604154192
507,688.6300430301292
508,688.6222440250189
509,688.6133597739844
510,688.6034900944419
511,688.5927376951613
512,688.5812076021944
513,688.5690065677849
514,688.5562424672869
515,688.5430236891387
516,688.5294585229593
517,688.5156545508892
518,688.5017180474393
519,688.4877533931943
520,688.4738625073177
521,688.4601443027318
522,688.4466941663994
523,688.4336034657764
524,688.4209590814424
525,688.4088429651902
526,688.3973317225622
527,688.3864962190744
528,688.3764012100578
529,688.3671049949169
530,688.3586590973836
531,688.3511079738721
532,688.3444887522417
533,688.3388310031994
534,688.3341565465312
535,688.3304792947596
536,688.3278051376483
537,688.3261318714391
538,688.3254491762335
539,688.3257386440282
540,688.3269738596096
541,688.3291205370148
542,688.332136714722
543,688.3359730122604
544,688.3405729494513
545,688.3458733276977
546,688.3518046714829
547,688.3582917275638
548,688.3652540186255
549,688.3726064468904
550,688.3802599415841
551,688.3881221427137
552,688.3960981127163
553,688.4040910674935
554,688.4120031193261
555,688.4197360258167
556,688.4271919404426
557,688.4342741608034
558,688.4408878700973
559,688.4469408661499
560,688.4523442710117
561,688.4570132131929
562,688.4608674741772
563,688.4638320908462
564,688.465837905782
565,688.4668220583349
566,688.4667284110483
567,688.4655079082985
568,688.4631188661722
569,688.459527194409
570,688.4547065529143
571,688.4486384468274
572,688.4413122647283
573,688.4327252638795
574,688.4228825050831
575,688.4117967389118
576,688.3994882449558
577,688.3859846255234
578,688.3713205545363
579,688.3555374815453
580,688.3386832904108
581,688.3208119123163
582,688.3019828931174
583,688.2822609154621
584,688.2617152769199
585,688.2404193266572
586,688.2184498647792
587,688.195886510107
588,688.1728110439931
589,688.1493067397624
590,688.1254576889355
591,688.1013481359714
592,688.0770618327217
593,688.0526814223311
594,688.028287860333
595,688.0039598786391
596,687.979773496451
597,687.9558015808734
598,687.9321134591806
599,687.9087745844394
600,687.8858462565502
601,687.8633854011927
602,687.841444409233
603,687.8200710388196
604,687.7993083815243
605,687.7791948921564
606,687.7597644793457
607,687.7410466512732
608,687.7230667089467
609,687.7058459788461
610,687.6894020774681
611,687.6737492014178
612,687.6588984375371
613,687.6448580880735
614,687.6316340062646
615,687.6192299379614
616,687.6076478648041
617,687.596888343876
618,687.5869508380132
619,687.5778340307486
620,687.5695361204708
621,687.5620550890658
622,687.5553889402155
623,687.5495359018886
624,687.5444945874473
625,687.5402641108018
626,687.5368441529173
627,687.5342349793974
628,687.5324374116655
629,687.5314527569005
630,687.5312827035535
631,687.5319291895543
632,687.5333942495585
633,687.5356798465216
634,687.5387876920236
635,687.5427190592147
636,687.5474745920666
637,687.5530541147715
638,687.5594564453509
639,687.5666792174761
640,687.5747187142572
641,687.5835697175653
642,687.5932253761989
643,687.6036770953305
644,687.6149144479549
645,687.6269251071589
646,687.639694796915
647,687.6532072591466
648,687.6674442355227
649,687.6823854633044
650,687.6980086853118
651,687.7142896745657
652,687.7312022741534
653,687.7487184525479
654,687.7668083743998
655,687.7854404868576
656,687.8045816214529
657,687.8241971111804
658,687.8442509215919
659,687.8647057938193
660,687.8855233968534
661,687.9066644863049
662,687.9280890673476
663,687.9497565606462
664,687.971625971537
665,687.9936560638466
666,688.0158055399918
667,688.038033228543
668,688.0602982797103
669,688.0825603687337
670,688.104779907253
671,688.1269182632745
672,688.1489379908058
673,688.1708030701429
674,688.1924791590968
675,688.2139338543652
676,688.2351369609717
677,688.2560607662874
678,688.2766803136853
679,688.2969736695316
680,688.3169221763014
681,688.3365106845312
682,688.3557277573218
683,688.3745658427431
684,688.393021410731
685,688.4110950513511
686,688.4287915309601
687,688.4461198024538
688,688.4630929656031
689,688.4797281735229
690,688.4960464822403
691,688.5120726424896
692,688.5278348355068
693,688.5433643566356
694,688.5586952519667
695,688.573863914952
696,688.5889086523729
697,688.6038692313977
698,688.618786420452
699,688.6337015357952
700,688.6486560037195
701,688.663690946225
702,688.6788467963758
703,688.6941629480499
704,688.7096774430998
705,688.7254266971964
706,688.7414452644363
707,688.7577656403989
708,688.7744181032854
709,688.7914305923098
710,688.8088286213896
711,688.8266352248063
712,688.8448709304295
713,688.8635537554965
714,688.8826992198522
715,688.9023203720161
716,688.9224278240199
717,688.9430297909366
718,688.9641321306033
719,688.9857383792877
720,689.007849780419
721,689.0304653051703
722,689.0535816646399
723,689.0771933134633
724,689.1012924445066
725,689.1258689743004
726,689.1509105189529
727,689.1764023601095
728,689.2023274003217
729,689.2286661076043
730,689.2553964502047
731,689.282493823995
732,689.3099309754343
733,689.3376779224128
734,689.365701874289
735,689.3939671520966
736,689.4224351106321
737,689.4510640655808
738,689.4798092303253
739,689.5086226679707
740,689.5374532641532
741,689.566246725619
742,689.5949456087556
743,689.6234893815192
744,689.6518145217041
745,689.6798546540939
746,689.7075407282802
747,689.7348012376017
748,689.7615624781273
749,689.7877488452564
750,689.8132831643655
751,689.8380870508242
752,689.8620812937044
753,689.8851862568616
754,689.9073222911182
755,689.9284101521521
756,689.9483714199533
757,689.9671289168095
758,689.9846071217646
759,690.0007325806182
760,690.0154343115481
761,690.028644206976
762,690.0402974322053
763,690.0503328204686
764,690.0586932623823
765,690.0653260862256
766,690.0701834248224
767,690.0732225648454
768,690.0744062737941
769,690.0737030982585
770,690.0710876253985
771,690.0665406992156
772,690.0600495844539
773,690.0516080731347
774,690.0412165309707
775,690.0288818825785
776,690.0146175350417
777,689.9984432390715
778,689.9803848868521
779,689.9604742467739
780,689.9387486375949
781,689.9152505469565
782,689.8900272006954
783,689.8631300901081
784,689.8346144646626
785,689.8045387978399
786,689.772964234
787,689.739954024703
788,689.7055729636501
789,689.6698868296938
790,689.6329618467998
791,689.5948641688691
792,689.5556593966863
793,689.515412134032
794,689.4741855897066
795,689.4320412315541
796,689.3890384976726
797,689.3452345692039
798,689.3006842084153
799,689.255439664941
800,689.2095506517871
801,689.1630643911103
802,689.1160257279821
803,689.0684773085145
804,689.0204598172063
805,688.9720122676357
806,688.9231723408078
807,688.8739767659735
808,688.8244617386565
809,688.7746633696805
810,688.7246181576983
811,688.6743634767389
812,688.6239380697822
813,688.5733825392443
814,688.5227398252467
815,688.4720556625324
816,688.4213790071769
817,688.3707624249935
818,688.3202624343594
819,688.2699397966334
820,688.219859747625
821,688.1700921641357
822,688.1207116600266
823,688.0717976059262
824,688.0234340658375
825,687.9757096439064
826,687.9287172363958
827,687.8825536871783
828,687.8373193490006
829,687.7931175568232
830,687.7500540232404
831,687.7082361687745
832,687.667772401388
833,687.6287713600601
834,687.5913411369874
835,687.5555884920357
836,687.5216180716352
837,687.4895316426426
838,687.4594273499334
839,687.4313990045237
840,687.4055354068084
841,687.3819197073136
842,687.3606288058871
843,687.3417327899855
844,687.3252944132598
845,687.3113686163546
846,687.3000020926894
847,687.2912329032742
848,687.2850901458843
849,687.2815936842579
850,687.2807539421068
851,687.2825717654142
852,687.2870383556623
853,687.2941352764291
854,687.3038345357392
855,687.3160987459886
856,687.3308813619423
857,687.3481269954924
858,687.36777180409
859,687.3897439484064
860,687.413964113984
861,687.4403460910694
862,687.4687974058164
863,687.499219994413
864,687.531510909915
865,687.5655630502675
866,687.6012658954347
867,687.638506241966
868,687.6771689248341
869,687.7171375185968
870,687.7582950118284
871,687.8005244496193
872,687.8437095389866
873,687.8877352118665
874,687.9324881403788
875,687.9778571994777
876,688.0237338731869
877,688.0700126023875
878,688.1165910742047
879,688.1633704548669
880,688.2102555690979
881,688.2571550295967
882,688.3039813202811
883,688.3506508373011
884,688.3970838925895
885,688.4432046852786
886,688.4889412458174
887,688.5342253560443
888,688.5789924467612
889,688.6231814734849
890,688.6667347712477
891,688.7095978901935
892,688.7517194147345
893,688.7930507696393
894,688.8335460164816
895,688.8731616438057
896,688.9118563547515
897,688.9495908566995
898,688.9863276581419
899,689.0220308778017
900,689.0566660699236
901,689.0902000682441
902,689.122600850238
903,689.153837423239
904,689.1838797346751
905,689.2126986092222
906,689.2402657155452
907,689.2665535643112
908,689.2915355377677
909,689.3151859498622
910,689.3374801347072
911,689.3583945600468
912,689.3779069614666
913,689.395996492774
914,689.4126438883011
915,689.4278316333107
916,689.4415441387313
917,689.4537679161951
