frame_number,force
0,546.3982200050041
1,546.3762840346257
2,546.3544775898982
3,546.3329288208206
4,546.3117631473499
5,546.2911019466176
6,546.2710613005121
7,546.2517508203988
8,546.2332725636835
9,546.2157200549661
10,546.1991774223953
11,546.1837186571208
12,546.1694070006089
13,546.156294461967
14,546.144421466004
15,546.1338166320504
16,546.1244966824663
17,546.1164664778048
18,546.109719173255
19,546.1042364888848
20,546.0999890845902
21,546.0969370296685
22,546.0950303568586
23,546.0942096916415
24,546.0944069489756
25,546.0955460903671
26,546.0975439337243
27,546.1003110073891
28,546.1037524389772
29,546.1077688695149
30,546.1122573836751
31,546.1171124475226
32,546.1222268460239
33,546.1274926135013
34,546.1328019510412
35,546.1380481255455
36,546.1431263456159
37,546.1479346096366
38,546.1523745210501
39,546.1563520649728
40,546.1597783397078
41,546.1625702370594
42,546.1646510663794
43,546.1659511180957
44,546.16640816273
45,546.1659678814424
46,546.164584224336
47,546.1622196933997
48,546.1588455481939
49,546.1544419342533
50,546.148997936602
51,546.1425115632837
52,546.1349896655245
53,546.1264478013567
54,546.1169100485027
55,546.10640877082
56,546.094984341126
57,546.082684821732
58,546.0695656025306
59,546.0556889951853
60,546.0411237810833
61,546.0259447104912
62,546.0102319510371
63,545.9940704851148
64,545.977549457658
65,545.9607614776297
66,545.9438018782761
67,545.9267679426675
68,545.9097581022852
69,545.8928711171333
70,545.8762052457358
71,545.8598574126901
72,545.8439223809637
73,545.8284919363117
74,545.8136540919114
75,545.7994923220986
76,545.786084834607
77,545.7735038910929
78,545.7618151861183
79,545.7510772948484
80,545.741341199042
81,545.7326498994843
82,545.7250381212535
83,545.718532116564
84,545.7131495685595
85,545.7088995980791
86,545.7057828735454
87,545.7037918216662
88,545.7029109341265
89,545.7031171633982
90,545.7043803992725
91,545.7066640166053
92,545.7099254839849
93,545.7141170226416
94,545.7191863048591
95,545.7250771811649
96,545.7317304254731
97,545.7390844873182
98,545.7470762407519
99,545.755641720278
100,545.7647168348453
101,545.7742380511743
102,545.7841430379179
103,545.7943712627438
104,545.8048645354635
105,545.8155674915333
106,545.8264280112312
107,545.8373975706031
108,545.8484315211305
109,545.8594892960159
110,545.8705345418782
111,545.8815351756091
112,545.8924633673817
113,545.9032954521173
114,545.9140117727994
115,545.9245964597974
116,545.935037150976
117,545.9453246580896
118,545.9554525862637
119,545.9654169153756
120,545.9752155540563
121,545.98484787777
122,545.9943142617965
123,546.0036156185666
124,546.0127529472422
125,546.0217269019081
126,546.0305373834692
127,546.0391831594987
128,546.0476615158717
129,546.055967944036
130,546.0640958680848
131,546.0720364158905
132,546.0797782378947
133,546.0873073757705
134,546.0946071817956
135,546.1016582891191
136,546.1084386331745
137,546.1149235247738
138,546.1210857754461
139,546.1268958754667
140,546.1323222250404
141,546.1373314191028
142,546.1418885854393
143,546.1459577738424
144,546.149502391483
145,546.1524856778555
146,546.154871212245
147,546.1566234472633
148,546.1577082626669
149,546.1580935335891
150,546.1577497059556
151,546.1566503695356
152,546.1547728170012
153,546.1520985763987
154,546.1486139042887
155,546.1443102269176
156,546.1391845174275
157,546.1332395991454
158,546.1264843685606
159,546.1189339357142
160,546.1106096831683
161,546.1015392470583
162,546.0917564252582
163,546.0813010186018
164,546.0702186112381
165,546.0585602952649
166,546.0463823430673
167,546.0337458291639
168,546.0207162027436
169,546.0073628125458
170,545.9937583865101
171,545.9799784689563
172,545.9661008181637
173,545.9522047680738
174,545.9383705600112
175,545.9246786533841
176,545.9112090272807
177,545.8980404867419
178,545.8852499878175
179,545.8729119944388
180,545.8610978782276
181,545.8498753701775
182,545.8393080710216
183,545.8294550252034
184,545.8203703618773
185,545.8121030051838
186,545.8046964548286
187,545.798188636531
188,545.7926118203643
189,545.7879926035873
190,545.7843519531891
191,545.7817053018152
192,545.7800626889797
193,545.7794289378334
194,545.7798038569417
195,545.7811824570939
196,545.7835551752333
197,545.7869081006775
198,545.7912232019422
199,545.7964785545892
200,545.8026485710299
201,545.8097042326049
202,545.8176133234953
203,545.8263406656434
204,545.8358483536554
205,545.846095988292
206,545.8570409066696
207,545.8686384066774
208,545.8808419621918
209,545.8936034246941
210,545.9068732066723
211,545.9206004431702
212,545.9347331295754
213,545.9492182354546
214,545.9640017957826
215,545.9790289825546
216,545.994244161412
217,546.0095909389153
218,546.0250122060003
219,546.0404501822585
220,546.0558464647376
221,546.0711420843953
222,546.0862775729865
223,546.1011930427045
224,546.1158282803059
225,546.1301228568377
226,546.1440162534842
227,546.1574480035815
228,546.1703578507714
229,546.18268592362
230,546.1943729274291
231,546.2053603540343
232,546.2155907101387
233,546.225007764432
234,546.2335568136498
235,546.2411849678688
236,546.2478414553342
237,546.2534779464371
238,546.2580488950515
239,546.2615118939193
240,546.263828039837
241,546.2649623042709
242,546.2648839053089
243,546.2635666768389
244,546.2609894300682
245,546.25713630094
246,546.2519970751061
247,546.2455674808172
248,546.237849440249
249,546.2288512714737
250,546.2185878357217
251,546.2070806266203
252,546.1943577989482
253,546.1804541343045
254,546.1654109411052
255,546.1492758874613
256,546.1321027675656
257,546.113951204288
258,546.0948862921068
259,546.0749781850329
260,546.0543016336682
261,546.0329354743692
262,546.0109620728238
263,545.9884667250562
264,545.9655370207631
265,545.9422621760115
266,545.9187323437981
267,545.8950379112399
268,545.871268791447
269,545.8475137172194
270,545.8238595432027
271,545.8003905629968
272,545.777187847729
273,545.7543286129427
274,545.7318856215746
275,545.7099266321454
276,545.6885139024062
277,545.667703758873
278,545.6475462414444
279,545.6280848296758
280,545.6093562538694
281,545.591390390671
282,545.5742102398317
283,545.5578319763695
284,545.5422650707839
285,545.5275124694971
286,545.5135708281713
287,545.5004307912606
288,545.4880773113817
289,545.4764900018736
290,545.465643515994
291,545.4555079473338
292,545.4460492482929
293,545.4372296660947
294,545.4290081976596
295,545.42134106505
296,545.4141822124184
297,545.4074838239493
298,545.401196860382
299,545.3952716095564
300,545.3896582446006
301,545.3843073823014
302,545.3791706336988
303,545.3742011387683
304,545.3693540773776
305,545.3645871498624
306,545.3598610224615
307,545.3551397349518
308,545.3503910696083
309,545.3455868817945
310,545.3407033927471
311,545.3357214443314
312,545.3306267141788
313,545.3254098885669
314,545.3200667902009
315,545.3145984585807
316,545.3090111816302
317,545.303316478744
318,545.2975310372367
319,545.2916766056759
320,545.2857798479887
321,545.2798721616675
322,545.2739894625917
323,545.2681719385766
324,545.2624637740512
325,545.2569128491386
326,545.2515704172806
327,545.2464907655034
328,545.2417308600066
329,545.2373499774257
330,545.2334093200609
331,545.2299716124439
332,545.2271006768867
333,545.2248609868079
334,545.2233171983457
335,545.2225336626005
336,545.2225739221091
337,545.223500195458
338,545.225372853758
339,545.2282498929453
340,545.2321864067554
341,545.2372340659599
342,545.2434406094713
343,545.2508493526457
344,545.259498718086
345,545.2694217942907
346,545.2806459272933
347,545.2931923503434
348,545.3070758571095
349,545.322304524541
350,545.3388794915862
351,545.3567947990164
352,545.3760372937874
353,545.3965865990023
354,545.4184151479566
355,545.4414882786476
356,545.4657643842829
357,545.4911951157793
358,545.5177256331891
359,545.5452949035139
360,545.5738360419787
361,545.6032766924372
362,545.6335394405768
363,545.6645422520066
364,545.696198927183
365,545.7284195663626
366,545.7611110390866
367,545.7941774528978
368,545.8275206154793
369,545.8610404845774
370,545.8946356015651
371,545.9282035063666
372,545.9616411323155
373,545.9948451792395
374,546.0277124627772
375,546.0601402387116
376,546.0920265028889
377,546.1232702694628
378,546.1537718323026
379,546.1834330160926
380,546.2121574245675
381,546.2398506933728
382,546.2664207543686
383,546.2917781170248
384,546.3158361712934
385,546.3385115153719
386,546.359724310804
387,546.3793986657423
388,546.3974630448995
389,546.4138507024683
390,546.4285001325784
391,546.4413555305074
392,546.4523672566877
393,546.4614922948504
394,546.4686946957319
395,546.4739459986282
396,546.4772256245282
397,546.478521236258
398,546.4778290623686
399,546.4751541817582
400,546.4705107653214
401,546.4639222699606
402,546.4554215796165
403,546.4450510876022
404,546.4328627144208
405,546.4189178558587
406,546.4032872578293
407,546.3860508168001
408,546.3672973067283
409,546.3471240346563
410,546.3256364273822
411,546.302947551269
412,546.2791775669742
413,546.254453121479
414,546.2289066814103
415,546.2026758134967
416,546.1759024191399
417,546.1487319304515
418,546.1213124751712
419,546.0937940180579
420,546.0663274870499
421,546.0390638940811
422,546.0121534625802
423,545.9857447752293
424,545.9599839556773
425,545.9350138965376
426,545.9109735435737
427,545.8879972428063
428,545.8662141536159
429,545.8457477271841
430,545.8267152462997
431,545.8092274200033
432,545.7933880249766
433,545.7792935854835
434,545.7670330852114
435,545.7566877068921
436,545.7483305978388
437,545.7420266607406
438,545.7378323694898
439,545.73579561038
440,545.735955550155
441,545.7383425337504
442,545.7429780154016
443,545.7498745266897
444,545.7590356843078
445,545.7704562395575
446,545.7841221714666
447,545.800010825794
448,545.8180911020687
449,545.8383236894931
450,545.8606613503765
451,545.885049247739
452,545.9114253125192
453,545.9397206457057
454,545.969859951641
455,546.0017620002612
456,546.035340117226
457,546.0705027010362
458,546.1071537653809
459,546.1451935037061
460,546.1845188719153
461,546.2250241844091
462,546.2666017183013
463,546.3091423206488
464,546.3525360140449
465,546.3966725967624
466,546.4414422341424
467,546.4867360377043
468,546.5324466275081
469,546.5784686718348
470,546.6246993968415
471,546.6710390583751
472,546.717391368987
473,546.7636638748987
474,546.8097682796557
475,546.8556207131646
476,546.9011419462562
477,546.9462575513146
478,546.9908980088926
479,547.0349987593878
480,547.0785001988352
481,547.1213476191076
482,547.1634910948045
483,547.2048853207559
484,547.245489404559
485,547.2852666179979
486,547.3241841105124
487,547.3622125878878
488,547.3993259602977
489,547.4355009657061
490,547.4707167771185
491,547.5049546043709
492,547.5381973020338
493,547.570428994322
494,547.6016347261638
495,547.6318001474204
496,547.6609112349877
497,547.6889540553761
498,547.7159145685316
499,547.741778472054
500,547.7665310834627
501,547.7901572566583
502,547.8126413274024
503,547.8339670817194
504,547.8541177407661
505,547.8730759560316
506,547.890823809789
507,547.9073428175288
508,547.9226139313081
509,547.9366175447362
510,547.9493335008896
511,547.960741103966
512,547.9708191350206
513,547.9795458723872
514,547.9868991180297
515,547.992856231323
516,547.9973941714352
517,548.0004895489874
518,548.002118687477
519,548.0022576952014
520,548.0008825490114
521,547.9979691919199
522,547.9934936470729
523,547.9874321507399
524,547.9797613069885
525,547.9704582666491
526,547.9595009326679
527,547.9468681927666
528,547.9325401789175
529,547.9164985520466
530,547.8987268093503
531,547.8792106099897
532,547.85793811283
533,547.834900318439
534,547.8100914076402
535,547.7835090701657
536,547.7551548182756
537,547.725034280684
538,547.6931574717582
539,547.6595390304667
540,547.6241984237818
541,547.5871601105359
542,547.5484536637456
543,547.5081138516715
544,547.4661806800481
545,547.4226993997654
546,547.3777204855076
547,547.3312995910005
548,547.2834974853279
549,547.2343799725321
550,547.1840177944156
551,547.1324865151187
552,547.0798663858079
553,547.0262421878106
554,546.9717030520798
555,546.916342252227
556,546.8602569682225
557,546.8035480184418
558,546.7463195587469
559,546.6886787484929
560,546.6307353846415
561,546.5726015064474
562,546.5143909743222
563,546.4562190271344
564,546.3982018217736
565,546.340455957007
566,546.2830979810432
567,546.2262438800685
568,546.1700085444751
569,546.1145052106718
570,546.0598448784923
571,546.0061357065582
572,545.9534823902274
573,545.9019855287466
574,545.8517409898114
575,545.8028392810296
576,545.7553649389445
577,545.7093959470832
578,545.6650031946515
579,545.622249987007
580,545.581191617997
581,545.5418750123158
582,545.5043384430166
583,545.468611325918
584,545.4347140899762
585,545.4026581210734
586,545.3724457756983
587,545.3440704606663
588,545.3175167755438
589,545.2927607152043
590,545.2697699298566
591,545.2485040387443
592,545.2289149922367
593,545.2109474756462
594,545.1945393467585
595,545.1796220979338
596,545.1661213333136
597,545.1539572526375
598,545.1430451354768
599,545.1332958227503
600,545.1246161951717
601,545.1169096497379
602,545.1100765751632
603,545.1040148261046
604,545.0986201954703
605,545.0937868847589
606,545.08940797361
607,545.08537589049
608,545.0815828861708
609,545.0779215107161
610,545.0742850936765
611,545.0705682265198
612,545.0666672459791
613,545.0624807166354
614,545.0579099103726
615,545.0528592796202
616,545.0472369208763
617,545.0409550248035
618,545.0339303088746
619,545.0260844282571
620,545.0173443608566
621,545.0076427635147
622,544.9969182979806
623,544.985115926791
624,544.9721871800319
625,544.9580903937172
626,544.9427909191055
627,544.9262613002192
628,544.9084814150895
629,544.8894385754181
630,544.8691275791701
631,544.8475507106824
632,544.824717683171
633,544.800645519487
634,544.7753583690362
635,544.7488872618258
636,544.7212698039687
637,544.6925498220118
638,544.662776965751
639,544.6320062803787
640,544.6002977585255
641,544.56771588117
642,544.5343291541628
643,544.5002096450003
644,544.4654325228435
645,544.4300756034081
646,544.3942188989189
647,544.3579441719568
648,544.3213344913497
649,544.2844737886919
650,544.2474464152934
651,544.2103367006493
652,544.1732285144801
653,544.1362048351621
654,544.099347328052
655,544.0627359375811
656,544.0264484966473
657,543.9905603559778
658,543.9551440356778
659,543.9202689016358
660,543.8860008703264
661,543.8524021460183
662,543.819530994229
663,543.7874415545605
664,543.7561836947365
665,543.7258029055087
666,543.6963402334147
667,543.6678322462031
668,543.6403110251011
669,543.6138041789342
670,543.588334876464
671,543.5639218945753
672,543.5405796811239
673,543.5183184323273
674,543.4971441851468
675,543.4770589249864
676,543.4580607085738
677,543.4401438018482
678,543.4232988336855
679,543.4075129682758
680,543.3927701010193
681,543.3790510837255
682,543.3663339842001
683,543.3545943835617
684,543.3438057126272
685,543.3339396267492
686,543.3249664166259
687,543.3168554513004
688,543.309575649313
689,543.3030959744073
690,543.2973859522308
691,543.2924162032932
692,543.2881589851493
693,543.2845887342653
694,543.2816825961687
695,543.2794209315923
696,543.2777877862787
697,543.2767713128214
698,543.2763641340625
699,543.2765636385799
700,543.2773721995386
701,543.2787973091863
702,543.2808516229754
703,543.2835529094621
704,543.286923904436
705,543.2909920703855
706,543.2957892657766
707,543.3013513323608
708,543.3077176118229
709,543.3149304047902
710,543.323034385502
711,543.3320759847632
712,543.3421027528063
713,543.3531627128476
714,543.3653037157746
715,543.3785728066417
716,543.3930156140225
717,543.4086757730146
718,543.4255943914812
719,543.4438095671957
720,543.4633559610818
721,543.4842644285325
722,543.5065617070574
723,543.5302701552158
724,543.5554075357585
725,543.5819868351506
726,543.6100161118429
727,543.6394983665873
728,543.6704314295351
729,543.7028078605541
730,543.7366148610972
731,543.7718341979601
732,543.8084421408739
733,543.8464094166781
734,543.8857011829147
735,543.9262770235528
736,543.9680909695686
737,544.0110915473164
738,544.0552218578315
739,544.100419690281
740,544.146617672706
741,544.1937434629044
742,544.2417199818902
743,544.2904656921885
744,544.3398949231544
745,544.3899182448225
746,544.4404428899963
747,544.491373221665
748,544.5426112401432
749,544.5940571222767
750,544.6456097840473
751,544.6971674580429
752,544.7486282781348
753,544.7998908646194
754,544.850854903582
755,544.9014217146388
756,544.9514948020042
757,545.0009803849016
758,545.0497879041737
759,545.097830502326
760,545.1450254744665
761,545.191294687942
762,545.236564968817
763,545.2807684534773
764,545.3238429035323
765,545.365731981972
766,545.406385488512
767,545.4457595526632
768,545.4838167843449
769,545.5205263831459
770,545.5558642078812
771,545.5898128080388
772,545.6223614188244
773,545.6535059218711
774,545.6832487735518
775,545.7115989016326
776,545.7385715690855
777,545.7641882022165
778,545.7884761796682
779,545.8114685793864
780,545.8332038817822
781,545.8537256286867
782,545.873082039248
783,545.891325585607
784,545.9085125325569
785,545.9247024459646
786,545.9399576747152
787,545.9543428109421
788,545.9679241335194
789,545.9807690399085
790,545.9929454715077
791,546.0045213382772
792,546.0155639499089
793,546.026139462493
794,546.036312350314
795,546.0461449115454
796,546.0556968146361
797,546.0650246900826
798,546.0741817707972
799,546.0832175833801
800,546.0921776917274
801,546.1011034932354
802,546.1100320667567
803,546.118996070962
804,546.1280236919081
805,546.1371386388481
806,546.1463601871659
807,546.1557032669593
808,546.1651785956672
809,546.1747928531408
810,546.1845488971271
811,546.1944460159707
812,546.2044802138104
813,546.2146445222993
814,546.224929332459
815,546.2353227407064
816,546.2458109039766
817,546.2563783998695
818,546.2670085888356
819,546.2776839765576
820,546.2883865753879
821,546.2990982634972
822,546.3098011393622
823,546.3204778679898
824,546.3311120146035
825,546.3416883619157
826,546.3521932081155
827,546.3626146430474
828,546.3729427990088
829,546.383170071039
830,546.3932913009745
831,546.4033039204061
832,546.4132080493507
833,546.4230065491689
834,546.4327050298447
835,546.4423118133424
836,546.4518378562241
837,546.4612966355508
838,546.4707040020992
839,546.4800780044907
840,546.4894386876738
841,546.4988078697762
842,546.5082089022815
843,546.5176664187868
844,546.5272060766631
845,546.5368542942488
846,546.5466379846858
847,546.5565842866056
848,546.5667202915445
849,546.5770727680774
850,546.5876678831418
851,546.5985309217888
852,546.6096860074282
853,546.6211558254093
854,546.6329613536543
855,546.6451216051669
856,546.6576533882112
857,546.6705710901078
858,546.6838864897466
859,546.6976086024775
860,546.7117435592978
861,546.7262945200192
862,546.7412616176028
863,546.7566419290478
864,546.7724294680539
865,546.7886151960154
866,546.8051870496455
867,546.8221299846144
868,546.8394260347608
869,546.8570543861888
870,546.8749914652575
871,546.8932110391581
872,546.9116843274318
873,546.9303801223901
874,546.9492649159012
875,546.9683030293417
876,546.9874567427892
877,547.006686418977
878,547.0259506176611
879,547.0452061972626
880,547.0644084029087
881,547.0835109426605
882,547.1024660559636
883,547.1212245797605
884,547.139736018187
885,547.1579486214372
886,547.1758094783372
887,547.1932646258884
888,547.2102591781058
889,547.2267374762532
890,547.2426432628831
891,547.2579198824196
892,547.2725105108882
893,547.2863584166025
894,547.2994072524076
895,547.3116013788762
896,547.3228862168542
897,547.3332086268063
898,547.3425173113966
899,547.3507632367005
900,547.3579000666151
901,547.3638846045658
902,547.3686772363051
903,547.3722423670891
904,547.3745488457189
905,547.3755703672763
906,547.3752858462923
907,547.3736797527262
908,547.3707424043755
909,547.3664702107242
910,547.3608658642623
911,547.3539384758932
912,547.3457036516626
913,547.3361835092005
914,547.3254066339917
915,547.3134079773691
916,547.300228699152
917,547.285915957666
