frame_number,force
0,610.3593100000772
1,610.2801578802067
2,610.2054890208353
3,610.1392444767193
4,610.0843928813063
5,610.042702487257
6,610.0147624501224
7,610.000233532679
8,609.9982342544621
9,610.0077277109585
10,610.0277911007714
11,610.0577049198436
12,610.0968589439491
13,610.1445216909589
14,610.1995523697364
15,610.2601441896385
16,610.3236786890916
17,610.3867494480157
18,610.4453798199742
19,610.4954148420406
20,610.5330289789225
21,610.5552739030728
22,610.5605847100087
23,610.5491536486885
24,610.523081709937
25,610.4862584738036
26,610.4439924152592
27,610.4024717001141
28,610.3681461912884
29,610.3470984655584
30,610.344452621133
31,610.3638703127363
32,610.407185215583
33,610.4742098700917
34,610.5627208645831
35,610.6686109520969
36,610.7861931599465
37,610.9086393844318
38,611.0285274325397
39,611.1384585572616
40,611.2316958915807
41,611.3027651373579
42,611.347953754116
43,611.3656463737316
44,611.3564482348578
45,611.3230768583303
46,611.2700354656097
47,611.2031092081512
48,611.1287472053363
49,611.0534111646892
50,610.9829758178532
51,610.9222471601108
52,610.8746269548036
53,610.8419197966789
54,610.8242753089186
55,610.8202779898911
56,610.8272086594425
57,610.8414813106485
58,610.8592174041711
59,610.8768808391084
60,610.8918731637199
61,610.9029822327607
62,610.9105952048222
63,610.9166312951891
64,610.9242082084451
65,610.9371110647648
66,610.9591674737115
67,610.9936311526418
68,611.0426444625689
69,611.1068222008362
70,611.1849997457161
71,611.2742008377497
72,611.3698689675088
73,611.4663600565995
74,611.557629293055
75,611.6379874634563
76,611.7027779954387
77,611.7488520959332
78,611.7747855427575
79,611.7808507616006
80,611.7688014792262
81,611.7415443772105
82,611.7027774285115
83,611.656666590537
84,611.6075989335563
85,611.5599993878902
86,611.5181587644955
87,611.486013895323
88,611.466852540184
89,611.4629766154515
90,611.4754122441918
91,611.5037606480688
92,611.5462341861837
93,611.5998554585365
94,611.6607524079997
95,611.7244704491027
96,611.7862439490849
97,611.8412181773415
98,611.8846635509211
99,611.9122398775717
100,611.9203375004415
101,611.9064700805997
102,611.869651727332
103,611.810672234174
104,611.7321914655294
105,611.6386083944884
106,611.5357118739015
107,611.4301683030077
108,611.328927043712
109,611.2386208522875
110,611.1650172224611
111,611.112558914554
112,611.0840269466323
113,611.0803588067367
114,611.1006489578012
115,611.1423409376532
116,611.2015882128837
117,611.2737292956568
118,611.3538140815987
119,611.437130843077
120,611.5196883111846
121,611.5985883810952
122,611.6722039205039
123,611.7400919824014
124,611.8026373232309
125,611.8605047430419
126,611.9140409569932
127,611.9627854934135
128,612.0052199569286
129,612.0388147623075
130,612.0603520056251
131,612.0664459764898
132,612.0541587087707
133,612.0216074801237
134,611.9684729613657
135,611.896329513283
136,611.808731120948
137,611.7110163062463
138,611.609854991838
139,611.5126218146846
140,611.4267006180479
141,611.3587974293736
142,611.3142999244125
143,611.2967073906641
144,611.3071722717513
145,611.3442185209904
146,611.4037060053633
147,611.4790867060951
148,611.5619581270835
149,611.6428742720382
150,611.7123296807271
151,611.7617898599709
152,611.7846125660835
153,611.7767084177553
154,611.7368373693585
155,611.6665178914644
156,611.5696134504362
157,611.4517286140266
158,611.319565794706
159,611.1803516832388
160,611.0413673028872
161,610.9095564189845
162,610.7911743687062
163,610.6914652385237
164,610.6143840374679
165,610.5623828224597
166,610.5362633605873
167,610.5350949102627
168,610.5562133929177
169,610.5953355358793
170,610.646819364815
171,610.7040827786329
172,610.7601644420954
173,610.8083817925302
174,610.8430125791429
175,610.8599061593668
176,610.8569341916508
177,610.8342223130272
178,610.7941425640163
179,610.7410689890271
180,610.6809148684392
181,610.6204966945709
182,610.5668011338897
183,610.5262456507452
184,610.5040107125786
185,610.503494586202
186,610.5259272022176
187,610.5701858143484
188,610.6328606562705
189,610.7086024788384
190,610.7907444126786
191,610.8721342065543
192,610.9460543919537
193,611.0070751359318
194,611.0516949450425
195,611.0786721528777
196,611.0890212092789
197,611.0857227856502
198,611.0732444660465
199,611.0569672625384
200,611.042576111198
201,611.0354380649381
202,611.0399873277343
203,611.0591585888592
204,611.0939359027011
205,611.1430945964233
206,611.2032031863953
207,611.2689172595627
208,611.3335380641511
209,611.3897498380325
210,611.4304272800337
211,611.4494222206102
212,611.4422657066162
213,611.4067325811837
214,611.343210822101
215,611.2548117870656
216,611.1471665272198
217,611.0278927548802
218,610.9057868755762
219,610.7898661656864
220,610.6884167638099
221,610.6081794831505
222,610.5537516305493
223,610.5272349279727
224,610.5281326497093
225,610.5534843766001
226,610.5982133939386
227,610.6556496333535
228,610.7181819219286
229,610.7779820314532
230,610.8277264334981
231,610.8612300058678
232,610.8739132321534
233,610.8630518659165
234,610.8277978459389
235,610.769005567579
236,610.6889371494021
237,610.5909352929439
238,610.479130713506
239,610.3582036674397
240,610.2331765944211
241,610.1092033017137
242,609.9913361485668
243,609.8842716853972
244,609.7920832744518
245,609.7179556437895
246,609.6639528796107
247,609.6308705134686
248,609.6182222108284
249,609.6243807650419
250,609.6468467958351
251,609.6825847827104
252,609.728358418535
253,609.7810114314874
254,609.8376695007202
255,609.8958714444129
256,609.9536487084852
257,610.0095519018995
258,610.0626014868045
259,610.1121533898139
260,610.157713825116
261,610.1987688609032
262,610.23468516745
263,610.2647029457212
264,610.2880126137537
265,610.3038963371774
266,610.3119111042851
267,610.3120781587406
268,610.3050284540731
269,610.2920512652214
270,610.2750138563204
271,610.256155824229
272,610.2377893832091
273,610.2219462988752
274,610.2100183748895
275,610.2024531668733
276,610.1985763890721
277,610.1965988118742
278,610.1938295615615
279,610.1870732221303
280,610.1731459330783
281,610.1494153200861
282,610.1142620624515
283,610.0673829402455
284,610.0098963115458
285,609.9442496123254
286,609.8739520000684
287,609.8031699257853
288,609.7362366715626
289,609.6771327398747
290,609.6289897048755
291,609.5936697619154
292,609.5714830678703
293,609.5611055816777
294,609.5597352499557
295,609.5634865961207
296,609.5679918808057
297,609.569147498779
298,609.5639023535068
299,609.5509372342477
300,609.5310655514854
301,609.5072246563122
302,609.4840149505399
303,609.4668514749451
304,609.4608960436033
305,609.4700101277119
306,609.4959692751448
307,609.5380954788167
308,609.5933416677108
309,609.6567663569901
310,609.7222848917207
311,609.7835566691022
312,609.834852606066
313,609.8717521737351
314,609.891556450094
315,609.8933712801576
316,609.8778932587782
317,609.8469955909038
318,609.8032435595642
319,609.7494608206998
320,609.6884206221429
321,609.622674728636
322,609.5544894297458
323,609.4858471575902
324,609.4184864616209
325,609.3539697843242
326,609.2937657517072
327,609.2393149916425
328,609.1920440781373
329,609.1533152031092
330,609.1243319808043
331,609.1060390143323
332,609.0990465216056
333,609.1035902494376
334,609.11951469332
335,609.1462561032837
336,609.1828057953145
337,609.2276483041059
338,609.2786866679594
339,609.3331894818976
340,609.3878141639523
341,609.4387554044997
342,609.4820249317435
343,609.513811597175
344,609.5308423054486
345,609.5306856806985
346,609.5119875170637
347,609.4746552809156
348,609.4199995086461
349,609.3508123491304
350,609.2713442966269
351,609.187136475152
352,609.1046746934934
353,609.0308573735709
354,608.9723152631108
355,608.9346707293729
356,608.9218524457011
357,608.9355760931847
358,608.9750748671672
359,609.0371315846542
360,609.1164278070991
361,609.2061747939124
362,609.2989303628702
363,609.3874625772289
364,609.465523876446
365,609.5284445801493
366,609.5735073576808
367,609.6000912566105
368,609.6095766963432
369,609.6050136572677
370,609.5905957501863
371,609.5710317767355
372,609.55092521626
373,609.5342529615388
374,609.5240013639659
375,609.5219898968309
376,609.5288902857303
377,609.5444224569327
378,609.5676730301543
379,609.5974469216943
380,609.6325522554863
381,609.671950520264
382,609.714766514231
383,609.7602142420171
384,609.8075266358588
385,609.8559658694356
386,609.9049437994388
387,609.9542219572634
388,610.0041149878106
389,610.055608628671
390,610.1103256195049
391,610.170317482155
392,610.237706649298
393,610.3142385099696
394,610.4008274796104
395,610.4971964221983
396,610.6017016703868
397,610.7113962427768
398,610.8223248547133
399,610.9299889973961
400,611.0298837346793
401,611.1180014184223
402,611.1912272210049
403,611.2476019320333
404,611.2864654754705
405,611.308498126545
406,611.3156582261521
407,611.3110087326136
408,611.2984434181147
409,611.2823440905728
410,611.2671994099836
411,611.2572045908258
412,611.2558656454786
413,611.2656528757652
414,611.2877618113571
415,611.322027587832
416,611.3670049472432
417,611.4201880309059
418,611.4783185363624
419,611.5377242322648
420,611.5946369817175
421,611.6454509339195
422,611.6868944124877
423,611.7161079998932
424,611.7306491260277
425,611.7284714807555
426,611.7079392473356
427,611.6679203966663
428,611.6079630795444
429,611.5285109820952
430,611.4310817114515
431,611.3183347522483
432,611.1939880410413
433,611.0625850027724
434,610.9291522389317
435,610.7988135625858
436,610.676427142262
437,610.5662843488515
438,610.4718700273182
439,610.3956646087983
440,610.3389799116607
441,610.3018468069249
442,610.2829931197683
443,610.2799534992212
444,610.2893352426562
445,610.3072264081751
446,610.3296876199643
447,610.3532369460703
448,610.3752328192857
449,610.3940844351475
450,610.4092615710779
451,610.4211217712663
452,610.4306128960435
453,610.4389350981012
454,610.4472442807944
455,610.4564450289871
456,610.4670784766862
457,610.4792868269644
458,610.4928323006432
459,610.5071522524466
460,610.5214392654059
461,610.5347417653471
462,610.5460836928924
463,610.5546036053953
464,610.559712522605
465,610.5612567331847
466,610.5596494431495
467,610.5559216709685
468,610.5516498695331
469,610.5487420152764
470,610.5490968290038
471,610.5541855646311
472,610.5646376130176
473,610.5799307881246
474,610.5982789654954
475,610.6167717608067
476,610.6317734886134
477,610.6395426596077
478,610.6369764589882
479,610.6223201168857
480,610.5956490705071
481,610.5589713562165
482,610.5159026566049
483,610.4709900431044
484,610.4288537059889
485,610.3933542687141
486,610.3669732669445
487,610.3505236272673
488,610.3432070634487
489,610.3429438566709
490,610.3468512377095
491,610.3517430122514
492,610.354544234408
493,610.3525481618881
494,610.3434937889434
495,610.3255096343419
496,610.2970279620747
497,610.2567865316655
498,610.203984898579
499,610.138572912435
500,610.0615699672273
501,609.9752823577084
502,609.8833097586161
503,609.7902921598959
504,609.7014176419973
505,609.6217720330359
506,609.5556587437551
507,609.5060357812482
508,609.4741865118209
509,609.459670525001
510,609.4605298023477
511,609.4736813829919
512,609.4954117380802
513,609.5218918148388
514,609.5496483648277
515,609.5759469799348
516,609.5990572598306
517,609.6183839968315
518,609.6344657653509
519,609.6488582454174
520,609.663925294725
521,609.6825581198742
522,609.7078409850168
523,609.7426875642387
524,609.7894838395214
525,609.8497793151464
526,609.9240600332312
527,610.0116247839771
528,610.1105791442712
529,610.2179485069156
530,610.3298831112234
531,610.4419050879632
532,610.5491527595777
533,610.646606760723
534,610.7293121511558
535,610.7926217163322
536,610.8324745567173
537,610.8457005534939
538,610.8303225541131
539,610.7858251137826
540,610.7133634484451
541,610.6158827859986
542,610.4981056962329
543,610.3663404627298
544,610.2280841982626
545,610.0914404520356
546,609.9644209845895
547,609.8542268359696
548,609.7665988311479
549,609.7053118171025
550,609.6718721603305
551,609.6654542712149
552,609.6830727250608
553,609.7199474867157
554,609.7700049652439
555,609.8264737146013
556,609.8825547411121
557,609.9321350241318
558,609.9704651932162
559,609.9946810351869
560,610.0040589628245
561,609.999957344868
562,609.9854689569838
563,609.9648622760142
564,609.9429160559743
565,609.9242567451959
566,609.9127945060478
567,609.9113262700557
568,609.9213359482203
569,609.9429764338264
570,609.975185321822
571,610.0158840962633
572,610.0622272860156
573,610.1108817066598
574,610.1583214880233
575,610.2011260830232
576,610.2362663545114
577,610.2613586451802
578,610.2748614542696
579,610.2761892093546
580,610.2657287230438
581,610.2447655390778
582,610.2153467418533
583,610.1801096835104
584,610.1420932464744
585,610.1045338968198
586,610.070644197679
587,610.0433774354299
588,610.0251915670905
589,610.0178310664197
590,610.0221471648798
591,610.0379818588028
592,610.0641482084155
593,610.098539720631
594,610.1383844844529
595,610.1806212621777
596,610.2223291628344
597,610.2611165694337
598,610.2953800423614
599,610.3243717018029
600,610.3480586137434
601,610.3668162196817
602,610.381051716303
603,610.3908797255435
604,610.3959603539944
605,610.3955580857796
606,610.3888018547414
607,610.3750536775174
608,610.3542587806177
609,610.3271683255244
610,610.2953851258521
611,610.2612491035488
612,610.2276171002154
613,610.1975928203598
614,610.1742436823423
615,610.1603201904423
616,610.1579837851717
617,610.1685600559125
618,610.1923582842564
619,610.228611172957
620,610.2755708865557
621,610.330754399004
622,610.3912873339106
623,610.4542712280393
624,610.5170968161489
625,610.5776412649648
626,610.6343197743622
627,610.6860044811989
628,610.7318562017065
629,610.7711235081678
630,610.8029580289863
631,610.8262928116043
632,610.8398326416161
633,610.8421906917607
634,610.8321606921412
635,610.8090557266718
636,610.7730104955446
637,610.7251524380439
638,610.6675866680181
639,610.6031919872106
640,610.535282929036
641,610.4672412238996
642,610.4022296416742
643,610.3430582495528
644,610.2921995160691
645,610.2518830990947
646,610.2241756221181
647,610.2109742913591
648,610.2138950778001
649,610.2340835544845
650,610.2719978868234
651,610.3272054894433
652,610.3982146326833
653,610.4823599487812
654,610.5757853985486
655,610.673587694551
656,610.7701595722934
657,610.8597087931566
658,610.936865307418
659,610.9972625122402
660,611.0379964236508
661,611.0579090533628
662,611.0576833501841
663,611.0397626082793
664,611.0081160927461
665,610.9678721822282
666,610.9248425637636
667,610.8849729031703
668,610.8537715510042
669,610.8357749473129
670,610.8340989149973
671,610.8501080980012
672,610.883229765278
673,610.9309469729768
674,610.9890084240675
675,611.0518645923353
676,611.1132846836241
677,611.1670543087345
678,611.2076295162382
679,611.2306450190353
680,611.2332316421993
681,611.2141536530986
682,611.1738013427018
683,611.114072476422
684,611.0381701890068
685,610.950344583693
686,610.8556044699691
687,610.7594157697879
688,610.6673860178453
689,610.584923792602
690,610.5168673296328
691,610.4670923860925
692,610.4381297248233
693,610.4308478194719
694,610.4442727348041
695,610.475598547884
696,610.5203915739021
697,610.5729519816515
698,610.6267915666675
699,610.6751911778122
700,610.7117889242546
701,610.7311347148589
702,610.7291507252701
703,610.7034569582512
704,610.6535407640781
705,610.5807658462761
706,610.4882339481143
707,610.38052824264
708,610.2633714279731
709,610.1432206974756
710,610.0268091834748
711,609.9206445002327
712,609.8304902189916
713,609.7608768900485
714,609.7147072354646
715,609.6930215733319
716,609.694961232645
717,609.7179230096583
718,609.7578723965207
719,609.8097902664276
720,609.8682388341917
721,609.9280172838907
722,609.9848381544952
723,610.0359213784596
724,610.0803987273135
725,610.1194473462787
726,610.1561099574049
727,610.1948015924133
728,610.2405516076577
729,610.2980833925411
730,610.3708777699663
731,610.460384180689
732,610.565530470116
733,610.682637487929
734,610.8057708218985
735,610.9274704594012
736,611.0397191591529
737,611.1349751423363
738,611.2071114995109
739,611.2521469589402
740,611.2686935876056
741,611.2580860946259
742,611.2242020313569
743,611.1730226200101
744,611.1120028648515
745,611.0493155580707
746,610.9930256560626
747,610.9502596446789
748,610.9264580897268
749,610.9248146035743
750,610.9459864427811
751,610.9881104998128
752,611.0470993489181
753,611.1171536439526
754,611.1914156948674
755,611.2626903842056
756,611.3241615684125
757,611.3700336597163
758,611.3960329251668
759,611.399718879927
760,611.3805887832244
761,611.3399962295281
762,611.2809286084971
763,611.2076953028837
764,611.1255764554194
765,611.0404674888097
766,610.9585257341556
767,610.8858019869496
768,610.8278435104589
769,610.7892819238486
770,610.7734446376527
771,610.782034471453
772,610.8149135673973
773,610.870021331641
774,610.9434595251009
775,611.0297781071843
776,611.1224716032697
777,611.214645630887
778,611.2997642666314
779,611.3723684814805
780,611.4286617704771
781,611.4668754467992
782,611.4873520602654
783,611.4923293592676
784,611.485464920387
785,611.4711944622898
786,611.4540441575492
787,611.4380082495162
788,611.4260670950073
789,611.4198819227737
790,611.4196807927185
791,611.4243451252916
792,611.4316990615322
793,611.4389742626705
794,611.4433731936806
795,611.4426174543369
796,611.435376405022
797,611.4215194634248
798,611.4021851066692
799,611.3796816788363
800,611.3572369115085
801,611.3386228714061
802,611.3277114068273
803,611.3280416938813
804,611.3424807292888
805,611.373024915272
806,611.4207409880682
807,611.4858008551533
808,611.5675507918198
809,611.6645760010605
810,611.7747528184102
811,611.8952955099535
812,612.0228036998424
813,612.1533183348765
814,612.2824038967383
815,612.405283143522
816,612.5170497586005
817,612.6129698238378
818,612.6888566728276
819,612.7414755823521
820,612.7689157991674
821,612.7708620722814
822,612.7487075918532
823,612.7054746357122
824,612.6455436199104
825,612.5742289984593
826,612.4972723672307
827,612.4203344200325
828,612.3485512418014
829,612.2861939199914
830,612.236456897824
831,612.2013970567688
832,612.1820284778239
833,612.1785391577222
834,612.1905590312903
835,612.2174035016791
836,612.258246093592
837,612.3122116245885
838,612.378403088853
839,612.4558796779941
840,612.5436013916228
841,612.6403551816928
842,612.7446768533184
843,612.8547770154994
844,612.968473701312
845,613.083143397266
846,613.195726000888
847,613.3028357663609
848,613.4010196141729
849,613.4871647336757
850,613.5590034473139
851,613.6156198224722
852,613.6578505486959
853,613.6884900230656
854,613.7122396050078
855,613.7353765645986
856,613.7651617141685
857,613.809052087557
858,613.8738258362126
859,613.964750141464
860,614.0849173063996
861,614.2348344370934
862,614.4122987342969
863,614.6125568793468
864,614.8287375925537
865,615.0525295054209
866,615.2750339898867
867,615.487681251953
868,615.6830922965669
869,615.8557965645269
870,616.0027481346459
871,616.1236092066555
872,616.220789675006
873,616.2992409290383
874,616.3659977285033
875,616.4294652464012
876,616.4984857185431
877,616.5812847690723
878,616.6844547759222
879,616.8121473901986
880,616.9656086570701
881,617.1431119249272
882,617.3402577887028
883,617.5505512958266
884,617.7661498321502
885,617.9786878491925
886,618.1801040356106
887,618.3634098192613
888,618.5233417343542
889,618.6568377552978
890,618.7632832129451
891,618.8444958852388
892,618.9044548698461
893,618.9488115790689
894,618.9842483199692
895,619.0177651107919
896,619.0559743727677
897,619.1044717797203
898,619.1673413427884
899,619.2468482939028
900,619.3433653362356
901,619.4555496831471
902,619.5807364239698
903,619.7154588336247
904,619.8559744029067
905,619.9986780776665
906,620.1403228336869
907,620.278035456265
908,620.4091849612614
909,620.5311957156528
910,620.641386608391
911,620.7368852836975
912,620.8146390806302
913,620.8715297934706
914,620.9045917511378
915,620.9113201652378
916,620.8900297467742
