frame_number,force
0,575.5650000000289
1,575.3540804114865
2,575.1544661763995
3,574.9764492866224
4,574.8284383152748
5,574.7163395469441
6,574.6432347086707
7,574.6093375201921
8,574.6121772458641
9,574.6469581194705
10,574.7070580732832
11,574.7846360880421
12,574.8713112151203
13,574.958868050769
14,575.0399359064095
15,575.1085748459172
16,575.1606840136467
17,575.1941474867369
18,575.2086702292457
19,575.2053276811378
20,575.1859311707983
21,575.1523691127
22,575.1060994265118
23,575.0479289488704
24,574.9781270005234
25,574.8968139559223
26,574.8044822525353
27,574.7024777565903
28,574.5933032224177
29,574.4806787317308
30,574.369360623955
31,574.2647551056737
32,574.1723780634593
33,574.0972281525968
34,574.0431536785032
35,574.0122920992466
36,574.0046473168528
37,574.0178622938462
38,574.047246770862
39,574.0861107687555
40,574.1264105500464
41,574.1596356724542
42,574.1777870111302
43,574.1742606662831
44,574.1444808594798
45,574.0861999480006
46,573.9994721121786
47,573.8863741146354
48,573.7505685866058
49,573.596789635626
50,573.4303093767852
51,573.256439232107
52,573.0801246908478
53,572.9056896734637
54,572.7367679652122
55,572.5764231190757
56,572.4274111602771
57,572.2924983783989
58,572.1747241322953
59,572.0775016914283
60,572.0044847441767
61,571.959196665538
62,571.9445031805938
63,571.962065192309
64,572.0119109311044
65,572.0922250378457
66,572.1993955190595
67,572.3283068897885
68,572.4728223714677
69,572.6263642721773
70,572.7824930108808
71,572.9354063090736
72,573.0803176321893
73,573.2137082337447
74,573.3334652218917
75,573.4389151123079
76,573.5307533493175
77,573.6108742879019
78,573.6821214840095
79,573.7479876564754
80,573.8122913736556
81,573.8788537929742
82,573.9511991600311
83,574.0323012387661
84,574.1243944827299
85,574.2288691960393
86,574.3462658590822
87,574.4763617058042
88,574.6183102193975
89,574.7707751375741
90,574.9320082603434
91,575.0998516474658
92,575.2716872368421
93,575.4443876465501
94,575.6143185261701
95,575.7774139462425
96,575.9293262870793
97,576.0656506644041
98,576.1822166378405
99,576.275417788126
100,576.3425367379845
101,576.3820334714593
102,576.3937778826345
103,576.3792011163829
104,576.3413253196635
105,576.2846358252593
106,576.2147879699066
107,576.1381691656549
108,576.0613498069779
109,575.9904654672704
110,575.9305905114838
111,575.8851797052164
112,575.8556557656204
113,575.8412151935445
114,575.8389210598943
115,575.8441259185254
116,575.8511900408724
117,575.8543507304944
118,575.8485300887066
119,575.8298972051713
120,575.7961111960097
121,575.746290661821
122,575.6808116443506
123,575.6010173030356
124,575.5088796090812
125,575.4066408092393
126,575.2964789042061
127,575.1802506000599
128,575.0593523197713
129,574.9347141486787
130,574.8069093500458
131,574.676331178708
132,574.5433741474984
133,574.4085627372992
134,574.2725909163403
135,574.1362721679557
136,574.0004493936432
137,573.8659498766427
138,573.7336582808249
139,573.6047195157212
140,573.4808103429943
141,573.3643695706811
142,573.2586638356133
143,573.167594571378
144,573.0952233568606
145,573.045088301591
146,573.0194672867746
147,573.0187810819392
148,573.0413022198633
149,573.0832513032784
150,573.1392571087378
151,573.2030734915098
152,573.2684026662762
153,573.329663232177
154,573.3825591109173
155,573.4243602169091
156,573.4538880560516
157,573.471274622606
158,573.4775977452729
159,573.4744851528027
160,573.463748615896
161,573.4470922351667
162,573.4259396556839
163,573.4014156726536
164,573.3744814448887
165,573.346175477966
166,573.3178778428536
167,573.2915042000786
168,573.2695539471446
169,573.254978921047
170,573.2508872160258
171,573.2601320404673
172,573.2848545863153
173,573.3260599534505
174,573.3833101307658
175,573.4546120693126
176,573.5365518737038
177,573.6246758684166
178,573.7140587011712
179,573.7999484981253
180,573.8783552655749
181,573.946458441662
182,574.0027538814862
183,574.0469319219374
184,574.0795542541501
185,574.1016492000892
186,574.1143562188403
187,574.1187226720725
188,574.1156991644874
189,574.1063096556732
190,574.0919111900964
191,574.074426074064
192,574.056436288769
193,574.0410738732844
194,574.0317080426157
195,574.0314930230799
196,574.0428718034854
197,574.0671230891141
198,574.104013548451
199,574.1516065931053
200,574.2062917663692
201,574.2631054643725
202,574.3163705953148
203,574.3605849015704
204,574.3913821601355
205,574.4063327023663
206,574.4053677615723
207,574.3907095455163
208,574.3663392614861
209,574.3371722985995
210,574.3081657730462
211,574.2835473684787
212,574.2662717244547
213,574.257737779166
214,574.2577642047212
215,574.2648054470437
216,574.2763663724256
217,574.289534721746
218,574.3015228171487
219,574.310111367562
220,574.3139172906244
221,574.3124563246207
222,574.3060265845286
223,574.295481539809
224,574.2819738205251
225,574.266729811739
226,574.2508720950187
227,574.2352738685443
228,574.2204348401619
229,574.206405018872
230,574.1928078378735
231,574.1789900427885
232,574.164265711397
233,574.148176681985
234,574.1306954285342
235,574.1123351687515
236,574.0941677101465
237,574.0777619330161
238,574.0650582531931
239,574.0582083492536
240,574.059427701659
241,574.0709028881887
242,574.0947595434571
243,574.1330553942062
244,574.1877429075737
245,574.2605556002121
246,574.352798679624
247,574.4650512768172
248,574.5968148249952
249,574.7461822530021
250,574.9096423465758
251,575.0821327530886
252,575.257395263451
253,575.4285975607149
254,575.5891136124314
255,575.7333248546707
256,575.8573071592157
257,575.959282296194
258,576.039735057067
259,576.1011500738015
260,576.1474149204382
261,576.1830357634263
262,576.2123619073539
263,576.238983486736
264,576.2653767753412
265,576.2927864847898
266,576.3212961533726
267,576.3500376084309
268,576.3774975044627
269,576.4018767947875
270,576.4214483286396
271,576.4348454081336
272,576.4412124392171
273,576.4401726183432
274,576.4316203709944
275,576.4154086992144
276,576.3910400620679
277,576.3574623825785
278,576.313028107794
279,576.2556232970043
280,576.1829385112576
281,576.0928342939926
282,575.9837400375321
283,575.8550168199347
284,575.7072261708697
285,575.5422779305713
286,575.3634572229807
287,575.1753321302035
288,574.983529169856
289,574.7943602346975
290,574.6143057361083
291,574.4493946838655
292,574.3045567998412
293,574.1830448049626
294,574.0860302090708
295,574.0124561952189
296,573.9591884815584
297,573.9214530901235
298,573.8935009127205
299,573.8693991373497
300,573.8438290316594
301,573.8127794762221
302,573.7740606050937
303,573.7275967522645
304,573.6754722471945
305,573.6217057017479
306,573.5717451365875
307,573.5317184807163
308,573.5075232319284
309,573.503874756574
310,573.5234526323426
311,573.5662864383874
312,573.6294934393424
313,573.7074190695031
314,573.7921566977252
315,573.8743611701984
316,573.9442384922344
317,573.9925911061124
318,574.0118051893244
319,573.9966681917101
320,573.9449101549786
321,573.8573903175284
322,573.737905053558
323,573.592657898651
324,573.4294858933852
325,573.25696677399
326,573.0835359867657
327,572.916720365142
328,572.7625516180597
329,572.6251801213436
330,572.506694428524
331,572.4071593537735
332,572.3248783477268
333,572.2568418476252
334,572.1992659612524
335,572.1481000742233
336,572.09940870011
337,572.0495970161268
338,571.995520118697
339,571.934562698518
340,571.8647744975983
341,571.7850929333658
342,571.6956045365716
343,571.597737816998
344,571.4942767085643
345,571.389135720191
346,571.2869156747626
347,571.1923281131901
348,571.1096123826516
349,571.0420622511853
350,570.9917421720568
351,570.9594312623169
352,570.9447903879145
353,570.9466964551026
354,570.9636413316188
355,570.9940808790503
356,571.036651843568
357,571.0902290249409
358,571.1538448606889
359,571.2265267031283
360,571.3071230923426
361,571.394187470654
362,571.4859646055131
363,571.5804897364079
364,571.675778273641
365,571.7700616721525
366,571.862008164939
367,571.9508564218369
368,572.0364022837506
369,572.11882443343
370,572.198395696128
371,572.2751663952588
372,572.3487073869859
373,572.4179781325696
374,572.481359934495
375,572.5368629872868
376,572.5824645993711
377,572.6164797886378
378,572.6378492361811
379,572.6462768901536
380,572.6422257549538
381,572.6268277439715
382,572.6017640537934
383,572.5691524720521
384,572.5314603119538
385,572.4914482162841
386,572.4521410236515
387,572.4168183032333
388,572.3890104508424
389,572.3724699714378
390,572.3710738425016
391,572.3886201789339
392,572.42851232131
393,572.4933588178232
394,572.5845433545824
395,572.7018355700766
396,572.8431261635657
397,573.0043682271526
398,573.1797795225149
399,573.3623120374054
400,573.5443391202317
401,573.7184570144867
402,573.8782614291222
403,574.018961817683
404,574.1377385226959
405,574.233804989831
406,574.3081886068792
407,574.363294515345
408,574.4023654000116
409,574.4289678903458
410,574.4466030965045
411,574.4584775143273
412,574.467419840646
413,574.4759009050924
414,574.486094294359
415,574.4999002453403
416,574.5188637030383
417,574.5439639190394
418,574.5753203083995
419,574.6119096589931
420,574.6514032871214
421,574.690217886105
422,574.7238394082725
423,574.7474207327449
424,574.7565733035125
425,574.7481933628759
426,574.7211212355501
427,574.6764606153986
428,574.6174860698817
429,574.5491932696386
430,574.4776298309367
431,574.409154028942
432,574.349730259546
433,574.3043322229508
434,574.2765091302066
435,574.2681618366146
436,574.2795522958381
437,574.3095279539198
438,574.3559005015948
439,574.415898746543
440,574.4866239100971
441,574.5654569566407
442,574.6503868477722
443,574.7402411018983
444,574.834802924296
445,574.9347963235401
446,575.0417245448383
447,575.1575638583521
448,575.2843411192792
449,575.4236557684044
450,575.5762352977933
451,575.741618367531
452,575.918030086617
453,576.1024623223343
454,576.2909275159375
455,576.4788378397918
456,576.6614680276383
457,576.8344669020446
458,576.9943701891643
459,577.1390377031532
460,577.2679169826499
461,577.3820555383002
462,577.4838517162462
463,577.5766135422155
464,577.6640379086609
465,577.7497131058859
466,577.8367053832399
467,577.9272482920773
468,578.0225377772352
469,578.1226430086176
470,578.2265452708718
471,578.332300432118
472,578.437295997547
473,578.5385543045771
474,578.6330227936772
475,578.7177951924343
476,578.7902286706308
477,578.8479558813582
478,578.8888219821276
479,578.9107961840773
480,578.9119186525622
481,578.8903453286055
482,578.8445299863424
483,578.7735278982893
484,578.6773426421579
485,578.5572042876611
486,578.4156796112247
487,578.2565622905032
488,578.0845559876761
489,577.904827917499
490,577.7225501363224
491,577.5425406923233
492,577.3690694548108
493,577.2058258651942
494,577.0559862911696
495,576.9222912408574
496,576.8070565217693
497,576.7120850596887
498,576.6384947700301
499,576.5865173194971
500,576.5553446668177
501,576.543096251415
502,576.5469472144597
503,576.5634092128657
504,576.5887096214774
505,576.6191863762033
506,576.6516120577768
507,576.6833859552281
508,576.7125778515519
509,576.737848386347
510,576.7582917203378
511,576.7732491922089
512,576.782131230958
513,576.7842592732956
514,576.7787175690621
515,576.7642170042831
516,576.7390198669212
517,576.7010107678592
518,576.6479811735041
519,576.578127206857
520,576.4906804254774
521,576.3865313798293
522,576.2686799123281
523,576.1423628635299
524,576.0147766880307
525,575.8944177456416
526,575.7901643882109
527,575.7102763550743
528,575.661475513326
529,575.648222412278
530,575.6722522990706
531,575.7324011085914
532,575.8247306761008
533,575.9429409948208
534,576.0790287613779
535,576.2241125409998
536,576.3693067759825
537,576.5065170905696
538,576.6290611990844
539,576.7320726772468
540,576.8126892806406
541,576.8700516681687
542,576.9051464684977
543,576.9205289666055
544,576.9199628515058
545,576.9080184134043
546,576.8896732360695
547,576.8699576994501
548,576.8536772603335
549,576.8452225472171
550,576.848453647384
551,576.8666265015285
552,576.9023184683148
553,576.9573070799659
554,577.0323748623975
555,577.1270648132974
556,577.2394730626779
557,577.3661949834076
558,577.502516669998
559,577.6428727327183
560,577.7814986993395
561,577.9131317131421
562,578.0335967433699
563,578.1401626432922
564,578.2316258147673
565,578.3081387075576
566,578.3708368277534
567,578.4213417022378
568,578.4612339475466
569,578.4915995568155
570,578.5127515045438
571,578.5242100201449
572,578.5249759567375
573,578.514048406936
574,578.4910438978611
575,578.4567240979246
576,578.4132718108224
577,578.3642483250775
578,578.3142559633039
579,578.268379900699
580,578.2315009083924
581,578.2075791571946
582,578.1990178597132
583,578.2062157752291
584,578.2273965554612
585,578.258756297353
586,578.294908146032
587,578.3295455333384
588,578.3562132743301
589,578.3690714944198
590,578.3635507148998
591,578.3368185019922
592,578.2880074850699
593,578.2181912285067
594,578.1301332019307
595,578.0278655844526
596,577.9161734300395
597,577.8000667882895
598,577.6843197601191
599,577.5731403609582
600,577.4700065107727
601,577.377659892871
602,577.2982025497431
603,577.2332168323843
604,577.1838382962311
605,577.1507371201288
606,577.1339928869078
607,577.1328843328023
608,577.1456592577414
609,577.1693773951556
610,577.1999062356601
611,577.2321029279278
612,577.2601676160415
613,577.2781264272687
614,577.2803897160195
615,577.2623233926186
616,577.2207702349751
617,577.1544652080594
618,577.0642977166195
619,576.9533809967348
620,576.8268999709173
621,576.6917317111115
622,576.5558671339954
623,576.4276967184285
624,576.3152428924582
625,576.2254256836513
626,576.1634447461004
627,576.1323535834586
628,576.132884239724
629,576.1635438582405
630,576.2209495961499
631,576.3003170321219
632,576.3959995741317
633,576.5020029496562
634,576.6124490945039
635,576.7220018025912
636,576.8262678763017
637,576.9221572057093
638,577.0081509653005
639,577.084415103869
640,577.152713644149
641,577.2161114788026
642,577.2784942253861
643,577.3439683303827
644,577.4162352313731
645,577.4980453320316
646,577.5908196116484
647,577.6944877131964
648,577.8075480859192
649,577.9273160028747
650,578.0502927252488
651,578.1725713238351
652,578.2902016375099
653,578.399472027909
654,578.4971123549892
655,578.5804500406133
656,578.6475452605392
657,578.6973072226073
658,578.7295731719979
659,578.7451261477994
660,578.7456348017007
661,578.7335088161884
662,578.7116703047687
663,578.6832490953104
664,578.6512237055683
665,578.6180492087836
666,578.5853302761965
667,578.5536007553064
668,578.5222526611848
669,578.4896218516936
670,578.4531998067707
671,578.4099195235117
672,578.3564716719076
673,578.289638210727
674,578.2066541284523
675,578.1055933244186
676,577.9857266743659
677,577.8477623155284
678,577.6938911792478
679,577.5276229356642
680,577.3534651806859
681,577.1765239780674
682,577.0020785538613
683,576.8351483871
684,576.6800698999768
685,576.5401258472845
686,576.4172855629868
687,576.3120991127324
688,576.2237504292181
689,576.1502305882407
690,576.0885652557066
691,576.0350401299321
692,575.9854097137014
693,575.935115848002
694,575.8795545743145
695,575.8144110342575
696,575.7360483117008
697,575.6419024389102
698,575.5308102180035
699,575.4031880487888
700,575.2610017854513
701,575.1075204347702
702,574.9469054085807
703,574.7837200334958
704,574.6224407225286
705,574.4670281467002
706,574.3205967043589
707,574.185208402665
708,574.0618010975935
709,573.9502371412192
710,573.8494389636598
711,573.7575744191074
712,573.672269956641
713,573.5908573063709
714,573.5106762814625
715,573.4294373372489
716,573.3455974829768
717,573.2586589490738
718,573.1692979894796
719,573.0792765117498
720,572.9911553085782
721,572.9078810196731
722,572.8323402538001
723,572.7669635801016
724,572.7134347918278
725,572.6725331079828
726,572.6441117842585
727,572.6271946909836
728,572.6201555268284
729,572.6209351824978
730,572.6272527827922
731,572.6367784876638
732,572.6472605913916
733,572.6566248166855
734,572.6630739383595
735,572.6652020401184
736,572.6621079575663
737,572.6534691533647
738,572.6395392320219
739,572.6210613874665
740,572.5991311246729
741,572.5750678075063
742,572.5503440961378
743,572.526580835059
744,572.5055707810776
745,572.4892684105082
746,572.4796781603685
747,572.4785928751741
748,572.4871843133117
749,572.5055189659255
750,572.5321333351263
751,572.5638188738935
752,572.59572604648
753,572.621817660749
754,572.635615971684
755,572.631118578839
756,572.603714935158
757,572.5509274790827
758,572.472835413901
759,572.3721096719574
760,572.2536760607595
761,572.1241001380886
762,571.9908222775391
763,571.8613582760415
764,571.7425432168825
765,571.6398639537563
766,571.5569124885956
767,571.4949980857258
768,571.4529696010719
769,571.4273000125635
770,571.4124567129093
771,571.4015323322805
772,571.3870608560864
773,571.3619013386722
774,571.3200458383188
775,571.2572174110293
776,571.1711721849816
777,571.061688561925
778,570.9302965369119
779,570.7798516422348
780,570.6140661130239
781,570.4370690175365
782,570.2530110390481
783,570.0657022035158
784,569.878285106688
785,569.6929795755033
786,569.5109536707212
787,569.3323611920724
788,569.1565451687409
789,568.98236701658
790,568.8085997703115
791,568.6343163199303
792,568.4592050840001
793,568.2837650155186
794,568.109369514457
795,567.9382228646732
796,567.7732431158659
797,567.6178942910162
798,567.4759725832362
799,567.3513367370737
800,567.2475716151846
801,567.1675948766838
802,567.1132557609253
803,567.0850082071735
804,567.0817403206927
805,567.1008052759687
806,567.1382505685864
807,567.1892097444394
808,567.2484073884182
809,567.310721176405
810,567.3717341727591
811,567.4281993406645
812,567.4783385159415
813,567.5219201758612
814,567.5601000134648
815,567.5950480874787
816,567.6294176982334
817,567.665744025047
818,567.7058961656331
819,567.7507182848722
820,567.7999594661638
821,567.8525178774421
822,567.9069439612996
823,567.9620802463409
824,568.0176737457181
825,568.0747967934373
826,568.1359628785127
827,568.2049092770917
828,568.2861040533635
829,568.384096295649
830,568.5028575116127
831,568.6452545187453
832,568.8127484065022
833,569.0053460945194
834,569.221764453336
835,569.4597127326755
836,569.7161696017242
837,569.9875553764407
838,570.2697840783355
839,570.5582727127145
840,570.8480201375473
841,571.1338281706575
842,571.4106626564889
843,571.674093872718
844,571.9207340410244
845,572.1485887156194
846,572.3572438129058
847,572.5478340786314
848,572.7227937029025
849,572.885451461969
850,573.0395630546166
851,573.1888638695908
852,573.3366993509769
853,573.4857696497671
854,573.6380111444201
855,573.7946166064834
856,573.9561632171653
857,574.1227894231821
858,574.2943616845378
859,574.470602125949
860,574.6511801121304
861,574.8357785081263
862,575.0241326492595
863,575.2160299532269
864,575.4112630204653
865,575.609543212049
866,575.8103980848246
867,576.0130928545551
868,576.2166226671012
869,576.4197994861238
870,576.6214050178802
871,576.8203338957302
872,577.0156487512013
873,577.2065155947071
874,577.3920505556342
875,577.5711455746183
876,577.7423329959446
877,577.9037136417297
878,578.0529443380917
879,578.1872782737187
880,578.3036608055851
881,578.3988792386009
882,578.4697480411738
883,578.5133047193568
884,578.5270080799688
885,578.5089551183374
886,578.4581413651076
887,578.3747678219091
888,578.2605520520664
889,578.1189616216722
890,577.9552851862028
891,577.7764889494129
892,577.5908474846897
893,577.4073705949431
894,577.235075058795
895,577.082177418881
896,576.955307010813
897,576.8588467470043
898,576.7944948999061
899,576.7611075604335
900,576.7548448290333
901,576.7696165253546
902,576.7977965735524
903,576.8311356715976
904,576.8617590211417
905,576.883112418566
906,576.8907214239974
907,576.8826462314588
908,576.8595508112941
909,576.8243670905111
910,576.7816143143706
911,576.7365019902479
912,576.6939798088794
913,576.6579014429244
914,576.6304521621774
915,576.6119475068592
916,576.6010285698337
917,576.595174789871
918,576.5913778411418
