frame_number,force
0,694.74946852132
1,694.7698315011936
2,694.7907351356829
3,694.8121676940866
4,694.8341112607308
5,694.8565414691207
6,694.8794272945399
7,694.9027309135572
8,694.9264076371031
9,694.9504059220877
10,694.9746674649425
11,694.9991273788546
12,695.0237144545745
13,695.048351502218
14,695.0729557686531
15,695.0974394227796
16,695.121710100046
17,695.1456714978341
18,695.1692240143094
19,695.192265424537
20,695.2146915887921
21,695.2363971888095
22,695.2572764882386
23,695.2772241139944
24,695.2961358553758
25,695.3139094771527
26,695.330445540967
27,695.3456482268366
28,695.3594261442067
29,695.3716931206253
30,695.3823689558877
31,695.3913801300572
32,695.3986604547401
33,695.4041516583932
34,695.4078038983141
35,695.4095761940134
36,695.4094367783661
37,695.4073633640897
38,695.4033433239221
39,695.3973737838062
40,695.3894616296046
41,695.3796234291381
42,695.3678852725246
43,695.3542825349315
44,695.3388595669916
45,695.321669319152
46,695.3027729067746
47,695.2822391225004
48,695.260143901069
49,695.2365697400666
50,695.2116050789746
51,695.1853436390743
52,695.157883728049
53,695.1293275147333
54,695.0997802805448
55,695.0693496544644
56,695.0381448385315
57,695.0062758312067
58,694.9738526564216
59,694.940984606147
60,694.9077795038187
61,694.8743429953702
62,694.840777874328
63,694.8071834474802
64,694.7736549478744
65,694.7402830019656
66,694.7071531572398
67,694.6743454755867
68,694.6419341964576
69,694.6099874725435
70,694.5785671790863
71,694.5477287961347
72,694.5175213618205
73,694.4879874943
74,694.4591634796918
75,694.4310794222525
76,694.4037594510385
77,694.3772219751932
78,694.3514799786183
79,694.3265413442592
80,694.3024091980861
81,694.279082262827
82,694.2565552119545
83,694.2348190158413
84,694.2138612743497
85,694.1936665327379
86,694.1742165798511
87,694.1554907286647
88,694.1374660791957
89,694.1201177628158
90,694.1034191661035
91,694.0873421329321
92,694.0718571458308
93,694.0569334904604
94,694.0425394083825
95,694.0286422423146
96,694.0152085753394
97,694.002204362544
98,693.9895950517629
99,693.9773456900715
100,693.9654210139878
101,693.9537855231307
102,693.9424035388035
103,693.9312392502811
104,693.9202567520971
105,693.9094200750397
106,693.898693212109
107,693.8880401392556
108,693.8774248301506
109,693.8668112645051
110,693.8561634298204
111,693.8454453164348
112,693.834620905641
113,693.823654151011
114,693.8125089539053
115,693.8011491350918
116,693.7895384053271
117,693.7776403386663
118,693.7654183529389
119,693.7528357018317
120,693.739855482337
121,693.726440660443
122,693.7125541175002
123,693.6981587198284
124,693.6832174143432
125,693.6676933527226
126,693.6515500458357
127,693.6347515489998
128,693.6172626772219
129,693.5990492479704
130,693.5800783473309
131,693.560318613869
132,693.5397405334858
133,693.518316738262
134,693.4960223027673
135,693.4728350323712
136,693.448735739352
137,693.4237085035354
138,693.3977409145724
139,693.370824292973
140,693.3429538871377
141,693.3141290439543
142,693.2843533508023
143,693.2536347469063
144,693.221985602062
145,693.1894227611486
146,693.1559675537003
147,693.1216457689669
148,693.0864875976945
149,693.0505275417167
150,693.0138042913057
151,692.976360568412
152,692.9382429319954
153,692.8995015404129
154,692.8601898661304
155,692.8203643601217
156,692.7800840667087
157,692.7394101933343
158,692.698405642818
159,692.6571345174405
160,692.6156616048937
161,692.5740518563351
162,692.5323698669005
163,692.4906793688144
164,692.4490427461626
165,692.4075205784037
166,692.3661712173802
167,692.325050400804
168,692.2842109045947
169,692.2437022369994
170,692.2035703784071
171,692.1638575711168
172,692.1246021622825
173,692.0858385011684
174,692.0475968901802
175,692.009903589159
176,691.9727808737033
177,691.9362471491684
178,691.9003171214421
179,691.8650020241715
180,691.8303099008641
181,691.7962459395177
182,691.7628128567163
183,691.7300113269664
184,691.6978404512939
185,691.6662982570159
186,691.6353822186455
187,691.6050897884461
188,691.5754189244478
189,691.546368604201
190,691.517939314554
191,691.4901335107976
192,691.4629560412014
193,691.4364145343836
194,691.4105197474333
195,691.3852858729305
196,691.3607308028256
197,691.3368763459868
198,691.3137483943316
199,691.2913770310497
200,691.2697965743964
201,691.2490455518079
202,691.2291666009257
203,691.210206295922
204,691.1922148990325
205,691.1752460384744
206,691.1593563151351
207,691.1446048418894
208,691.1310527212959
209,691.1187624694713
210,691.1077973955624
211,691.0982209472553
212,691.0900960336813
213,691.0834843383683
214,691.0784456361397
215,691.075037128211
216,691.0733128086619
217,691.0733228731222
218,691.0751131777846
219,691.0787247549769
220,691.0841933908459
221,691.0915492701947
222,691.1008166917732
223,691.1120138540417
224,691.1251527074312
225,691.1402388657266
226,691.1572715674466
227,691.1762436781449
228,691.1971417258483
229,691.2199459637724
230,691.2446304568281
231,691.2711631911048
232,691.2995062079146
233,691.3296157651616
234,691.3614425283241
235,691.3949317917964
236,691.430023729788
237,691.466653674892
238,691.5047524214826
239,691.5442465499241
240,691.5850587662848
241,691.6271082513372
242,691.6703110125231
243,691.7145802334568
244,691.7598266173425
245,691.805958723035
246,691.8528832948014
247,691.9005055885158
248,691.9487296974756
249,691.997458880218
250,692.0465958913376
251,692.0960433151919
252,692.1457039018748
253,692.195480904779
254,692.245278419038
255,692.2950017198489
256,692.3445575992478
257,692.3938546994902
258,692.4428038405226
259,692.4913183378444
260,692.5393143056779
261,692.5867109394499
262,692.6334307715717
263,692.6793998951688
264,692.7245481512365
265,692.7688092753746
266,692.8121210009713
267,692.8544251167644
268,692.8956674778273
269,692.9357979697254
270,692.9747704258641
271,693.0125424985464
272,693.049075485548
273,693.0843341160379
274,693.1182863019213
275,693.1509028625744
276,693.1821572320822
277,693.2120251584463
278,693.2404844040364
279,693.2675144560926
280,693.2930962555415
281,693.3172119518669
282,693.3398446911591
283,693.3609784433992
284,693.3805978733924
285,693.3986882579969
286,693.4152354509669
287,693.4302258959523
288,693.4436466876904
289,693.4554856808268
290,693.465731644697
291,693.4743744606548
292,693.4814053566653
293,693.4868171727421
294,693.4906046507359
295,693.4927647424986
296,693.4932969306685
297,693.4922035558292
298,693.4894901431478
299,693.4851657216723
300,693.4792431302571
301,693.4717393047872
302,693.4626755415968
303,693.4520777323274
304,693.4399765664422
305,693.4264076991067
306,693.4114118837521
307,693.395035069949
308,693.3773284677712
309,693.358348579385
310,693.3381571975982
311,693.3168213704158
312,693.2944133306796
313,693.2710103899766
314,693.2466947953081
315,693.2215535455928
316,693.1956781640272
317,693.1691644225771
318,693.1421120163465
319,693.114624187443
320,693.0868072993701
321,693.0587703638406
322,693.0306245227825
323,693.0024824896421
324,692.974457955662
325,692.9466649678831
326,692.9192172856344
327,692.8922277213161
328,692.8658074702308
329,692.8400654341397
330,692.8151075444412
331,692.7910360928082
332,692.7679490787275
333,692.7459395839634
334,692.725095183673
335,692.7054974034522
336,692.6872212311977
337,692.6703346918296
338,692.6548984913205
339,692.6409657344606
340,692.6285817187373
341,692.6177838045057
342,692.6086013590485
343,692.6010557695715
344,692.595160518519
345,692.5909213144653
346,692.5883362730968
347,692.587396144494
348,692.5880845838262
349,692.5903784620646
350,692.5942482118377
351,692.5996582022221
352,692.6065671357587
353,692.6149284610872
354,692.6246907948162
355,692.6357983467204
356,692.648191343493
357,692.6618064478881
358,692.6765771714257
359,692.6924342795692
360,692.709306188673
361,692.7271193539406
362,692.7457986467325
363,692.7652677180944
364,692.7854493443613
365,692.8062657510036
366,692.827638912582
367,692.8494908292417
368,692.8717437825968
369,692.8943205751551
370,692.917144757523
371,692.9401408471488
372,692.9632345418114
373,692.9863529303313
374,693.0094247021485
375,693.0323803569853
376,693.0551524161248
377,693.0776756374008
378,693.0998872359334
379,693.1217271117446
380,693.1431380842619
381,693.1640661327712
382,693.1844606410153
383,693.2042746431072
384,693.2234650666995
385,693.2419929680907
386,693.2598237531815
387,693.276927378377
388,693.2932785263606
389,693.3088567524449
390,693.323646597536
391,693.3376376637632
392,693.350824648669
393,693.3632073338255
394,693.3747905241353
395,693.3855839349364
396,693.3956020249966
397,693.4048637742374
398,693.4133924055608
399,693.4212150509084
400,693.428362363285
401,693.4348680791805
402,693.4407685390187
403,693.4461021757389
404,693.4509089824654
405,693.4552299697514
406,693.4591066221217
407,693.4625803629463
408,693.4656920355744
409,693.4684814068937
410,693.4709866977207
411,693.4732441436075
412,693.4752875898818
413,693.4771481253282
414,693.4788537591553
415,693.4804291455878
416,693.4818953597236
417,693.4832697274508
418,693.484565711568
419,693.4857928558278
420,693.4869567880422
421,693.488059282297
422,693.489098378734
423,693.4900685576055
424,693.4909609625917
425,693.4917636669783
426,693.4924619755916
427,693.4930387556761
428,693.4934747908111
429,693.4937491527044
430,693.4938395857796
431,693.4937228991002
432,693.4933753600635
433,693.4927730849697
434,693.4918924227389
435,693.4907103288089
436,693.4892047260654
437,693.4873548487419
438,693.4851415640925
439,693.4825476656086
440,693.479558130873
441,693.4761603372341
442,693.4723442297118
443,693.4681024377605
444,693.46343034004
445,693.4583260785497
446,693.4527905252307
447,693.4468272054852
448,693.4404421838595
449,693.4336439171793
450,693.4264430800337
451,693.4188523674941
452,693.4108862807958
453,693.4025609028787
454,693.3938936711672
455,693.3849031544677
456,693.3756088401051
457,693.366030937237
458,693.3561902024843
459,693.3461077935491
460,693.3358051547806
461,693.3253039364728
462,693.3146259482473
463,693.3037931464497
464,693.2928276552442
465,693.2817518201698
466,693.2705882910844
467,693.2593601289365
468,693.2480909282456
469,693.2368049454273
470,693.2255272227142
471,693.2142836979568
472,693.203101291206
473,693.1920079595992
474,693.1810327131652
475,693.1702055860424
476,693.1595575602149
477,693.1491204419513
478,693.1389266942901
479,693.1290092318071
480,693.1194011861938
481,693.1101356524797
482,693.1012454256518
483,693.0927627361648
484,693.0847189909
485,693.0771445238402
486,693.0700683584099
487,693.0635179818693
488,693.0575191318371
489,693.0520955953115
490,693.0472690204944
491,693.0430587413535
492,693.0394816148555
493,693.0365518713721
494,693.0342809793957
495,693.0326775259299
496,693.0317471135394
497,693.0314922740811
498,693.0319123981192
499,693.0330036788018
500,693.0347590699558
501,693.0371682597801
502,693.0402176626367
503,693.0438904313485
504,693.0481664915077
505,693.0530225986308
506,693.0584324188613
507,693.0643666335009
508,693.0707930662164
509,693.0776768298077
510,693.0849804882356
511,693.092664229888
512,693.1006860492037
513,693.1090019346983
514,693.1175660617013
515,693.1263309879499
516,693.1352478500727
517,693.1442665593643
518,693.1533359964179
519,693.1624042059793
520,693.1714185951948
521,693.1803261395561
522,693.189073600782
523,693.197607759378
524,693.2058756618432
525,693.2138248793912
526,693.2214037730519
527,693.2285617599424
528,693.2352495767793
529,693.2414195381523
530,693.2470257879035
531,693.2520245420441
532,693.2563743212154
533,693.2600361701782
534,693.2629738617593
535,693.2651540833788
536,693.2665466052371
537,693.2671244296533
538,693.2668639207427
539,693.2657449129962
540,693.2637507968178
541,693.2608685789082
542,693.2570889156981
543,693.252406118635
544,693.2468181306378
545,693.2403264732407
546,693.2329361640637
547,693.2246556046053
548,693.2154964390566
549,693.2054733857516
550,693.1946040436676
551,693.1829086767125
552,693.1704099781864
553,693.1571328173113
554,693.1431039700715
555,693.1283518382246
556,693.1129061625746
557,693.0967977383149
558,693.0800581406181
559,693.0627194673815
560,693.0448141033847
561,693.026374507078
562,693.0074330191725
563,692.9880216919926
564,692.9681721396239
565,692.9479154101911
566,692.9272818826352
567,692.906301190923
568,692.8850021783519
569,692.8634128834994
570,692.8415605578401
571,692.8194717132925
572,692.7971721959976
573,692.7746872808281
574,692.7520417801046
575,692.729260159799
576,692.7063666562893
577,692.683385385742
578,692.660340436774
579,692.637255936532
580,692.6141560815519
581,692.5910651275237
582,692.5680073358238
583,692.5450068787461
584,692.522087708752
585,692.4992733989532
586,692.4765869625418
587,692.4540506583315
588,692.4316857880916
589,692.4095124894571
590,692.3875495270249
591,692.3658140845632
592,692.3443215627536
593,692.3230853886248
594,692.3021168442149
595,692.2814249229518
596,692.2610162227586
597,692.2408948848365
598,692.2210625865014
599,692.2015185954771
600,692.1822598913972
601,692.163281357387
602,692.1445760405537
603,692.126135475956
604,692.1079500652255
605,692.0900094987254
606,692.0723032084943
607,692.0548208379805
608,692.0375527140786
609,692.0204903079195
610,692.0036266733639
611,691.9869568555025
612,691.970478264511
613,691.9541910120308
614,691.938098207962
615,691.9222062160749
616,691.9065248676205
617,691.8910676325834
618,691.8758517480026
619,691.8608983024719
620,691.8462322761857
621,691.8318825367941
622,691.8178817927045
623,691.8042665072679
624,691.7910767792417
625,691.7783561964004
626,691.7661516696501
627,691.7545132542868
628,691.7434939633414
629,691.7331495759084
630,691.7235384417222
631,691.7147212823786
632,691.7067609893369
633,691.6997224185674
634,691.693672181008
635,691.6886784269866
636,691.6848106220592
637,691.6821393117065
638,691.6807358728515
639,691.6806722508966
640,691.682020681828
641,691.6848533998615
642,691.6892423316453
643,691.6952587777583
644,691.7029730811458
645,691.7124542807923
646,691.723769748044
647,691.7369848031495
648,691.7521623108485
649,691.7693622556557
650,691.7886412990796
651,691.8100523220376
652,691.8336439563586
653,691.8594601098877
654,691.8875394906061
655,691.9179151361342
656,691.950613955461
657,691.9856562893661
658,692.0230554947525
659,692.0628175564796
660,692.1049407292055
661,692.1494152117787
662,692.1962228576289
663,692.2453369258322
664,692.2967218788372
665,692.3503332341609
666,692.4061174781518
667,692.4640120493505
668,692.5239453968993
669,692.5858371164818
670,692.6495981630834
671,692.7151311367935
672,692.7823306350514
673,692.8510836624654
674,692.9212700877722
675,692.9927631367116
676,693.0654299098813
677,693.1391319164824
678,693.2137256179325
679,693.2890629781863
680,693.3649920190577
681,693.4413573790979
682,693.5180008747398
683,693.5947620631235
684,693.6714788068954
685,693.7479878416152
686,693.8241253460453
687,693.8997275148275
688,693.9746311322564
689,694.0486741453934
690,694.1216962349872
691,694.193539383528
692,694.26404844082
693,694.3330716881616
694,694.4004614022322
695,694.4660744190008
696,694.5297726965194
697,694.5914238737962
698,694.650901821599
699,694.7080871801089
700,694.7628678776273
701,694.8151396243317
702,694.8648063759765
703,694.9117807639359
704,694.9559844888082
705,694.9973486744682
706,695.0358141787228
707,695.0713318564005
708,695.1038627708915
709,695.1333783507907
710,695.1598604893074
711,695.1833015851056
712,695.2037045236864
713,695.2210825984125
714,695.2354593704645
715,695.2468684677243
716,695.2553533234795
717,695.2609668566992
718,695.2637710964777
719,695.2638367535525
720,695.2612427409263
721,695.2560756442497
722,695.248429142547
723,695.2384033819417
724,695.226104308105
725,695.211642965447
726,695.1951347717852
727,695.1766987766187
728,695.15645690983
729,695.1345332262862
730,695.1110531509863
731,695.0861427292256
732,695.0599278863491
733,695.0325337016465
734,695.0040837005216
735,694.9746991682398
736,694.9444984876685
737,694.9135965032268
738,694.8821039142224
739,694.8501267025847
740,694.81776560167
741,694.7851156133175
742,694.7522655795011
743,694.7192978134519
744,694.6862877937002
745,694.6533039229834
746,694.6204073520812
747,694.5876518665958
748,694.5550838331325
749,694.5227422005081
750,694.4906585514246
751,694.4588572003415
752,694.427355333886
753,694.3961631908504
754,694.3652842796698
755,694.3347156323239
756,694.3044480946683
757,694.2744666537959
758,694.2447508028141
759,694.2152749425784
760,694.1860088188998
761,694.156917992991
762,694.1279643426532
763,694.0991065917879
764,694.0703008658116
765,694.0415012701762
766,694.0126604881987
767,693.9837303926356
768,693.9546626632539
769,693.9254094010971
770,693.8959237300106
771,693.8661603770807
772,693.8360762252339
773,693.8056308328239
774,693.7747869165732
775,693.7435107957992
776,693.7117727973156
777,693.6795476214019
778,693.6468146694232
779,693.6135583330525
780,693.5797682440467
781,693.545439482811
782,693.5105727437963
783,693.4751744557279
784,693.4392568543212
785,693.4028380045212
786,693.3659417688847
787,693.3285977187265
788,693.290840984997
789,693.2527120464404
790,693.2142564534461
791,693.1755244872282
792,693.1365707557682
793,693.0974537304282
794,693.0582352299048
795,693.0189798603823
796,692.9797544219551
797,692.9406272918675
798,692.9016677952387
799,692.8629455735165
800,692.8245299596169
801,692.786489366624
802,692.7488906945212
803,692.7117987574615
804,692.6752757332149
805,692.6393806369085
806,692.6041688225617
807,692.5696915174032
808,692.535995395032
809,692.5031221940766
810,692.4711083890418
811,692.4399849192899
812,692.4097769805184
813,692.3805038812986
814,692.3521789662931
815,692.3248096082473
816,692.2983972720389
817,692.2729376544359
818,692.2484209020018
819,692.224831907099
820,692.202150678936
821,692.1803527839132
822,692.1594098479127
823,692.1392901127704
824,692.1199590390252
825,692.1013799461864
826,692.0835146800748
827,692.0663242950221
828,692.0497697376553
829,692.033812518872
830,692.018415361193
831,692.0035428096629
832,691.9891617957458
833,691.9752421454912
834,691.9617570258132
835,691.9486833255628
836,691.9360019702003
837,691.9236981698
838,691.9117616001562
839,691.9001865165446
840,691.8889717997836
841,691.878120934844
842,691.8676419230659
843,691.8575471295882
844,691.8478530677903
845,691.8385801225282
846,691.8297522139146
847,691.8213964037511
848,691.8135424479658
849,691.8062223004132
850,691.7994695752371
851,691.7933189759747
852,691.7878056998336
853,691.782964825539
854,691.778830692985
855,691.7754362825858
856,691.7728126015893
857,691.7709880837641
858,691.7699880081602
859,691.7698339425904
860,691.7705432182839
861,691.7721284433861
862,691.774597063713
863,691.7779509787451
864,691.7821862195046
865,691.7872926934772
866,691.7932540004381
867,691.8000473216948
868,691.8076433838573
869,691.8160064971823
870,691.8250946679868
871,691.8348597841419
872,691.8452478717711
873,691.8561994199174
874,691.867649768246
875,691.8795295510184
876,691.8917651891738
877,691.9042794220159
878,691.916991870658
879,691.9298196261657
880,691.9426778555173
881,691.9554804182618
882,691.9681404867621
883,691.9805711635054
884,691.9926860898775
885,692.004400041672
886,692.0156295071607
887,692.0262932435644
888,692.0363128073471
889,692.0456130535247
890,692.0541225998782
891,692.0617742536695
892,692.068505400484
893,692.074258356331
894,692.0789806844566
895,692.0826254772201
896,692.0851516014355
897,692.0865239040252
898,692.0867133745373
899,692.085697262056
900,692.0834591457867
901,692.0799889604651
902,692.0752829790249
903,692.0693437555843
904,692.0621800323878
905,692.0538066153504
906,692.0442442238042
907,692.0335193199534
908,692.0216639221877
909,692.0087154046915
910,691.9947162846938
911,691.9797139983606
912,691.963760666296
913,691.946912849552
914,691.9292312966678
915,691.9107806814368
916,691.8916293301697
917,691.8718489368187
