frame_number,force
0,694.7494685210572
1,694.7698315009013
2,694.7907351353581
3,694.8121676937267
4,694.8341112603329
5,694.856541468682
6,694.8794272940582
7,694.9027309130297
8,694.9264076365266
9,694.9504059214588
10,694.9746674642574
11,694.9991273781092
12,695.023714453764
13,695.0483515013376
14,695.0729557676984
15,695.0974394217469
16,695.1217100989322
17,695.1456714966365
18,695.1692240130255
19,695.1922654231649
20,695.2146915873301
21,695.2363971872562
22,695.2572764865931
23,695.2772241122561
24,695.2961358535447
25,695.3139094752287
26,695.3304455389506
27,695.3456482247286
28,695.359426142008
29,695.3716931183363
30,695.3823689535091
31,695.3913801275897
32,695.3986604521849
33,695.4041516557511
34,695.4078038955864
35,695.4095761912018
36,695.4094367754725
37,695.4073633611164
38,695.4033433208715
39,695.3973737806816
40,695.3894616264098
41,695.3796234258772
42,695.3678852692026
43,695.3542825315535
44,695.3388595635635
45,695.32166931568
46,695.3027729032655
47,695.282239118961
48,695.2601438975067
49,695.2365697364891
50,695.2116050753895
51,695.1853436354891
52,695.157883724471
53,695.1293275111701
54,695.0997802770044
55,695.069349650955
56,695.0381448350615
57,695.0062758277845
58,694.9738526530551
59,694.9409846028437
60,694.9077795005852
61,694.8743429922122
62,694.8407778712499
63,694.807183444485
64,694.7736549449638
65,694.7402829991403
66,694.7071531544995
67,694.6743454729299
68,694.6419341938812
69,694.6099874700435
70,694.5785671766577
71,694.5477287937719
72,694.5175213595181
73,694.4879874920531
74,694.4591634774954
75,694.4310794201011
76,694.4037594489266
77,694.3772219731156
78,694.3514799765702
79,694.3265413422356
80,694.3024091960816
81,694.2790822608357
82,694.2565552099707
83,694.2348190138592
84,694.2138612723637
85,694.1936665307426
86,694.1742165778413
87,694.155490726636
88,694.1374660771444
89,694.120117760739
90,694.1034191639992
91,694.0873421307977
92,694.0718571436635
93,694.0569334882566
94,694.0425394061375
95,694.0286422400228
96,694.0152085729944
97,694.0022043601389
98,693.9895950492905
99,693.9773456875248
100,693.9654210113594
101,693.953785520413
102,693.9424035359892
103,693.9312392473634
104,693.9202567490704
105,693.9094200719
106,693.8986932088533
107,693.8880401358816
108,693.8774248266569
109,693.8668112608914
110,693.8561634260875
111,693.8454453125846
112,693.8346209016761
113,693.823654146935
114,693.8125089497225
115,693.8011491308073
116,693.7895384009464
117,693.777640334196
118,693.7654183483863
119,693.7528356972048
120,693.739855477644
121,693.7264406556931
122,693.7125541127025
123,693.6981587149922
124,693.6832174094784
125,693.6676933478394
126,693.6515500409445
127,693.6347515441106
128,693.617262672344
129,693.5990492431123
130,693.5800783425
131,693.5603186090713
132,693.5397405287262
133,693.5183167335447
134,693.4960222980955
135,693.4728350277476
136,693.4487357347784
137,693.4237084990136
138,693.397740910104
139,693.3708242885596
140,693.3429538827814
141,693.3141290396575
142,693.2843533465668
143,693.2536347427332
144,693.221985597952
145,693.1894227571015
146,693.1559675497152
147,693.1216457650426
148,693.0864875938288
149,693.0505275379072
150,693.0138042875495
151,692.9763605647064
152,692.9382429283381
153,692.8995015368018
154,692.8601898625635
155,692.8203643565967
156,692.7800840632233
157,692.7394101898867
158,692.6984056394065
159,692.657134514063
160,692.6156616015481
161,692.5740518530187
162,692.5323698636101
163,692.490679365547
164,692.4490427429142
165,692.4075205751706
166,692.3661712141584
167,692.3250503975897
168,692.284210901384
169,692.2437022337882
170,692.2035703751911
171,692.1638575678917
172,692.1246021590443
173,692.085838497914
174,692.047596886907
175,692.0099035858647
176,691.9727808703861
177,691.936247145827
178,691.9003171180755
179,691.8650020207788
180,691.8303098974441
181,691.7962459360695
182,691.7628128532393
183,691.7300113234606
184,691.6978404477601
185,691.6662982534558
186,691.635382215062
187,691.6050897848431
188,691.5754189208304
189,691.5463686005749
190,691.5179393109253
191,691.4901335071727
192,691.4629560375874
193,691.4364145307886
194,691.4105197438663
195,691.3852858694007
196,691.3607307993424
197,691.3368763425588
198,691.3137483909672
199,691.2913770277571
200,691.2697965711826
201,691.2490455486783
202,691.2291665978842
203,691.2102062929707
204,691.1922148961726
205,691.1752460357058
206,691.1593563124562
207,691.1446048392976
208,691.1310527187878
209,691.1187624670424
210,691.1077973932069
211,691.0982209449666
212,691.0900960314527
213,691.0834843361935
214,691.0784456340124
215,691.0750371261253
216,691.073312806612
217,691.0733228711024
218,691.0751131757901
219,691.078724753003
220,691.0841933888885
221,691.0915492682498
222,691.1008166898367
223,691.1120138521096
224,691.125152705499
225,691.1402388637902
226,691.1572715655018
227,691.1762436761874
228,691.1971417238738
229,691.219945961777
230,691.2446304548077
231,691.2711631890559
232,691.2995062058334
233,691.3296157630444
234,691.3614425261677
235,691.3949317895978
236,691.4300237275444
237,691.4666536726004
238,691.5047524191392
239,691.5442465475247
240,691.5850587638251
241,691.6271082488132
242,691.6703110099313
243,691.714580230794
244,691.7598266146059
245,691.8059587202226
246,691.852883291912
247,691.9005055855491
248,691.9487296944319
249,691.997458877098
250,692.0465958881431
251,692.0960433119259
252,692.1457038985411
253,692.1954809013823
254,692.2452784155837
255,692.2950017163427
256,692.3445575956956
257,692.3938546958987
258,692.4428038368976
259,692.4913183341918
260,692.5393143020028
261,692.5867109357571
262,692.6334307678653
263,692.6793998914521
264,692.7245481475122
265,692.7688092716437
266,692.8121209972337
267,692.854425113019
268,692.895667474072
269,692.9357979659575
270,692.974770422081
271,693.0125424947455
272,693.0490754817274
273,693.0843341121965
274,693.1182862980587
275,693.1509028586905
276,693.1821572281776
277,693.212025154522
278,693.2404844000939
279,693.2675144521336
280,693.2930962515675
281,693.317211947879
282,693.339844687158
283,693.3609784393855
284,693.3805978693663
285,693.3986882539582
286,693.4152354469153
287,693.4302258918872
288,693.4436466836111
289,693.4554856767325
290,693.4657316405867
291,693.474374456527
292,693.4814053525183
293,693.4868171685737
294,693.4906046465428
295,693.4927647382771
296,693.4932969264147
297,693.4922035515392
298,693.489490138818
299,693.4851657172994
300,693.4792431258381
301,693.4717393003191
302,693.462675537077
303,693.4520777277535
304,693.439976561812
305,693.4264076944194
306,693.4114118790081
307,693.3950350651498
308,693.3773284629189
309,693.3583485744826
310,693.3381571926504
311,693.3168213654291
312,693.2944133256614
313,693.2710103849352
314,693.2466947902523
315,693.2215535405315
316,693.1956781589699
317,693.1691644175331
318,693.1421120113254
319,693.1146241824547
320,693.0868072944246
321,693.0587703589479
322,693.030624517952
323,693.002482484883
324,692.9744579509833
325,692.9466649632935
326,692.9192172811428
327,692.8922277169307
328,692.8658074659594
329,692.8400654299888
330,692.8151075404164
331,692.7910360889135
332,692.767949074966
333,692.7459395803376
334,692.7250951801839
335,692.7054974000997
336,692.6872212279807
337,692.6703346887458
338,692.6548984883673
339,692.6409657316345
340,692.6285817160341
341,692.6177838019196
342,692.6086013565724
343,692.6010557671975
344,692.5951605162379
345,692.5909213122665
346,692.5883362709687
347,692.587396142424
348,692.5880845818009
349,692.5903784600698
350,692.5942482098588
351,692.5996582002444
352,692.6065671337682
353,692.6149284590705
354,692.6246907927614
355,692.6357983446171
356,692.6481913413322
357,692.6618064456628
358,692.6765771691306
359,692.6924342772007
360,692.7093061862297
361,692.7271193514223
362,692.7457986441407
363,692.7652677154315
364,692.7854493416305
365,692.8062657482085
366,692.8276389097263
367,692.8494908263287
368,692.8717437796291
369,692.8943205721351
370,692.917144754452
371,692.940140844027
372,692.9632345386387
373,692.9863529271066
374,693.0094246988698
375,693.0323803536495
376,693.0551524127279
377,693.0776756339385
378,693.0998872324013
379,693.1217271081391
380,693.1431380805794
381,693.1640661290085
382,693.1844606371695
383,693.2042746391761
384,693.2234650626812
385,693.2419929639832
386,693.2598237489836
387,693.2769273740879
388,693.2932785219801
389,693.308856747973
390,693.3236465929729
391,693.3376376591087
392,693.3508246439231
393,693.3632073289879
394,693.3747905192058
395,693.3855839299152
396,693.3956020198844
397,693.4048637690358
398,693.4133924002728
399,693.4212150455381
400,693.4283623578385
401,693.4348680736648
402,693.4407685334419
403,693.4461021701107
404,693.4509089767964
405,693.4552299640527
406,693.459106616405
407,693.4625803572236
408,693.4656920298578
409,693.4684814011952
410,693.4709866920523
411,693.4732441379813
412,693.4752875843095
413,693.4771481198213
414,693.4788537537247
415,693.4804291402442
416,693.481895354477
417,693.4832697223109
418,693.484565706544
419,693.4857928509286
420,693.4869567832767
421,693.4880592776732
422,693.4890983742598
423,693.4900685532881
424,693.4909609584378
425,693.4917636629934
426,693.49246197178
427,693.4930387520407
428,693.4934747873533
429,693.4937491494246
430,693.4938395826773
431,693.4937228961745
432,693.4933753573134
433,693.4927730823943
434,693.4918924203366
435,693.4907103265775
436,693.4892047240015
437,693.487354846841
438,693.4851415623492
439,693.4825476640167
440,693.4795581294246
441,693.4761603359202
442,693.4723442285223
443,693.4681024366843
444,693.4634303390646
445,693.4583260776618
446,693.4527905244161
447,693.4468272047291
448,693.4404421831466
449,693.4336439164938
450,693.4264430793593
451,693.4188523668139
452,693.4108862800924
453,693.4025609021346
454,693.3938936703652
455,693.3849031535907
456,693.3756088391367
457,693.3660309361616
458,693.3561902012873
459,693.3461077922173
460,693.335805153302
461,693.3253039348367
462,693.3146259464447
463,693.3037931444726
464,693.2928276530856
465,693.2817518178242
466,693.2705882885474
467,693.2593601262043
468,693.2480909253159
469,693.2368049422987
470,693.2255272193869
471,693.2142836944321
472,693.2031012874862
473,693.1920079556876
474,693.1810327090659
475,693.1702055817603
476,693.1595575557558
477,693.1491204373208
478,693.1389266894945
479,693.1290092268529
480,693.1194011810884
481,693.1101356472311
482,693.1012454202692
483,693.0927627306584
484,693.0847189852808
485,693.0771445181198
486,693.0700683526002
487,693.0635179759823
488,693.0575191258856
489,693.0520955893084
490,693.0472690144528
491,693.0430587352865
492,693.039481608776
493,693.0365518652927
494,693.0342809733285
495,693.0326775198864
496,693.0317471075306
497,693.031492268117
498,693.0319123922088
499,693.0330036729526
500,693.0347590641736
501,693.0371682540693
502,693.0402176570012
503,693.0438904257912
504,693.0481664860309
505,693.0530225932364
506,693.0584324135502
507,693.0643666282735
508,693.0707930610725
509,693.0776768247462
510,693.0849804832545
511,693.0926642249851
512,693.1006860443761
513,693.1090019299425
514,693.117566057013
515,693.1263309833248
516,693.135247845506
517,693.144266554851
518,693.1533359919531
519,693.1624042015579
520,693.1714185908122
521,693.1803261352079
522,693.1890735964643
523,693.1976077550868
524,693.2058756575747
525,693.2138248751418
526,693.2214037688185
527,693.2285617557225
528,693.2352495725706
529,693.2414195339528
530,693.2470257837108
531,693.2520245378556
532,693.256374317029
533,693.2600361659921
534,693.2629738575723
535,693.2651540791901
536,693.2665466010461
537,693.2671244254608
538,693.2668639165503
539,693.2657449088068
540,693.2637507926353
541,693.2608685747368
542,693.257088911542
543,693.2524061144983
544,693.2468181265239
545,693.2403264691525
546,693.2329361600044
547,693.2246556005774
548,693.2154964350622
549,693.2054733817926
550,693.1946040397459
551,693.1829086728296
552,693.1704099743436
553,693.1571328135087
554,693.1431039663084
555,693.1283518344998
556,693.112906158886
557,693.0967977346594
558,693.0800581369923
559,693.062719463781
560,693.0448140998046
561,693.0263745035123
562,693.0074330156147
563,692.988021688436
564,692.9681721360621
565,692.9479154066178
566,692.9272818790442
567,692.9063011873085
568,692.8850021747078
569,692.8634128798203
570,692.8415605541211
571,692.8194717095296
572,692.7971721921876
573,692.7746872769685
574,692.752041776194
575,692.7292601558363
576,692.706366652274
577,692.6833853816746
578,692.6603404326556
579,692.6372559323639
580,692.6141560773358
581,692.591065123262
582,692.5680073315189
583,692.5450068744004
584,692.5220877043676
585,692.4992733945317
586,692.4765869580845
587,692.4540506538394
588,692.431685783566
589,692.4095124848992
590,692.3875495224357
591,692.3658140799438
592,692.3443215581052
593,692.3230853839489
594,692.3021168395131
595,692.2814249182263
596,692.2610162180118
597,692.2408948800712
598,692.2210625817205
599,692.2015185906836
600,692.1822598865936
601,692.163281352575
602,692.1445760357344
603,692.1261354711291
604,692.1079500603903
605,692.0900094938804
606,692.0723032036378
607,692.0548208331107
608,692.0375527091942
609,692.0204903030196
610,692.0036266684481
611,691.9869568505708
612,691.9704782595634
613,691.954191007067
614,691.9380982029817
615,691.9222062110775
616,691.9065248626052
617,691.8910676275488
618,691.8758517429475
619,691.8608982973958
620,691.8462322710884
621,691.831882531676
622,691.8178817875661
623,691.8042665021097
624,691.7910767740642
625,691.7783561912038
626,691.7661516644345
627,691.7545132490525
628,691.7434939580886
629,691.7331495706379
630,691.7235384364348
631,691.7147212770757
632,691.7067609840204
633,691.6997224132398
634,691.6936721756724
635,691.6886784216472
636,691.684810616721
637,691.6821393063755
638,691.6807358675342
639,691.6806722455997
640,691.6820206765591
641,691.6848533946279
642,691.6892423264542
643,691.6952587726165
644,691.7029730760604
645,691.7124542757699
646,691.7237697430911
647,691.7369847982721
648,691.7521623060525
649,691.7693622509468
650,691.7886412944629
651,691.8100523175176
652,691.8336439519388
653,691.8594601055706
654,691.8875394863936
655,691.9179151320276
656,691.9506139514607
657,691.985656285472
658,692.0230554909641
659,692.0628175527963
660,692.1049407256265
661,692.1494152083027
662,692.1962228542542
663,692.2453369225572
664,692.29672187566
665,692.3503332310801
666,692.4061174751661
667,692.4640120464584
668,692.5239453940997
669,692.5858371137733
670,692.6495981604648
671,692.7151311342632
672,692.7823306326071
673,692.8510836601049
674,692.9212700854931
675,692.9927631345108
676,693.0654299077545
677,693.139131914424
678,693.2137256159361
679,693.2890629762452
680,693.3649920171647
681,693.4413573772455
682,693.5180008729199
683,693.5947620613277
684,693.6714788051148
685,693.7479878398406
686,693.8241253442667
687,693.8997275130347
688,693.9746311304388
689,694.0486741435404
690,694.1216962330886
691,694.193539381574
692,694.2640484388014
693,694.3330716860692
694,694.4004614000576
695,694.4660744167363
696,694.5297726941582
697,694.5914238713326
698,694.6509018190287
699,694.7080871774294
700,694.7628678748372
701,694.8151396214307
702,694.8648063729653
703,694.9117807608154
704,694.9559844855801
705,694.9973486711343
706,695.0358141752856
707,695.0713318528631
708,695.103862767258
709,695.1333783470665
710,695.1598604854993
711,695.1833015812213
712,695.2037045197342
713,695.2210825944015
714,695.2354593664045
715,695.2468684636261
716,695.2553533193548
717,695.2609668525596
718,695.2637710923352
719,695.2638367494193
720,695.2612427368147
721,695.2560756401718
722,695.2484291385147
723,695.2384033779657
724,695.2261043041956
725,695.2116429616134
726,695.1951347680351
727,695.1766987729584
728,695.1564569062641
729,695.134533222818
730,695.1110531476186
731,695.08614272596
732,695.0599278831868
733,695.0325336985873
734,695.0040836975644
735,694.9746991653824
736,694.9444984849075
737,694.9135965005577
738,694.8821039116399
739,694.8501267000827
740,694.8177655992413
741,694.7851156109541
742,694.752265577194
743,694.7192978111913
744,694.6862877914756
745,694.6533039207841
746,694.620407349896
747,694.5876518644131
748,694.5550838309406
749,694.5227421982959
750,694.4906585491815
751,694.458857198058
752,694.4273553315538
753,694.3961631884624
754,694.3652842772199
755,694.3347156298065
756,694.304448092079
757,694.2744666511311
758,694.2447508000702
759,694.2152749397521
760,694.1860088159891
761,694.1569179899946
762,694.1279643395707
763,694.0991065886194
764,694.0703008625582
765,694.0415012668396
766,694.0126604847823
767,693.9837303891436
768,693.9546626596913
769,693.9254093974696
770,693.895923726324
771,693.8661603733414
772,693.836076221449
773,693.8056308290016
774,693.7747869127222
775,693.7435107919281
776,693.7117727934327
777,693.679547617515
778,693.6468146655398
779,693.6135583291795
780,693.5797682401901
781,693.5454394789765
782,693.5105727399889
783,693.4751744519525
784,693.4392568505821
785,693.4028380008225
786,693.3659417652306
787,693.3285977151205
788,693.290840981442
789,693.2527120429389
790,693.2142564500004
791,693.1755244838406
792,693.1365707524403
793,693.0974537271616
794,693.0582352266999
795,693.0189798572395
796,692.979754418874
797,692.9406272888469
798,692.9016677922772
799,692.8629455706118
800,692.8245299567667
801,692.7864893638251
802,692.7488906917704
803,692.7117987547559
804,692.6752757305518
805,692.639380634285
806,692.604168819975
807,692.5696915148509
808,692.5359953925117
809,692.5031221915854
810,692.4711083865766
811,692.4399849168474
812,692.4097769780947
813,692.3805038788897
814,692.3521789638945
815,692.3248096058544
816,692.2983972696471
817,692.2729376520414
818,692.2484208996013
819,692.2248319046894
820,692.2021506765141
821,692.1803527814752
822,692.1594098454548
823,692.1392901102882
824,692.1199590365143
825,692.1013799436419
826,692.0835146774916
827,692.0663242923952
828,692.0497697349799
829,692.0338125161437
830,692.018415358408
831,692.0035428068174
832,691.9891617928361
833,691.9752421425133
834,691.9617570227632
835,691.9486833224373
836,691.9360019669963
837,691.9236981665149
838,691.911761596788
839,691.9001865130916
840,691.8889717962445
841,691.8781209312182
842,691.867641919353
843,691.8575471257875
844,691.847853063901
845,691.8385801185493
846,691.8297522098454
847,691.8213963995911
848,691.8135424437146
849,691.8062222960706
850,691.799469570803
851,691.793318971449
852,691.7878056952162
853,691.78296482083
854,691.7788306881854
855,691.775436277697
856,691.7728125966131
857,691.7709880787023
858,691.7699880030152
859,691.7698339373657
860,691.7705432129839
861,691.7721284380161
862,691.7745970582797
863,691.7779509732558
864,691.7821862139674
865,691.7872926879011
866,691.7932539948326
867,691.8000473160698
868,691.8076433782222
869,691.8160064915467
870,691.8250946623605
871,691.8348597785348
872,691.8452478661925
873,691.8561994143764
874,691.8676497627514
875,691.8795295455778
876,691.891765183794
877,691.9042794167026
878,691.9169918654167
879,691.9298196210009
880,691.9426778504329
881,691.9554804132613
882,691.968140481849
883,691.9805711586833
884,691.9926860851499
885,692.0044000370424
886,692.0156295026321
887,692.0262932391397
888,692.0363128030289
889,692.0456130493145
890,692.0541225957768
891,692.0617742496772
892,692.0685053966015
893,692.0742583525591
894,692.078980680796
895,692.0826254736709
896,692.0851515979972
897,692.0865239006963
898,692.0867133713158
899,692.0856972589393
900,692.0834591427714
901,692.0799889575466
902,692.0752829761977
903,692.0693437528428
904,692.0621800297254
905,692.0538066127602
906,692.0442442212798
907,692.0335193174886
908,692.0216639197772
909,692.00871540233
910,691.9947162823763
911,691.979713996082
912,691.963760664051
913,691.9469128473353
914,691.9292312944741
915,691.9107806792606
916,691.8916293280055
917,691.8718489346606
