acceleration,velocity,displacement
0.021393324539536462,0.0,0.0
0.021681480879595462,1.076870135478298e-05,2.692175338695745e-09
0.021977288018094475,2.1683393579205463e-05,1.0805199072192857e-08
0.02228057995399374,3.2747860572227516e-05,2.44130126100511e-08
0.022591103162752514,4.396578135141408e-05,4.35914230909615e-08
0.02290851283433054,5.534068535068484e-05,6.841803976648624e-08
0.023232369938257582,6.687590604383188e-05,9.897218761511542e-08
0.023562139235499758,7.857453333727122e-05,1.353347974603912e-07
0.023897188331442356,9.043936522900675e-05,1.775882721019607e-07
0.024236787840291183,0.00010247285927194013,2.258163282271974e-07
0.024580112708781125,0.0001146770844092082,2.8010381414748447e-07
0.024926244724214845,0.0001270536737674572,3.405365036916508e-07
0.025274176205152096,0.00013960377899979894,4.0720086688346485e-07
0.0256228148382512,0.00015232802676064976,4.80183818323577e-07
0.025970989584710433,0.00016522647786639018,5.59572444480337e-07
0.02631745754744955,0.0001782985896494302,6.454537113592921e-07
0.026660911676561292,0.0001915431819554329,7.379141542605079e-07
0.026999989194588053,0.00020495840717322023,8.370395515426711e-07
0.027333280636891926,0.00021854172463109023,9.429145844937487e-07
0.027659339419368847,0.00023228987964515543,1.05562248556281e-06
0.02797669186173583,0.0002461988874654316,1.1752446773404568e-06
0.02828384760619875,0.00026026402233241523,1.3018604047899185e-06
0.028579310378640945,0.00027447981182862516,1.4355463633301785e-06
0.028861589045512302,0.00028884003668466345,1.5763763254585007e-06
0.029129208922149912,0.000303337736176579,1.7244207686738112e-06
0.029380723278755246,0.0003179652192268053,1.8797465075246573e-06
0.02961472496404726,0.00033271408128750593,2.0424163326532353e-06
0.02982985803034729,0.0003475752270361046,2.212488659734138e-06
0.03002482921075744,0.00036253889884638077,2.3900171912047594e-06
0.030198419079696986,0.0003775947109189944,2.575050593646103e-06
0.030349492724811657,0.00039273168887012154,2.767632193593382e-06
0.030477009766158497,0.0004079383144928641,2.9677996944341282e-06
0.03058003357239158,0.0004232025753275016,3.1755849168892195e-06
0.0306577395434363,0.00043851201860645856,3.3910135653727095e-06
0.030709422355678164,0.00045385380908123717,3.6141050222946333e-06
0.030734502094594045,0.0004692147901938052,3.844872172113394e-06
0.030732529223893402,0.0004845815480234271,4.083321256667702e-06
0.030703188356453602,0.0004999404774185138,4.329451763028187e-06
0.030646300804006755,0.0005152778497086289,4.5832563448099726e-06
0.030561825895809563,0.0005305798813835831,4.844720777583025e-06
0.03044986107364669,0.0005458328031259471,5.1138239487104075e-06
0.030310640788602485,0.0005610229285915095,5.390537881639772e-06
0.030144534241707693,0.000576136722349087,5.674827794374921e-06
0.029952042026631494,0.0005911608664161717,5.9666521915662355e-06
0.029733791748779933,0.0006060823248600246,6.265962989385285e-06
0.029490532709447813,0.0006208884059745815,6.572705672093937e-06
0.029223129751565467,0.0006355668215898349,6.886819478985041e-06
0.028932556359162358,0.0006501057431175168,7.208237620161879e-06
0.02861988708404639,0.000664493853978319,7.536887519435838e-06
0.02828628934880208,0.0006787203980865311,7.872691082452051e-06
0.02793301465971668,0.0006927752240886608,8.21556498799585e-06
0.027561389265775532,0.0007066488250700338,8.565421000285523e-06
0.027172804318096995,0.0007203323734660019,8.922166299919533e-06
0.026768705606919085,0.0007338177509472559,9.285703831022847e-06
0.026350582968618617,0.0007470975730911403,9.655932662032447e-06
0.02591995945991715,0.0007601652086982742,1.00327483574798e-05
0.02547838039786792,0.0007730147936627204,1.0416043358070049e-05
0.02502740236967329,0.0007856412393546057,1.080570736632438e-05
0.02456858232296861,0.0007980402355277662,1.1201627735044973e-05
0.024103466847419156,0.0008102082478203632,1.1603689855882006e-05
0.023633581751457668,0.0008221425099700823,1.2011777545329618e-05
0.02316042202970317,0.0008338410109153725,1.2425773425550982e-05
0.022685442312383595,0.0008453024770008942,1.2845559297530049e-05
0.022210047888921194,0.0008565263495512205,1.3271016504168077e-05
0.021735586401277797,0.0008675127581237702,1.3702026281086824e-05
0.021263340303565866,0.0008782624897999812,1.4138470093067762e-05
0.020794520177458822,0.0008887769549202374,1.4580229954247817e-05
0.02033025897800314,0.0008990581497091029,1.5027188730405151e-05
0.019871607266966386,0.0009091086162703452,1.5479230421900014e-05
0.01941952947243817,0.0009189314004551963,1.59362404260814e-05
0.018974901190380904,0.0009285300081209011,1.6398105778225424e-05
0.01853850751844548,0.0009379083602981076,1.6864715370330176e-05
0.018111042394786246,0.0009470707477764156,1.7335960147348807e-05
0.01769310890854455,0.0009560217856022483,1.7811733280693472e-05
0.01728522054425082,0.0009647663679654472,1.8291930319085398e-05
0.016887803306955572,0.0009733096239282488,1.877644931705882e-05
0.016501198646712473,0.0009816568744166658,1.926519094164505e-05
0.016125667071145218,0.0009898135908461302,1.975805855796075e-05
0.015761392315331663,0.0009977853556927495,2.025495829459547e-05
0.01540848593075784,0.001005577825254272,2.0755799089832228e-05
0.015066992152993343,0.0010131966947752096,2.12604927198396e-05
0.014736892907366352,0.0010206476660402995,2.1768953810043475e-05
0.014418112818239142,0.0010279364174717008,2.2281099830921476e-05
0.01411052410744013,0.0010350685767031207,2.279685107946518e-05
0.01381395130073455,0.0010420496955551644,2.331613064752975e-05
0.01352817569821769,0.0010488852273049026,2.3838864378244766e-05
0.013252939594010138,0.0010555805061279596,2.4364980811602982e-05
0.012987950246226707,0.0010621407285880187,2.4894411120281975e-05
0.012732883597429804,0.0010685709370489328,2.5427089036691213e-05
0.012487387731902251,0.0010748760048812657,2.5962950772173763e-05
0.012251086043371637,0.0010810606233250843,2.650193492922535e-05
0.012023580094741505,0.0010871292898596125,2.7043982407521525e-05
0.011804452184552958,0.0010930862979294362,2.7589036304468786e-05
0.0115932676744634,0.0010989357278941903,2.8137041810924692e-05
0.011389577151086754,0.0011046814391005779,2.8687946102673383e-05
0.011192918481507705,0.0011103270630087264,2.9241698228200708e-05
0.011002818783226467,0.00111587599732491,2.9798248993284116e-05
0.01081879628698607,0.0011213314010924632,3.0357550842888458e-05
0.010640362045409205,0.001126696190675562,3.091955774083046e-05
0.01046702143998235,0.00113197303654691,3.1484225047636084e-05
0.010298275457491913,0.0011371643607712785,3.205150939696563e-05
0.010133621732371364,0.0011422723350687444,3.2621368570925636e-05
0.009972555375714348,0.0011472988793457658,3.3193761374529266e-05
0.009814569630286806,0.0011522456605972662,3.3768647509515027e-05
0.00965915639818475,0.0011571140921043841,3.434598744769044e-05
0.009505806679442766,0.001161905332873791,3.492574230393498e-05
0.009354010939354208,0.0011666202872784902,3.5507873708973054e-05
0.009203259401937041,0.0011712596048638131,3.609234368200863e-05
0.009053042258954778,0.0011758236802790361,3.6679114503294344e-05
0.008902849787647094,0.0011803126532906865,3.7268148586686774e-05
0.0087521723754938,0.0011847264088314718,3.785940835221731e-05
0.008600500450118629,0.0011890645770378748,3.845285609868465e-05
0.008447324311136189,0.0011933265332281886,3.904845387625117e-05
0.008292133865891919,0.0011975113977724457,3.964616335900133e-05
0.008134418282879098,0.0012016180358096385,4.024594571739685e-05
0.007973665590129096,0.0012056450567778905,4.084776149054373e-05
0.007809362258900574,0.001209590813740148,4.145157045817324e-05
0.007640992825997136,0.0012134534025113723,4.205733151223612e-05
0.007468039617472004,0.0012172306606222396,4.266500252801952e-05
0.00728998263659408,0.001220920166185756,4.327454023472152e-05
0.007106299669247267,0.0012245192367622165,4.3885900085458515e-05
0.006916466647482882,0.001228024928341399,4.449903612673442e-05
0.006719958305635413,0.0012314340345796785,4.5113900867464685e-05
0.006516249165340748,0.0012347430864474225,4.573044514772146e-05
0.006304814888749778,0.0012379483524609452,4.634861800744856e-05
0.0060851340356040395,0.0012410458396920337,4.6968366555486805e-05
0.005856690248549659,0.001244031295763072,4.758963583935058e-05
0.005618974874709373,0.0012469002120438868,4.821236871630232e-05
0.005371490011560996,0.0012496478282654545,4.8836505726379656e-05
0.005113751942401591,0.001252269138753945,4.9461984968134506e-05
0.004845294902718689,0.001254758900465225,5.00887419779393e-05
0.004565675097122753,0.0012571116429651854,5.07167096137969e-05
0.004274474871856864,0.0012593216804574303,5.134581794465256e-05
0.0039713069437376245,0.001261383125911329,5.1975994146244747e-05
0.0036558185932154094,0.0012632899072955671,5.260716240454647e-05
0.0033276957442729357,0.0012650357858799393,5.323924382784035e-05
0.002986666871624369,0.0012666143765339137,5.387215636844381e-05
0.002632506689028457,0.001268019169924077,5.450581475505831e-05
0.0022650395777480763,0.0012692435564907712,5.514013043666202e-05
0.0018841427144025418,0.0012702808520638088,5.5775011538800664e-05
0.001489748859157898,0.001271124324957199,5.6410362833055915e-05
0.0010818487698304932,0.0012717672243644461,5.7046085720386324e-05
0.0006604932113900773,0.0012722028098597511,5.7682078228942375e-05
0.00022579453171773655,0.001272424381795528,5.831823502685619e-05
-0.00022207222432586002,0.001272425312372376,5.895444745039817e-05
-0.0006828686850223273,0.001272199077145039,5.959060354777752e-05
-0.0011562930163409966,0.0012717392867196981,6.02265881387437e-05
-0.0016419802748508549,0.0012710397183969002,6.086228289002285e-05
-0.002139503231593584,0.001270094347520289,6.149756640650214e-05
-0.002648373651444438,0.0012688973782995295,6.213231433795709e-05
-0.0031680440287251395,0.001267443273879487,6.276639950100185e-05
-0.0036979098055058804,0.0012657267854209293,6.339969201582695e-05
-0.004237312126368361,0.0012637429799379606,6.403205945716667e-05
-0.004785541200863469,0.0012614872666061527,6.46633670188027e-05
-0.0053418403406178695,0.0012589554212207824,6.529347769075944e-05
-0.005905410708426117,0.0012561436084585213,6.592225244817926e-05
-0.006475416768631475,0.001253048401589257,6.65495504506912e-05
-0.00705099237526791,0.0012496667993032822,6.717522925091433e-05
-0.007631247391116031,0.0012459962393616862,6.779914501058058e-05
-0.008215274705395749,0.0012420346088375582,6.842115272263039e-05
-0.008802157508078874,0.0012377802507841896,6.904110643753582e-05
-0.009390976675942854,0.001233231967238184,6.965885949204141e-05
-0.009980818123820115,0.0012283890185382433,7.027426473848551e-05
-0.010570779977591219,0.0012232511190128905,7.08871747728733e-05
-0.011159979440642431,0.0012178184291583322,7.14974421599161e-05
-0.01174755925361368,0.0012120915444847682,7.210491965332688e-05
-0.0123326936801207,0.0012060714812513348,7.27094604097609e-05
-0.012914593976314148,0.001199759659337226,7.331091819490805e-05
-0.013492513310645706,0.001193157882515486,7.390914758037122e-05
-0.014065751092366826,0.0011862683164147328,7.450400413010377e-05
-0.014633656653421203,0.001179093464478286,7.509534457532702e-05
-0.015195632223425865,0.001171636142259074,7.568302697701136e-05
-0.015751135152151173,0.00116389945041518,7.626691087517993e-05
-0.016299679363466664,0.0011558867467862755,7.68468574244803e-05
-0.0168408360482995,0.0011476016179333339,7.742272951566019e-05
-0.017374233603875633,0.00113904785052029,7.79943918827736e-05
-0.017899556808398838,0.0011302294029172215,7.856171119613297e-05
-0.018416545207851638,0.001121150377413159,7.912455614121557e-05
-0.018924990699345,0.0011118149934363597,7.968279748392795e-05
-0.019424734315640558,0.0011022275621826133,8.023630812283269e-05
-0.019915662233142964,0.0010923924630454173,8.078496312913969e-05
-0.02039770103653875,0.0010823141222279968,8.132863977545804e-05
-0.020870812283467245,0.0010719969938979953,8.186721755448954e-05
-0.021334986428986624,0.0010614455442198819,8.240057818901901e-05
-0.021790236194460137,0.0010506642385640203,8.292860563471499e-05
-0.022236589495290365,0.0010396575321415826,8.34511860773914e-05
-0.022674082069603547,0.0010284298642503592,8.396820792648937e-05
-0.023102749970382135,0.0010169856562403628,8.447956180661206e-05
-0.02352262209350697,0.0010053293132243906,8.498514054897824e-05
-0.023933712907645205,0.0009934652294741025,8.548483918465286e-05
-0.02433601552340289,0.0009813977973663404,8.597855494136297e-05
-0.02472949519597976,0.0009691314196864948,8.646618724562619e-05
-0.02511408331754679,0.0009566705250581132,8.694763773181234e-05
-0.02548967193558579,0.00094401958624483,8.742281025963808e-05
-0.025856108826614193,0.0009311831410542799,8.789161094146285e-05
-0.026213193151559882,0.0009181658155597365,8.835394818061636e-05
-0.026560671721596173,0.0009049723493414475,8.880973272184167e-05
-0.026898235919640513,0.0008916076224311383,8.925887771478481e-05
-0.02722551934940841,0.0008780766836138761,8.970129879129607e-05
-0.02754209630396618,0.0008643847797005325,9.013691415712467e-05
-0.027847481146013885,0.0008505373853380375,9.05656446983843e-05
-0.028141128674180702,0.0008365402328829888,9.098741410293956e-05
-0.028422435523615546,0.0008223993418335398,9.140214899661869e-05
-0.028690742623661246,0.0008081210472967205,9.180977909390125e-05
-0.028945338713899395,0.0007937120269623304,9.221023736246601e-05
-0.02918546490193902,0.0007791793260583708,9.26034602007212e-05
-0.02941032022916475,0.0007645303797755949,9.298938762717969e-05
-0.02961906818984718,0.000749773032670842,9.336796348029129e-05
-0.029810844122251438,0.0007349155545928174,9.37391356271072e-05
-0.029984763361403894,0.0007199666527219035,9.410285617893588e-05
-0.030139930020170153,0.00070493547937651,9.445908171196049e-05
-0.030275446250938722,0.0006898316353087328,9.48077734906318e-05
-0.030390421827173882,0.0006746651682892047,9.514889769153129e-05
-0.03048398386583829,0.0006594465668659517,9.548242562532008e-05
-0.03055528649395384,0.0006441867492760037,9.580833395435557e-05
-0.03060352025764331,0.0006288970475881044,9.61266049035716e-05
-0.0306279210871805,0.0006135891872518984,9.643722646228161e-05
-0.030627778664669276,0.000598275262313936,9.674019257467307e-05
-0.030602444079537605,0.0005829677066278842,9.703550331690853e-05
-0.030551336683690228,0.0005676792614370773,9.732316505892477e-05
-0.030473950067687487,0.0005524229397492329,9.760319060922135e-05
-0.030369857086655634,0.0005372119879606471,9.787559934114882e-05
-0.030238713889209543,0.0005220598452166808,9.814041729944315e-05
-0.030080262949106335,0.0005069801010071019,9.83976772859991e-05
-0.029894335155913093,0.000491986451480847,9.864741892412108e-05
-0.02968085106900531,0.0004770926549246174,9.888968870072245e-05
-0.029439821464098896,0.00046231248679134133,9.912453998615144e-05
-0.02917134730068038,0.0004476596946001465,9.935203303149931e-05
-0.028875619220517585,0.000433147952969847,9.957223494339181e-05
-0.02855291666016893,0.00041879081899967536,9.978521963638419e-05
-0.028203606626842383,0.0004046016881779225,9.999106776317858e-05
-0.02782814214908747,0.00039059375098394,0.00010018986662296905
-0.027427060379947115,0.0003767799503516814,0.00010038171004830295
-0.02700098031341633,0.00036317294017834055,0.00010056669827093546
-0.026550600081851942,0.0003497850450795235,0.00010074493776724992
-0.026076693823771778,0.00033662822160311753,0.00010091654108392058
-0.025580108133381897,0.0003237140211138291,0.00010108162664459982
-0.02506175811856507,0.00031105355455084236,0.00010124031853851598
-0.024522623107504977,0.00029865745924432483,0.00010139274629196477
-0.023963742060795584,0.0002865358679522497,0.00010153904462376392
-0.023386208764153,0.00027469838024601255,0.00010167935318581348
-0.022791166889717218,0.00026315403633254497,0.00010181381628995812
-0.022179805015396837,0.0002519112933562665,0.00010194258262238032
-0.021553351679061618,0.00024097800418265187,0.00010206580494676505
-0.02091307051884021,0.0002303613986331764,0.00010218363979746901
-0.020260255517523754,0.00022006806712408542,0.00010229624716390833
-0.019596226336118478,0.00021010394666067485,0.00010240379016735452
-0.01892232369786257,0.0002004743091521796,0.00010250643473130774
-0.01823990477761314,0.00019118375203331067,0.00010260434924660411
-0.017550338562912188,0.00018223619119817934,0.00010269770423241198
-0.0168550011725792,0.0001736348562643065,0.0001027866719942776
-0.016155271134456674,0.00016538228818754753,0.00010287142628039056
-0.015452524631057351,0.00015748033924616902,0.00010295214193724898
-0.014748130722717382,0.00014993017540772534,0.00010302899456591246
-0.01404344655830884,0.00014273228108746877,0.00010310216018003626
-0.013339812587639811,0.0001358864663009816,0.00010317181486688337
-0.012638547795743589,0.00012939187620513576,0.00010323813445250989
-0.0119409449852125,0.00012324700300989674,0.00010330129417231366
-0.011248266142170674,0.00011744970022805095,0.00010336146834812314
-0.010561737938188839,0.00011199719920796107,0.00010341883007298214
-0.009882547440142154,0.00010688612786337833,0.00010347355090474998
-0.00921183811280834,0.0001021125314751407,0.0001035258005695846
-0.008550706199328344,9.767189539710652e-05,0.00010357574667630267
-0.007900197555214645,9.355916945847078e-05,0.00010362355444251656
-0.007261304999904547,8.976879381969098e-05,0.00010366938643333611
-0.006634966240338203,8.62947260096303e-05,0.00010371340231329344
-0.0060220624107803645,8.313046884685066e-05,0.00010375575861200756
-0.005423417258279881,8.02690989295856e-05,0.00010379660850395167
-0.004839796987209939,7.770329536821315e-05,0.00010383610160252613
-0.0042719107664782215,7.542536842979111e-05,0.00010387438376847563
-0.0037204118991399407,7.342728776338658e-05,0.00010391159693252392
-0.0031858996470632136,7.170070987683579e-05,0.00010394787893193397
-0.002668921685059116,7.02370045438052e-05,0.00010398336336053914
-0.002169977130320007,6.902727983996042e-05,0.00010401817943163508
-0.0016895200611703228,6.806240554208784e-05,0.0001040524518529806
-0.0012279634123430025,6.733303467370952e-05,0.00010408630071303454
-0.0007856831178473702,6.682962304116192e-05,0.00010411984137746326
-0.00036302236748294306,6.654244666982934e-05,0.00010415318439489102
3.9704154254871956e-05,6.646161711652233e-05,0.0001041864354108376
0.00042220617149340113,6.657709469795939e-05,0.00010421969508879123
0.0007842139794583127,6.687869973569731e-05,0.00010425305903739964
0.0011254749756529625,6.735612197447514e-05,0.00010428661774282718
0.001445750660552545,6.799892838352652e-05,0.00010432045650541668
0.0017448141935031826,6.879656959704044e-05,0.00010435465537991182
0.0020224485663013683,6.973838528699158e-05,0.00010438928911863284
0.0022784454318965416,7.081360878654105e-05,0.00010442442711715122
0.0025126046068931385,7.201137129623846e-05,0.00010446013336217192
0.0027247342555018744,7.332070601183722e-05,0.00010449646638149894
0.002914651755467937,7.473055251457967e-05,0.00010453347919613054
0.0030821852379917095,7.622976176294458e-05,0.00010457121927469992
0.003227175778041199,7.780710201695281e-05,0.0001046097284906449
0.0033494801867396395,7.945126600814801e-05,0.00010464904308265117
0.0034489743310987665,8.115087963760762e-05,0.00010468919361906261
0.0035255568902096577,8.289451244293472e-05,0.00010473020496708274
0.003579153456036152,8.467069002949618e-05,0.00010477209626770085
0.0036097208942549165,8.646790861706894e-05,0.00010481488091736248
0.0036172518836847236,8.827465181155384e-05,0.00010485856655746964
0.003601779545900796,9.007940966895023e-05,0.00010490315507283978
0.0035633820674970218,9.187070007229968e-05,0.00010494864260027509
0.0035021872184514548,9.363709239378679e-05,0.00010499501954839161
0.0034183766812798237,9.536723336871961e-05,0.00010504227062983224
0.0033121901155332366,9.704987506792288e-05,0.0001050903749069414
0.0031839288854476283,9.86739048181681e-05,0.00010513930585191293
0.003033959383406191,0.00010022837688538155,0.00010518903142233881
