frame_number,force
0,694.68255373373
1,694.6968515883386
2,694.7122853622558
3,694.7289311836362
4,694.7468523746119
5,694.7660977122306
6,694.7866998649719
7,694.8086740482464
8,694.8320169339062
9,694.8567058409756
10,694.882698227626
11,694.9099314970731
12,694.9383231213089
13,694.9677710747659
14,694.9981545562348
15,695.0293349664258
16,695.0611571045649
17,695.093450549936
18,695.1260312003475
19,695.158702946695
20,695.1912594695272
21,695.2234861484919
22,695.2551620788363
23,695.2860621917974
24,695.315959476974
25,695.3446273013849
26,695.3718418101635
27,695.3973843801871
28,695.4210440853462
29,695.4426201245195
30,695.4619241615865
31,695.4787825290985
32,695.4930382516029
33,695.5045528510923
34,695.5132079059439
35,695.5189063443958
36,695.5215734614188
37,695.5211576526209
38,695.517630861842
39,695.5109887426686
40,695.5012505390597
41,695.4884586955867
42,695.4726782125591
43,695.453995765874
44,695.4325186160378
45,695.4083733347711
46,695.3817043792235
47,695.3526725409067
48,695.3214532883248
49,695.2882350120724
50,695.2532171743834
51,695.2166083651773
52,695.1786242726585
53,695.1394855843649
54,695.0994158397723
55,695.0586392568955
56,695.017378555607
57,694.9758528023003
58,694.9342753029814
59,694.8928515720871
60,694.8517774019671
61,694.8112370552548
62,694.7714016012878
63,694.7324274186502
64,694.6944548878967
65,694.6576072996645
66,694.6219900016409
67,694.5876898032366
68,694.5547746512968
69,694.5232935843554
70,694.4932769654139
71,694.4647369848644
72,694.4376684197127
73,694.4120496340909
74,694.3878438054867
75,694.3650003563935
76,694.3434565615878
77,694.3231392910523
78,694.3039668421808
79,694.2858508129565
80,694.2686979677702
81,694.2524120481008
82,694.2368954832405
83,694.2220509642177
84,694.2077828569322
85,694.193998444673
86,694.1806090014489
87,694.1675307035375
88,694.1546853864721
89,694.1420011495003
90,694.129412804727
91,694.1168621709656
92,694.1042982244868
93,694.0916771333473
94,694.078962208764
95,694.0661238013959
96,694.0531391555955
97,694.0399922184754
98,694.0266733906356
99,694.0131792048022
100,693.9995119250561
101,693.9856790683307
102,693.9716928584543
103,693.9575696294893
104,693.9433291974232
105,693.9289942157515
106,693.9145895224466
107,693.9001414779019
108,693.8856772901364
109,693.8712243247099
110,693.8568093985162
111,693.84245805639
112,693.8281938288725
113,693.814037471338
114,693.8000061891005
115,693.7861128581857
116,693.7723652564034
117,693.7587653243257
118,693.7453084794491
119,693.7319830070525
120,693.7187695478555
121,693.7056406981648
122,693.692560736102
123,693.6794854884794
124,693.6663623542579
125,693.6531304994292
126,693.6397212342023
127,693.6260585774944
128,693.6120600064879
129,693.5976373807024
130,693.5826980212325
131,693.5671459178247
132,693.5508830310587
133,693.5338106553749
134,693.5158308111907
135,693.4968476398776
136,693.4767687818421
137,693.4555067227469
138,693.4329800945958
139,693.4091149181893
140,693.38384577373
141,693.3571168876805
142,693.3288831249995
143,693.2991108758922
144,693.2677788261598
145,693.2348786017077
146,693.2004152817968
147,693.1644077811205
148,693.1268891044531
149,693.0879064763144
150,693.0475213414817
151,693.0058092220563
152,692.9628594060848
153,692.9187744357461
154,692.8736693642873
155,692.827670761581
156,692.780915465784
157,692.7335490980621
158,692.6857243733372
159,692.6375992494183
160,692.5893349604996
161,692.541093982159
162,692.493037975776
163,692.4453257593767
164,692.3981113465884
165,692.3515420853164
166,692.3057569159994
167,692.260884760465
168,692.217043049889
169,692.1743364039891
170,692.1328554795333
171,692.0926760088947
172,692.0538580447572
173,692.0164454169089
174,691.9804653991681
175,691.9459285854771
176,691.9128289818653
177,691.8811443265021
178,691.8508366480286
179,691.8218530656223
180,691.7941268284117
181,691.7675785884928
182,691.7421178986168
183,691.7176449200441
184,691.6940523172437
185,691.6712273053544
186,691.6490538062549
187,691.6274146616358
188,691.6061938477955
189,691.5852786392503
190,691.5645616787217
191,691.5439429268872
192,691.523331479096
193,691.5026472431955
194,691.4818224745779
195,691.4608031650557
196,691.4395502804571
197,691.4180408348749
198,691.3962687786487
199,691.3742456687115
200,691.352001088835
201,691.3295827929775
202,691.3070565535975
203,691.2845057052609
204,691.2620303808604
205,691.2397464434248
206,691.2177841219209
207,691.1962863662673
208,691.1754069458952
209,691.1553083261929
210,691.1361593650031
211,691.1181328760539
212,691.1014031105104
213,691.0861432141795
214,691.0725227241608
215,691.0607051703182
216,691.0508458411456
217,691.0430897612017
218,691.0375699129844
219,691.0344057263331
220,691.0337018551867
221,691.0355472591616
222,691.0400145987194
223,691.04715993592
224,691.0570227122919
225,691.0696259581207
226,691.0849766789552
227,691.1030663662497
228,691.1238715867121
229,691.1473546159999
230,691.1734640958475
231,691.2021357087592
232,691.2332928779795
233,691.266847507622
234,691.3027007762071
235,691.3407439896
236,691.3808594920149
237,691.4229216287865
238,691.4667977503532
239,691.5123492413537
240,691.5594325525507
241,691.6079002090391
242,691.657601768143
243,691.7083847055204
244,691.7600952178661
245,691.8125789432438
246,691.8656816125596
247,691.9192496546084
248,691.9731307795234
249,692.0271745611153
250,692.0812330311409
251,692.1351612924121
252,692.1888181546908
253,692.242066796621
254,692.2947754563429
255,692.3468181514207
256,692.3980754259043
257,692.4484351195293
258,692.4977931499184
259,692.5460542917452
260,692.5931329288082
261,692.6389537494842
262,692.6834523552205
263,692.7265757545526
264,692.7682827188148
265,692.8085439786029
266,692.8473422432462
267,692.8846720304786
268,692.9205392989043
269,692.9549608790262
270,692.9879636995961
271,693.0195838083123
272,693.0498651923784
273,693.0788584148582
274,693.1066190944778
275,693.1332062664346
276,693.1586806677878
277,693.1831029929444
278,693.2065321639001
279,693.2290236576437
280,693.2506279305504
281,693.2713889772109
282,693.2913430583027
283,693.310517626958
284,693.3289304749529
285,693.3465891112792
286,693.3634903792655
287,693.3796203149404
288,693.3949542473175
289,693.4094571387702
290,693.4230841584842
291,693.4357814733901
292,693.4474872317371
293,693.4581327090157
294,693.4676435861121
295,693.4759413327997
296,693.4829446712388
297,693.4885710919353
298,693.4927383914886
299,693.4953662020329
300,693.4963774866097
301,693.4956999784241
302,693.4932675431157
303,693.4890214448548
304,693.4829115020226
305,693.4748971257969
306,693.4649482430526
307,693.4530461114651
308,693.439184037065
309,693.4233680015277
310,693.4056172005165
311,693.3859644900435
312,693.3644567371736
313,693.3411550711647
314,693.316135026602
315,693.2894865617253
316,693.2613139287271
317,693.2317353732036
318,693.200882646887
319,693.1689003267649
320,693.1359449403516
321,693.1021839006431
322,693.067794258153
323,693.0329612838146
324,692.9978769041888
325,692.9627380155437
326,692.9277447029789
327,692.8930983853147
328,692.8589999006297
329,692.8256475466992
330,692.7932350969521
331,692.7619498227638
332,692.731970561501
333,692.7034658729447
334,692.6765923254619
335,692.6514929512981
336,692.6282959087204
337,692.6071133848541
338,692.5880407652184
339,692.5711560859979
340,692.5565197750265
341,692.5441746766019
342,692.5341463425053
343,692.526443558986
344,692.5210590716188
345,692.5179704702036
346,692.5171412034617
347,692.5185217031652
348,692.5220506030813
349,692.5276560363258
350,692.5352569878252
351,692.5447646724186
352,692.5560839073203
353,692.5691144489952
354,692.5837522664544
355,692.5998907261595
356,692.6174216703812
357,692.6362363799358
358,692.6562264197786
359,692.6772843703212
360,692.6993044497596
361,692.722183032725
362,692.7458190660938
363,692.7701143751887
364,692.7949738484169
365,692.8203054900697
366,692.8460203399945
367,692.8720322723339
368,692.8982576981822
369,692.9246152037138
370,692.9510251555289
371,692.9774093022065
372,693.0036903977398
373,693.0297918683183
374,693.0556375390988
375,693.0811514348667
376,693.1062576696278
377,693.1308804426124
378,693.1549441572365
379,693.178373674224
380,693.201094703456
381,693.223034333479
382,693.2441216922921
383,693.2642887269143
384,693.2834710820014
385,693.301609050376
386,693.3186485635268
387,693.3345421903113
388,693.3492501157527
389,693.362741075138
390,693.3749932196736
391,693.3859948892532
392,693.3957452663983
393,693.4042548845595
394,693.4115459654155
395,693.4176525637106
396,693.422620502735
397,693.4265070869968
398,693.4293805809905
399,693.4313194465548
400,693.4324113394398
401,693.4327518796779
402,693.4324432270605
403,693.4315925059386
404,693.4303101280102
405,693.428708059338
406,693.4268980738847
407,693.424990032398
408,693.4230902199223
409,693.4212997662156
410,693.4197131644909
411,693.4184169000192
412,693.4174882019144
413,693.4169939351312
414,693.4169896516048
415,693.4175188185499
416,693.4186122389625
417,693.4202876756864
418,693.4225496877352
419,693.4253896861158
420,693.4287862141543
421,693.432705452329
422,693.4371019400471
423,693.4419194982604
424,693.4470923285455
425,693.4525462575792
426,693.458200092932
427,693.4639670582181
428,693.4697562810088
429,693.4754743113403
430,693.4810266494896
431,693.486319260093
432,693.4912600493969
433,693.4957602862298
434,693.4997359535932
435,693.5031090219048
436,693.5058086339754
437,693.5077721869558
438,693.5089462903875
439,693.5092875738967
440,693.5087633142834
441,693.5073518519787
442,693.5050427730179
443,693.5018368440478
444,693.4977457008447
445,693.4927913020816
446,693.4870051688921
447,693.4804274374669
448,693.4731057556862
449,693.4650940545838
450,693.4564512229366
451,693.447239712779
452,693.4375241076867
453,693.4273696914429
454,693.4168410568658
455,693.406000791567
456,693.3949082730849
457,693.3836186045341
458,693.372181722691
459,693.3606417076895
460,693.349036314218
461,693.3373967323888
462,693.3257475786937
463,693.3141071150133
464,693.302487692213
465,693.2908964098158
466,693.2793359733946
467,693.2678057180832
468,693.2563027529519
469,693.2448231716455
470,693.233363272567
471,693.2219207345688
472,693.2104956972864
473,693.1990916984159
474,693.1877164259114
475,693.1763822529001
476,693.1651065368095
477,693.1539116803726
478,693.1428249687972
479,693.1318782125342
480,693.1211072371732
481,693.1105512687767
482,693.1002522625357
483,693.0902542159033
484,693.0806024971446
485,693.071343208142
486,693.0625225880523
487,693.0541864562081
488,693.046379691069
489,693.039145743626
490,693.0325261834599
491,693.0265602737795
492,693.0212845719303
493,693.0167325550142
494,693.0129342738066
495,693.0099160395874
496,693.0077001467008
497,693.0063046288444
498,693.0057430419736
499,693.0060242658044
500,693.007152321384
501,693.0091262110797
502,693.011939793589
503,693.0155817064275
504,693.0200353439487
505,693.0252788957511
506,693.0312854499804
507,693.0380231641964
508,693.0454554992318
509,693.0535415014771
510,693.0622361131078
511,693.0714904915704
512,693.0812523259923
513,693.091466143389
514,693.1020735992029
515,693.1130137461397
516,693.1242232748932
517,693.1356367225411
518,693.1471866507353
519,693.158803805463
520,693.1704172798618
521,693.1819547076344
522,693.1933425143707
523,693.2045062462016
524,693.215370980597
525,693.2258618076936
526,693.2359043599447
527,693.2454253673645
528,693.2543532223111
529,693.2626185452366
530,693.2701547470084
531,693.2768985836506
532,693.2827906968628
533,693.287776130648
534,693.2918048137961
535,693.294832001326
536,693.2968186726891
537,693.2977318863827
538,693.297545088616
539,693.2962383700456
540,693.2937986614846
541,693.2902198582528
542,693.285502864092
543,693.2796555483621
544,693.2726926125337
545,693.2646353627399
546,693.2555113853807
547,693.245354124308
548,693.234202361556
549,693.2220996080459
550,693.2090934146697
551,693.1952346155805
552,693.1805765134436
553,693.165174013573
554,693.1490827155463
555,693.1323579792644
556,693.1150539940783
557,693.0972228885714
558,693.0789139204599
559,693.0601727792998
560,693.0410410206985
561,693.0215556346228
562,693.001748739648
563,692.9816473938689
564,692.9612735189253
565,692.9406439405245
566,692.919770554382
567,692.8986606295413
568,692.8773172597124
569,692.8557399674792
570,692.8339254582316
571,692.8118685115215
572,692.7895629872448
573,692.7670029146523
574,692.744183626893
575,692.7211029028217
576,692.697762076816
577,692.6741670721733
578,692.6503293062693
579,692.6262664130525
580,692.6020027350221
581,692.57756955154
582,692.5530050301978
583,692.5283539096087
584,692.5036669400197
585,692.47900011834
586,692.4544137569994
587,692.4299714233732
588,692.4057387789064
589,692.3817823373165
590,692.3581681553343
591,692.3349604714292
592,692.3122203161724
593,692.290004127435
594,692.2683624112686
595,692.2473384947357
596,692.2269674201015
597,692.2072750299312
598,692.1882772900137
599,692.1699798923361
600,692.1523781720306
601,692.1354573574496
602,692.119193151561
603,692.1035526207902
604,692.0884953498673
605,692.0739748094869
606,692.0599398752938
607,692.0463364304029
608,692.0331089813179
609,692.0202022222647
610,692.007562496315
611,691.9951391194953
612,691.9828855501929
613,691.9707603958259
614,691.9587282524491
615,691.9467603756214
616,691.9348351847848
617,691.9229386056462
618,691.9110642536374
619,691.8992134595419
620,691.8873951393903
621,691.8756255150446
622,691.8639276986912
623,691.8523311635115
624,691.8408711325609
625,691.829587925164
626,691.818526302105
627,691.8077348464954
628,691.7972654075988
629,691.7871726234629
630,691.7775135288722
631,691.7683472499351
632,691.7597347845018
633,691.7517388655301
634,691.7444239001031
635,691.737855970808
636,691.7321028817852
637,691.7272342310448
638,691.723321492769
639,691.7204380965451
640,691.7186594944014
641,691.7180632107827
642,691.7187288729803
643,691.7207382175176
644,691.7241750617575
645,691.7291252224719
646,691.735676358085
647,691.7439177117631
648,691.7539397389501
649,691.7658336123204
650,691.7796906053708
651,691.7956013612101
652,691.8136550563825
653,691.8339384729173
654,691.8565349966564
655,691.881523565119
656,691.9089775909564
657,691.938963885375
658,691.9715415996975
659,692.006761195119
660,692.0446634455126
661,692.0852784789205
662,692.1286248688211
663,692.1747087934348
664,692.2235232890342
665,692.2750476310325
666,692.3292468816196
667,692.3860716406542
668,692.4454580264567
669,692.5073278983947
670,692.5715893173339
671,692.6381372247503
672,692.7068543074595
673,692.7776120038852
674,692.8502716005333
675,692.9246853641439
676,693.0006976574861
677,693.0781459974316
678,693.1568620310462
679,693.2366724214143
680,693.317399643434
681,693.3988626919507
682,693.4808777061589
683,693.5632585185834
684,693.6458171421843
685,693.7283642114942
686,693.8107093922426
687,693.8926617702868
688,693.9740302267663
689,694.0546238042119
690,694.1342520696628
691,694.2127254855016
692,694.2898558042907
693,694.3654565075485
694,694.4393433082994
695,694.5113347328239
696,694.581252789064
697,694.6489237199013
698,694.7141788319248
699,694.776855384831
700,694.8367975221294
701,694.8938572220364
702,694.9478952513489
703,694.9987821121639
704,695.0463989747191
705,695.0906385868319
706,695.1314061455375
707,695.1686201136766
708,695.202212964033
709,695.232131835773
710,695.258339092081
711,695.2808127719184
712,695.2995469299581
713,695.3145518574207
714,695.3258541762843
715,695.3334968018423
716,695.3375387720911
717,695.3380549457894
718,695.3351355743371
719,695.3288857531468
720,695.3194247525324
721,695.3068852198842
722,695.2914122436267
723,695.2731622795609
724,695.2523019556626
725,695.2290067828857
726,695.2034598027548
727,695.1758501988903
728,695.1463718923668
729,695.1152221334622
730,695.0826000979034
731,695.0487054947707
732,695.0137371939219
733,694.9778918809035
734,694.9413627455
735,694.9043382061307
736,694.8670006682293
737,694.8295253143689
738,694.7920789297821
739,694.7548187774735
740,694.7178915469303
741,694.6814324041519
742,694.6455641674485
743,694.610396626935
744,694.5760260193451
745,694.5425346632131
746,694.509990750836
747,694.4784482840497
748,694.4479471339876
749,694.4185132020204
750,694.390158659479
751,694.3628822467285
752,694.3366696166921
753,694.3114937130157
754,694.287315178802
755,694.2640827985953
756,694.2417339830698
757,694.2201953100746
758,694.1993831355629
759,694.1792042843616
760,694.1595568261226
761,694.1403309385114
762,694.1214098588946
763,694.102670926651
764,694.0839867185684
765,694.0652262779791
766,694.0462564331235
767,694.026943190826
768,694.0071531798794
769,693.9867551100233
770,693.9656212112526
771,693.9436286234297
772,693.9206607138814
773,693.8966083082538
774,693.8713708271385
775,693.8448573282554
776,693.8169874606183
777,693.7876923412375
778,693.7569153647069
779,693.7246129513885
780,693.690755233302
781,693.6553266716692
782,693.6183265976481
783,693.5797696661645
784,693.5396862094973
785,693.4981224726564
786,693.4551407089707
787,693.4108191130232
788,693.3652515686139
789,693.3185471913039
790,693.2708296484976
791,693.2222362454698
792,693.1729167742767
793,693.1230321347418
794,693.0727527505428
795,693.0222568144397
796,692.9717284025677
797,692.9213554999701
798,692.8713279799653
799,692.8218355776571
800,692.7730658912351
801,692.7252024339183
802,692.6784227471305
803,692.6328965756059
804,692.5887841012063
805,692.5462342355368
806,692.5053829796417
807,692.4663518679149
808,692.4292465201269
809,692.3941553297783
810,692.3611483184457
811,692.3302761831259
812,692.3015695566128
813,692.2750384928131
814,692.2506721852762
815,692.228438931171
816,692.208286360538
817,692.1901419539558
818,692.1739138666175
819,692.1594920649075
820,692.1467497668538
821,692.1355451646245
822,692.1257233997335
823,692.1171187602447
824,692.1095570692507
825,692.1028582299363
826,692.0968388840664
827,692.0913151316738
828,692.086105254254
829,692.0810323831265
830,692.0759270575243
831,692.0706296218367
832,692.064992417741
833,692.0588817359869
834,692.0521795054476
835,692.0447847111795
836,692.0366145435096
837,692.0276052839938
838,692.0177129331493
839,692.0069135825028
840,691.9952035327112
841,691.9825991613816
842,691.9691365471441
843,691.9548708580992
844,691.9398755124155
845,691.9242411174473
846,691.9080741922919
847,691.8914956793553
848,691.8746392559173
849,691.8576494661829
850,691.8406797030511
851,691.8238900731012
852,691.8074451788734
853,691.7915118516748
854,691.7762568667699
855,691.7618446706208
856,691.7484351462813
857,691.7361814384149
858,691.725227855694
859,691.7157078682295
860,691.7077422222292
861,691.7014372009912
862,691.6968830657712
863,691.6941527085143
864,691.6933005421581
865,691.6943616472695
866,691.6973511878882
867,691.7022641034059
868,691.7090750770154
869,691.7177387768439
870,691.7281903641561
871,691.7403462617123
872,691.7541051719353
873,691.7693493285971
874,691.7859459579817
875,691.8037489170413
876,691.8226004698068
877,691.8423331626219
878,691.8627717632829
879,691.8837352342649
880,691.9050387120656
881,691.9264954641928
882,691.9479187960748
883,691.9691238838733
884,691.9899295145133
885,692.0101597192169
886,692.0296452900142
887,692.0482251689435
888,692.0657476974591
889,692.082071712294
890,692.0970674775474
891,692.1106174514807
892,692.1226168968612
893,692.1329743511765
894,692.1416119742197
895,692.1484657840996
896,692.1534857817409
897,692.1566359549911
898,692.1578941511088
899,692.1572518107147
900,692.1547135646983
901,692.1502967045312
902,692.1440305423424
903,692.1359556794814
904,692.1261232044529
905,692.1145938455535
906,692.1014371076856
907,692.0867304214913
908,692.0705583249768
909,692.0530116879735
910,692.0341869833004
911,692.0141856059804
912,691.9931132410733
913,691.9710792797634
914,691.9481962808458
915,691.9245794699427
916,691.9003462635409
917,691.8756158024556
