frame_number,force
0,649.8885500000355
1,650.1243580773105
2,650.3527298828706
3,650.5666546683841
4,650.759935751805
5,650.9275124748752
6,651.0657106431232
7,651.1724417749738
8,651.2473617532776
9,651.2919543188851
10,651.309468917279
11,651.304652926617
12,651.2832704935033
13,651.2514650670167
14,651.215072335449
15,651.1790040543865
16,651.1467943834107
17,651.120346907464
18,651.0998735219613
19,651.0839893923844
20,651.0699162678719
21,651.0537512764874
22,651.0307835181806
23,650.9958660583475
24,650.94385014917
25,650.8700670532882
26,650.7708221395709
27,650.6438484770678
28,650.4886495398064
29,650.3066571925795
30,650.101158284402
31,649.8769964194703
32,649.6401120767332
33,649.3970185890171
34,649.1543097544888
35,648.9182637650447
36,648.6945683642236
37,648.4881618881731
38,648.3031701868057
39,648.1429163411011
40,648.0099831617807
41,647.9063140724345
42,647.8333383563506
43,647.7920941412285
44,647.7833044110766
45,647.8073586610951
46,647.8641773449498
47,647.9529750312837
48,648.0719678091984
49,648.2180867666916
50,648.3867750122807
51,648.5719569311314
52,648.7662513641021
53,648.961447399209
54,649.1491960693319
55,649.3218214042646
56,649.4731271402164
57,649.5990660055496
58,649.6981494327478
59,649.7715129453278
60,649.82261035262
61,649.8565747741601
62,649.8793485273139
63,649.8967371351573
64,649.9135629157362
65,649.9330640939886
66,649.956619963481
67,649.9838156741307
68,650.0128097543694
69,650.0409230545307
70,650.0653194437398
71,650.0836141990325
72,650.0942611932043
73,650.0966505044305
74,650.0909621970759
75,650.0779050644276
76,650.0584728673634
77,650.0337817044204
78,650.0049654884724
79,649.9730616777296
80,649.9388381429045
81,649.902570592072
82,649.8638344137373
83,649.8213913696231
84,649.7732251725438
85,649.7167335069234
86,649.6490427889239
87,649.5673809097722
88,649.469420821392
89,649.3535072270058
90,649.2187133708466
91,649.0647329236159
92,648.8916615363025
93,648.6997431285279
94,648.489152862767
95,648.2598772850972
96,648.0117371439069
97,647.7445773164333
98,647.4586205604033
99,647.1549441345004
100,646.8359866464764
101,646.505942995172
102,646.1708949430357
103,645.8385769765583
104,645.5177773338334
105,645.2174809636697
106,644.9459303017691
107,644.7097864072172
108,644.5135242633798
109,644.359122023964
110,644.2460377914141
111,644.1714278530301
112,644.1305449326491
113,644.1172523149137
114,644.1245935044259
115,644.1453648484501
116,644.1726449435273
117,644.2002368988846
118,644.2229853233349
119,644.2369506422269
120,644.239454149233
121,644.2290253943169
122,644.2052785460546
123,644.1687321114982
124,644.1205836374169
125,644.0624554783647
126,643.9961304406688
127,643.9232972429159
128,643.8453297391588
129,643.7631284005264
130,643.6770512642669
131,643.5869503803025
132,643.4923060283862
133,643.3924212111766
134,643.2866266155294
135,643.1744655298047
136,643.0558554869788
137,642.931225862613
138,642.8016126000408
139,642.6686828523634
140,642.5346770429636
141,642.4022816349191
142,642.2744639111827
143,642.1542967369196
144,642.0447779114432
145,641.9486289403408
146,641.8680676441166
147,641.804580839977
148,641.7587423123816
149,641.730110641963
150,641.7172201813567
151,641.7176654358161
152,641.7282703601794
153,641.7453259753901
154,641.7648798701645
155,641.7830653091356
156,641.7964481625107
157,641.8023453766617
158,641.7990519632477
159,641.7859269135232
160,641.7633324283111
161,641.7324725028228
162,641.6952074888133
163,641.6539172944912
164,641.6114520397033
165,641.5711574769884
166,641.5369111329057
167,641.5130778830837
168,641.5043064350796
169,641.5151347734911
170,641.549432472018
171,641.6097646879192
172,641.6968097797651
173,641.808988937491
174,641.9424508359272
175,642.0914858351749
176,642.2493386586051
177,642.4092774489009
178,642.5656936730245
179,642.7149831372031
180,642.8560101791109
181,642.9900697181985
182,643.1203903236471
183,643.2513142676851
184,643.3873258581011
185,643.5320984566947
186,643.6877200080709
187,643.8542331499682
188,644.029571529598
189,644.2098891694152
190,644.3901933370231
191,644.5651413515063
192,644.7298566920895
193,644.8806333073231
194,645.0154133226048
195,645.133959091942
196,645.2377060725946
197,645.3293534512993
198,645.4122908684682
199,645.4899619063257
200,645.5652454063271
201,645.6399232197673
202,645.7143106842009
203,645.7871322742213
204,645.8556952207357
205,645.91634199584
206,645.9650819477453
207,645.9982591991002
208,646.0131267323386
209,646.008245884143
210,645.9836862664004
211,645.9410469670557
212,645.8833470392573
213,645.8148297331193
214,645.7406899140246
215,645.6666983288537
216,645.598701634424
217,645.5420293065936
218,645.5008968832905
219,645.477912882771
220,645.4737659729318
221,645.4871209809533
222,645.5147223865722
223,645.5516990743207
224,645.5920611688405
225,645.6293511073651
226,645.6573584993347
227,645.670771431853
228,645.6656544879147
229,645.6397054734504
230,645.5923005453519
231,645.5243642052089
232,645.4381078460859
233,645.336681277398
234,645.223775705431
235,645.1032078863025
236,644.9785130310491
237,644.8525816201468
238,644.7273893931433
239,644.603882490671
240,644.4820736253425
241,644.3613612232364
242,644.2410069307462
243,644.1206404201806
244,644.0006540146688
245,643.8824102886816
246,643.7682668915538
247,643.6614672644274
248,643.5659379281964
249,643.4860081380931
250,643.4260659001415
251,643.3901822278976
252,643.3817464139155
253,643.4031549890489
254,643.4555948442933
255,643.538949625173
256,643.6518299183887
257,643.7916949466322
258,643.9550180234295
259,644.1374575419418
260,644.3340192471038
261,644.5392171551481
262,644.7472509172478
263,644.9522198377914
264,645.1483924224736
265,645.330539613217
266,645.4943129368446
267,645.6366133456938
268,645.7558718237318
269,645.8521658194696
270,645.927133396312
271,645.9837100856397
272,646.0257691874137
273,646.05775571189
274,646.084359922821
275,646.1102167329556
276,646.1395912510969
277,646.1760358487033
278,646.2220587124884
279,646.2788885942566
280,646.3464227538208
281,646.4234000676325
282,646.5077733932094
283,646.5971943739612
284,646.689485150208
285,646.7829621544521
286,646.8765111519879
287,646.9693981841602
288,647.060909803884
289,647.1499866970494
290,647.2350029533284
291,647.3137621922151
292,647.3836894848992
293,647.4421426747958
294,647.4867512078274
295,647.5156956435211
296,647.5278622960532
297,647.5228513767433
298,647.5008736113303
299,647.4626098131895
300,647.40910792166
301,647.3417607014666
302,647.2623702482979
303,647.1732756602945
304,647.0774946361224
305,646.9788095517075
306,646.8817259836445
307,646.7912554643127
308,646.7125186970608
309,646.6502135317569
310,646.6080250694987
311,646.5880640804291
312,646.5904116049611
313,646.6128396310729
314,646.6507783215628
315,646.6975920968935
316,646.7451815118233
317,646.7848442216633
318,646.8082449609989
319,646.8083069565607
320,646.7798642234942
321,646.7199939703635
322,646.6280481436952
323,646.5054790687024
324,646.3555737426568
325,646.1831776715737
326,645.9944349548705
327,645.7965270439463
328,645.5973665758829
329,645.4051958461773
330,645.2280623190758
331,645.0731977373125
332,644.9463861667699
333,644.8514359594566
334,644.7898569556872
335,644.7607922071056
336,644.7611859547853
337,644.7861260943741
338,644.8293055020185
339,644.883580906569
340,644.9416223280498
341,644.9966204978371
342,645.0429758403578
343,645.0768584531256
344,645.0965203868453
345,645.1022752230585
346,645.0961399979135
347,645.0812307616906
348,645.0610682477989
349,645.0389597821924
350,645.0175828092393
351,644.9988226479757
352,644.9838379329334
353,644.9732695612146
354,644.9674895057266
355,644.9668022092981
356,644.9715466432768
357,644.9820821691477
358,644.9986683926802
359,645.0212746757792
360,645.0493809166871
361,645.0818415151318
362,645.1168651515526
363,645.1521253891776
364,645.1849816663151
365,645.2127654143216
366,645.233075448054
367,645.2440321412097
368,645.2444515491981
369,645.2339089024222
370,645.2126743769471
371,645.181538912418
372,645.1415995709183
373,645.0941072798348
374,645.0404546394522
375,644.9822990882363
376,644.9217321177815
377,644.8613751900535
378,644.8043145029554
379,644.7538511193831
380,644.7131122463487
381,644.684620261557
382,644.669929094741
383,644.6694131612228
384,644.6822513649358
385,644.7066042923892
386,644.7399447545841
387,644.7794790462766
388,644.8225924098042
389,644.8672562586817
390,644.9123364415099
391,644.9577504390652
392,645.0044499142465
393,645.0542441679138
394,645.1095074167021
395,645.1728207640247
396,645.2465974110413
397,645.3327337709821
398,645.4323193865753
399,645.5454292774693
400,645.6710213745247
401,645.806965906337
402,645.950228644034
403,646.0972054029221
404,646.2441654700207
405,646.3877229485779
406,646.5252342712713
407,646.6550272399585
408,646.7764057169572
409,646.8894405218246
410,646.9946289097612
411,647.0925418892182
412,647.1835537475881
413,647.2676816886658
414,647.3445069257529
415,647.413135867308
416,647.4721839034679
417,647.5197909168693
418,647.5536795795732
419,647.5712494868111
420,647.5696885659019
421,647.5460916419587
422,647.4975954939847
423,647.4215566374377
424,647.315803801159
425,647.17898447945
426,647.0109933824006
427,646.8134311304154
428,646.5900059811518
429,646.3467645564263
430,646.0920296427075
431,645.8359558329639
432,645.5896970618148
433,645.364289034079
434,645.1694369067008
435,645.0124300286262
436,644.8973784231725
437,644.8248976433179
438,644.7922798520393
439,644.7941001580843
440,644.8231390995549
441,644.8714640341176
442,644.9314991130623
443,644.9969231808736
444,645.0632772772906
445,645.1282367363012
446,645.1915710127669
447,645.2548393788827
448,645.3208640423209
449,645.3930310903528
450,645.4745138127302
451,645.5675601229891
452,645.67298717044
453,645.7899633790252
454,645.9160591780618
455,646.0474691198854
456,646.1792956314306
457,646.305837612642
458,646.4208997603499
459,646.5181769526962
460,646.5917453992115
461,646.6366245795086
462,646.6493108788575
463,646.6281702214934
464,646.5736176914849
465,646.4880740866421
466,646.3757343868309
467,646.2421996384145
468,646.0940276534928
469,645.9382633503103
470,645.7820093596624
471,645.632077402028
472,645.4947249700931
473,645.3754544563544
474,645.2788509747054
475,645.2084506659592
476,645.1666393044861
477,645.1545739389342
478,645.172114028858
479,645.2177621290807
480,645.2886465075769
481,645.3806039919738
482,645.4884131187254
483,645.6061827372514
484,645.7278453025109
485,645.8476672842597
486,645.9606849118879
487,646.0629993531008
488,646.1519106810966
489,646.2259175912293
490,646.2846427317882
491,646.3287525635117
492,646.3599203135642
493,646.3808305665584
494,646.3951670798946
495,646.4075022921995
496,646.4230365513148
497,646.4471912245444
498,646.4850992789693
499,646.541045683508
500,646.6179136264267
501,646.7167147272556
502,646.8363046318908
503,646.9733717825694
504,647.1227296554968
505,647.2778725812311
506,647.4317055431578
507,647.5773383562725
508,647.7088336528473
509,647.8218043281578
510,647.9137723861685
511,647.9842384201318
512,648.0344664739114
513,648.0670415876002
514,648.0852877313021
515,648.0926431983157
516,648.092090372548
517,648.0857243450006
518,648.074507916953
519,648.0582083616566
520,648.0354737809334
521,648.0039987164739
522,647.9607412143948
523,647.9021787787216
524,647.8246232688807
525,647.7246345087576
526,647.5995528368708
527,647.4481112683964
528,647.2710216227355
529,647.0713935774534
530,646.8548544169231
531,646.6292851051612
532,646.4041662006049
533,646.1896154929967
534,645.995267455229
535,645.8291736371712
536,645.696896327935
537,645.6009349745271
538,645.5405700140923
539,645.512137934294
540,645.5096786860595
541,645.525835727371
542,645.5528493063056
543,645.583475348634
544,645.6116906333602
545,645.6331012062997
546,645.6450396650364
547,645.6464033589248
548,645.6373342854714
549,645.6188590457673
550,645.5925919579497
551,645.5605670241333
552,645.5252154929245
553,645.4894514910693
554,645.4567800128208
555,645.43131740704
556,645.4176286417066
557,645.4203406254996
558,645.4435720620107
559,645.4902954417097
560,645.5617827421639
561,645.657273006902
562,645.7739514678369
563,645.9072641576417
564,646.0515216125021
565,646.200685369039
566,646.3491945549304
567,646.4926799418322
568,646.6284334963077
569,646.7555595078773
570,646.8748136325211
571,646.9882004450759
572,647.0984274117133
573,647.2083162454152
574,647.3202636483968
575,647.4358182477329
576,647.5554038507205
577,647.6781904355066
578,647.8021030536546
579,647.9239580649427
580,648.0397173582817
581,648.1448503808374
582,648.2347854461347
583,648.3054107699719
584,648.3535589441697
585,648.3773948815789
586,648.3766405197889
587,648.3526090642055
588,648.3080714465453
589,648.2470081461963
590,648.1742893317439
591,648.0952942702289
592,648.0154703397254
593,647.9398574294052
594,647.8726374853555
595,647.8167798139905
596,647.7738348581396
597,647.7438989538468
598,647.7257507269447
599,647.7171528007619
600,647.7153033698206
601,647.7173869406668
602,647.7211153005926
603,647.7251116933753
604,647.7290229986252
605,647.7333482061593
606,647.7390848139065
607,647.7473434762838
608,647.7590438478952
609,647.774723215601
610,647.7944242334476
611,647.8176092742121
612,647.843068920036
613,647.8688279850184
614,647.892084939989
615,647.9092373794692
616,647.9160426545641
617,647.9079420550827
618,647.8805413660082
619,647.830187890938
620,647.7545245731496
621,647.6528725583078
622,647.5263267783326
623,647.37753136296
624,647.2101880873856
625,647.0284125865894
626,646.8360868508773
627,646.6363596853357
628,646.4314063793379
629,646.2224772886532
630,646.0101775137767
631,645.7948657570721
632,645.5770512463743
633,645.3576949993987
634,645.1383720484038
635,644.921302582466
636,644.7092913169785
637,644.5056208912247
638,644.3139313120264
639,644.138091617755
640,643.9820497111181
641,643.849646561508
642,643.7443929273275
643,643.6692101817544
644,643.6261334196859
645,643.615987477116
646,643.6380801009789
647,643.6899848094963
648,643.7674827801214
649,643.8647000418407
650,643.9744338792352
651,644.0886278486186
652,644.1989330932142
653,644.2972854387006
654,644.3764388596244
655,644.4304273803713
656,644.4549580898783
657,644.4477390752886
658,644.4087182945415
659,644.3401813322288
660,644.2466511244521
661,644.1345568493441
662,644.0116829665278
663,643.8864502083753
664,643.767101465049
665,643.6608778368375
666,643.5732931992615
667,643.5076365870829
668,643.4648110760268
669,643.4435443472057
670,643.4409174106848
671,643.4530969625806
672,643.476133866545
673,643.5066947782395
674,643.5426180457227
675,643.5832236736121
676,643.6293491221784
677,643.6831167553208
678,643.7474692964627
679,643.8255495717799
680,643.9200416969089
681,644.0326013143182
682,644.1634666518295
683,644.3112830245694
684,644.4731285924804
685,644.6447137116636
686,644.820725598608
687,644.9952833590507
688,645.1624505848316
689,645.316736910845
690,645.4535233320275
691,645.5693722313293
692,645.6622173135336
693,645.7314494208168
694,645.77790984596
695,645.8037836327995
696,645.8123768029806
697,645.8077756192889
698,645.7944084858719
699,645.7765455277498
700,645.7577822785215
701,645.740573438242
702,645.7259022735514
703,645.7131677663542
704,645.7003321344504
705,645.6843083424965
706,645.6615118531306
707,645.6284804750146
708,645.5824802394229
709,645.5220348741735
710,645.4473182550599
711,645.3603440952373
712,645.264902105567
713,645.1662329542833
714,645.0704910698975
715,644.9840931272269
716,644.9130711233483
717,644.8625335343738
718,644.8362947944054
719,644.8366800763345
720,644.8644681725792
721,644.9189181586662
722,644.9978417351217
723,645.0977180047892
724,645.2138751160585
725,645.3407669603853
726,645.472354781384
727,645.6025753892945
728,645.7258502559688
729,645.8375674483556
730,645.9344538242747
731,646.0147589889493
732,646.0782072497071
733,646.1257271635832
734,646.1590107228322
735,646.1799794636725
736,646.1902597766547
737,646.1907916894559
738,646.1816851965087
739,646.162377029715
740,646.1320424222076
741,646.0901210581909
742,646.0367724497125
743,645.9731120417758
744,645.9011796394253
745,645.8237034992303
746,645.7437929155005
747,645.6646942396537
748,645.5896871451631
749,645.522109031338
750,645.4654170175154
751,645.4231656231559
752,645.3988066724772
753,645.3952921514135
754,645.414549705797
755,645.4569650411216
756,645.5210153393542
757,645.6031533816305
758,645.6979720046777
759,645.7986139305842
760,645.8973515156493
761,645.9862519745726
762,646.0578603150724
763,646.1058550472916
764,646.1256400341468
765,646.1148216576998
766,646.0734963027443
767,646.0042695895846
768,645.9119678724416
769,645.8030691353697
770,645.6849385524813
771,645.5649874292455
772,645.4498882069414
773,645.3449705862007
774,645.253885444257
775,645.1785617066001
776,645.1194181553278
777,645.0757428768098
778,645.0461294309389
779,645.0288720579356
780,645.0222647671355
781,645.0247934227141
782,645.0352379827852
783,645.0527159117269
784,645.0766983014166
785,645.1070111964714
786,645.1438014416069
787,645.187422147856
788,645.23820187641
789,645.2961083561474
790,645.3603779831913
791,645.4292195958501
792,645.4996945198726
793,645.567832955704
794,645.6289929231523
795,645.6784203853413
796,645.7119319643091
797,645.7266106250531
798,645.7213816533241
799,645.6973376687848
800,645.6577257449288
801,645.6075912893408
802,645.5531556383318
803,645.5010504569624
804,645.457538878803
805,645.4278401734765
806,645.4156474831016
807,645.4228805328672
808,645.4496577890413
809,645.494433340018
810,645.5542389363998
811,645.6249898473744
812,645.7018309681204
813,645.7795034934063
814,645.852706264429
815,645.9164246730908
816,645.9662142920986
817,645.9984445056883
818,646.0105040950124
819,646.0009428544099
820,645.9695029910854
821,645.9170142591621
822,645.8451805630955
823,645.7563279131051
824,645.6531756036815
825,645.5386454900056
826,645.4156891888425
827,645.2871215847592
828,645.1554773741932
829,645.0229138456892
830,644.8911646332841
831,644.7615346641447
832,644.6349290550263
833,644.5119148032462
834,644.3928109441991
835,644.2777916044328
836,644.16697507486
837,644.0604717264127
838,643.9583825880019
839,643.8607684470331
840,643.7676203134445
841,643.6788467377653
842,643.594273508562
843,643.5136465458567
844,643.4366328832184
845,643.3628182244614
846,643.2917086856729
847,643.2227581684464
848,643.1554440988916
849,643.0893962001521
850,643.0245603159736
851,642.9613652247447
852,642.9008547125408
853,642.8447488568742
854,642.7954084631301
855,642.7556917161902
856,642.7287095492603
857,642.7175063675536
858,642.7247122276942
859,642.7522222806782
860,642.8009540512871
861,642.8707190568366
862,642.9602287974207
863,643.067232688979
864,643.1887580611085
865,643.3214051953161
866,643.4616531613186
867,643.6061444525457
868,643.7519228883866
869,643.8965997171471
870,644.0384300485202
871,644.1763021293855
872,644.309665409848
873,644.4384339157783
874,644.5628909943589
875,644.6835948083376
876,644.8012606915479
877,644.9165973156391
878,645.0300959406268
879,645.1417963093705
880,645.2510719371074
881,645.3564965572712
882,645.4558642514188
883,645.5464171675532
884,645.625278716384
885,645.6900163376271
886,645.7392018840278
887,645.7728277188685
888,645.7924766604638
889,645.8012128864758
890,645.8032295393632
891,645.8033373723983
892,645.8063995890581
893,645.8168091273036
894,645.8380708858843
895,645.8725088413767
896,645.9210880137008
897,645.9833349222996
898,646.0573520645504
899,646.1399378493194
900,646.2268269356338
901,646.3130464185234
902,646.3933500543623
903,646.462670031475
904,646.5165251750503
905,646.5513347542066
906,646.5645978041412
907,646.5549163657474
908,646.5218752115737
909,646.465829091015
910,646.3876709683329
911,646.2886514411503
912,646.1702933664789
913,646.0344085070872
914,645.8831909115216
915,645.7193426246926
916,645.5461797740606
917,645.3676706458912
