frame_number,force
0,506.53611000005213
1,506.47149637362816
2,506.41464189133126
3,506.3729988605976
4,506.3534017235231
5,506.3617374669917
6,506.40258656464795
7,506.47884935053725
8,506.59140542326634
9,506.7388771578994
10,506.91757374866114
11,507.1216730127515
12,507.34365509366836
13,507.57494719378326
14,507.8066913545805
15,508.0305260561246
16,508.2392801341741
17,508.4275007235949
18,508.5917618663107
19,508.7307280231867
20,508.84498530669305
21,508.9366971969231
22,509.00916684973356
23,509.06637803344245
24,509.1125573840525
25,509.1517863300437
26,509.1877010897379
27,509.2233251061939
28,509.2610496128466
29,509.3027218896254
30,509.3497593654634
31,509.40321571706454
32,509.4637738674794
33,509.5316885986894
34,509.60671637020863
35,509.68805581875364
36,509.77430489176555
37,509.8634382925141
38,509.95282307421513
39,510.0393079941154
40,510.1194207648743
41,510.1896705968183
42,510.24689857952546
43,510.28858795832565
44,510.31306167699086
45,510.3195357116361
46,510.3080353156989
47,510.27921102612225
48,510.23411645827315
49,510.1740250497711
50,510.1003545478318
51,510.014728635742
52,509.91914545092345
53,509.8161720725884
54,509.70906896123904
55,509.6017715452004
56,509.4987015454208
57,509.4044292889546
58,509.3232437869862
59,509.2587011363848
60,509.2132184417546
61,509.1877687266146
62,509.18171493255375
63,509.1927987050802
64,509.21727814211175
65,509.2501969291963
66,509.2857665502474
67,509.31784284497877
68,509.34046457183047
69,509.3483930959032
70,509.3375696123694
71,509.30542018943095
72,509.2509927425416
73,509.17496705237704
74,509.079598734119
75,508.96863305880055
76,508.84717849598275
77,508.72149668679043
78,508.59866768539905
79,508.4861246352028
80,508.39109968357167
81,508.3200572029452
82,508.2781912760024
83,508.2690320747571
84,508.2941655160932
85,508.35305015869045
86,508.4429217157048
87,508.5587986542211
88,508.6936280695944
89,508.8386224949889
90,508.9838164137478
91,509.1188133704706
92,509.2336300762727
93,509.31951267764333
94,509.3696179667942
95,509.37950440606465
96,509.3474345139822
97,509.2745197736929
98,509.1647281289901
99,509.0247405738239
100,508.86362224532525
101,508.6922849246766
102,508.52275168735696
103,508.3672657655642
104,508.2373040054892
105,508.14256964302996
106,508.09005729384535
107,508.08329858448036
108,508.12189752451616
109,508.2014471106796
110,508.3138879603007
111,508.4483247251552
112,508.5922450005042
113,508.73298828834413
114,508.85922394841003
115,508.9621725021637
116,509.03637033340067
117,509.07990071270024
118,509.09413232721676
119,509.08308126845054
120,509.0525416801426
121,509.0091287130978
122,508.9593606309616
123,508.9088845905163
124,508.8619230096464
125,508.820982916826
126,508.78683363221836
127,508.75872154421813
128,508.7347534643468
129,508.712350081599
130,508.6886672641763
131,508.66091498926346
132,508.6265568041714
133,508.58341772455447
134,508.5297467903792
135,508.46427509656
136,508.3862916409362
137,508.29573322628545
138,508.19325551078816
139,508.08023384650284
140,507.95865517030103
141,507.83091004565426
142,507.6995478381482
143,507.5670772956315
144,507.4358656377191
145,507.30813286133707
146,507.18598669355924
147,507.07141816061994
148,506.9661858010403
149,506.8715588305783
150,506.787954566816
151,506.7145676379425
152,506.64912343433946
153,506.58788259782915
154,506.52597311038295
155,506.45804059408044
156,506.3791098341968
157,506.28547315530193
158,506.1753956920313
159,506.04947089354164
160,505.91055538219325
161,505.7633160267397
162,505.6134952383161
163,505.46703604602936
164,505.3292217637456
165,505.2039842304238
166,505.0935087363048
167,504.99820202429476
168,504.91700082029354
169,504.847908449171
170,504.78859166864004
171,504.7368758501749
172,504.69103595124557
173,504.6498553438728
174,504.612484475742
175,504.57816948331117
176,504.5459370838978
177,504.51431736496545
178,504.48117094489083
179,504.443673455302
180,504.3984916319609
181,504.34214409832
182,504.27148337538887
183,504.1841966717419
184,504.0792205567858
185,503.95698924712394
186,503.8194732059722
187,503.67000749534003
188,503.51295071670285
189,503.35324275220546
190,503.1959378473776
191,503.04578972067645
192,502.90696262866936
193,502.7829192303926
194,502.6764784160686
195,502.5899637829348
196,502.52531928857235
197,502.484085042779
198,502.4671974039995
199,502.4746583422678
200,502.50516516688583
201,502.5558011834977
202,502.62188441681377
203,502.69706093407154
204,502.7736932385673
205,502.84352259060785
206,502.8985004505967
207,502.93163005614565
208,502.9376574161184
209,502.9134952878891
210,502.85833072708675
211,502.7734292869778
212,502.661692108972
213,502.52705130532274
214,502.37381151968924
215,502.2060551868303
216,502.02721648272325
217,501.83989399618025
218,501.6459206892189
219,501.4466522915766
220,501.24338841804
221,501.0378159515652
222,500.8323619987028
223,500.630366685717
224,500.4360368945806
225,500.25420112602524
226,500.0899228089756
227,499.94804118080594
228,499.83271395523974
229,499.7470356340317
230,499.69278162629223
231,499.67028291040907
232,499.6783995192908
233,499.71455800349094
234,499.774841636607
235,499.8541470778386
236,499.9464285264069
237,500.0450409695512
238,500.14317760446505
239,500.2343745597402
240,500.3130303221698
241,500.3748726125049
242,500.41731517420976
243,500.43967343974475
244,500.4432315273137
245,500.43116377758525
246,500.40831869394015
247,500.38088027384595
248,500.35592629932773
249,500.34089432037854
250,500.3429503287826
251,500.3682579307831
252,500.4211857459266
253,500.50355900594934
254,500.6141222296324
255,500.74838747720634
256,500.8989742463869
257,501.05643035516874
258,501.2104140165954
259,501.3510466499889
260,501.4702123710129
261,501.5625852090631
262,501.62621636408176
263,501.662599850717
264,501.6762317580276
265,501.67376807617626
266,501.66295293841375
267,501.65151794527185
268,501.6462378463669
269,501.65227182625597
270,501.67283498365146
271,501.7091586418988
272,501.760650223961
273,501.82517602973263
274,501.8994408571662
275,501.97947279870596
276,502.0612036540078
277,502.1410811934642
278,502.21660611121087
279,502.2866845653325
280,502.3517249971464
281,502.4134691116663
282,502.47460881922854
283,502.5382760652092
284,502.60749043682017
285,502.6846301659928
286,502.7709805979158
287,502.86641436785067
288,502.9692582346369
289,503.07639192092194
290,503.18359741642536
291,503.28613155285194
292,503.37944108334773
293,503.45989878472994
294,503.5254281286766
295,503.5759050310261
296,503.61326733323284
297,503.64131459579363
298,503.6652359800632
299,503.6909511068248
300,503.7243701005979
301,503.77066899819465
302,503.8336531247766
303,503.9152684805619
304,504.01532365603236
305,504.13147954570155
306,504.25952659817045
307,504.39390439859284
308,504.5283623019122
309,504.6566465814292
310,504.77312732339374
311,504.8733155412638
312,504.9542410146813
313,505.0146630446894
314,505.0550862288348
315,505.07756658876957
316,505.08532380904273
317,505.08221769488574
318,505.0721866554167
319,505.0587615569751
320,505.04474760241607
321,505.03211824368174
322,505.0221077476495
323,505.0154406670778
324,505.0126098562203
325,505.0141163669124
326,505.02061157873453
327,505.03292133962066
328,505.0519674986422
329,505.07862111180276
330,505.11351872770473
331,505.1568587614569
332,505.2081919508972
333,505.2662393012097
334,505.32879315246436
335,505.39275065362057
336,505.45428851401346
337,505.5091422969095
338,505.55293506878866
339,505.58151357888937
340,505.59127252051593
341,505.57945435998477
342,505.54440262004135
343,505.48573979344667
344,505.4044494682162
345,505.30285761995503
346,505.18451806792484
347,505.05401069203043
348,504.916664997639
349,504.77823098970805
350,504.6445320349262
351,504.5211421012964
352,504.4131235293149
353,504.32484089695913
354,504.2598428036356
355,504.2207890630089
356,504.20939952868065
357,504.2264084440968
358,504.27151810104357
359,504.3433542044314
360,504.4394353718149
361,504.5561823132694
362,504.68900002812234
363,504.8324557950443
364,504.98054636337145
365,505.12701732317026
366,505.2656855746364
367,505.39072623320993
368,505.4969069291571
369,505.5797684659725
370,505.6357531772287
371,505.66228170204914
372,505.6577905579237
373,505.6217617105217
374,505.5547781609664
375,505.4586135862879
376,505.33632198350244
377,505.19226105344404
378,505.03198275556434
379,504.8619646417065
380,504.68922091913106
381,504.5208819217163
382,504.36382748561164
383,504.2244066531323
384,504.10821336433867
385,504.0198544647661
386,503.9626556058791
387,503.9382950360435
388,503.9464183606384
389,503.9843433034853
390,504.046977896698
391,504.1270278359234
392,504.2154830901306
393,504.3023087010546
394,504.37725477671347
395,504.4307219866404
396,504.4546245942859
397,504.44316991484635
398,504.3934493199911
399,504.30574538645493
400,504.1835103840986
401,504.03304156627667
402,503.86293290429614
403,503.68339269554866
404,503.50548518787826
405,503.3403226622759
406,503.1982423167277
407,503.08804092997565
408,503.0163615849968
409,502.98730065539326
410,503.0022471992477
411,503.05992255322724
412,503.1565822423399
413,503.28636895616603
414,503.44183501253514
415,503.6146550321743
416,503.7965091369655
417,503.9800437442827
418,504.1597442169785
419,504.33252103456147
420,504.4978477217695
421,504.65739545481296
422,504.81424565432127
423,504.97186734538894
424,505.1330866303478
425,505.2992581956532
426,505.4697937984149
427,505.6421233091196
428,505.812070330921
429,505.9745348210592
430,506.1243178538557
431,506.2569204840157
432,506.369191364181
433,506.45975282893903
434,506.52917453852126
435,506.57988362741463
436,506.6158154740976
437,506.6418369372296
438,506.6630166744125
439,506.68385717715836
440,506.7076175094181
441,506.73583612670114
442,506.76811834623044
443,506.80219924268437
444,506.8342463447034
445,506.8593386269133
446,506.87205104280275
447,506.86708139209196
448,506.8398668430132
449,506.7871387986154
450,506.70735681847833
451,506.6009594499102
452,506.4703854314228
453,506.3198518293476
454,506.1549170171524
455,505.98189701573745
456,505.80723154360766
457,505.63689754055
458,505.47594047381534
459,505.32815087065273
460,505.19587575097495
461,505.07993894394
462,504.9796571016637
463,504.892970812841
464,504.81673677133364
465,504.74721436586464
466,504.6807155832025
467,504.61430048038085
468,504.54634760896795
469,504.47684743865284
470,504.4073475315457
471,504.340575907701
472,504.27984245750656
473,504.2283543733319
474,504.18858369707044
475,504.16179956392205
476,504.14783912131276
477,504.14515394613676
478,504.1511296911947
479,504.16262552563455
480,504.1766242146971
481,504.190847615956
482,504.2041978636106
483,504.21693507717134
484,504.23057641838926
485,504.2475640661907
486,504.2707801993315
487,504.3029917253622
488,504.34630760419003
489,504.40173906826215
490,504.4689561422753
491,504.5463101125599
492,504.6311342059934
493,504.7202605507576
494,504.8106300690921
495,504.8998521535734
496,504.98660015301766
497,505.07077980096466
498,505.1534460082192
499,505.2364653640012
500,505.3219516311371
501,505.411554931415
502,505.5057451026987
503,505.60325699422987
504,505.7008366931251
505,505.79335858380125
506,505.87430453698573
507,505.9365231471434
508,505.9731289008154
509,505.97837765330655
510,505.94837354643175
511,505.88150732973094
512,505.77857750001726
513,505.64259910022486
514,505.47836177418304
515,505.2918491904072
516,505.0896555728981
517,504.8785157029428
518,504.66500533771915
519,504.4553950761941
520,504.25558851162526
521,504.0710671571758
522,503.9067914685175
523,503.76704194697027
524,503.65520986068435
525,503.57356628760243
526,503.52305380801664
527,503.50314886020334
528,503.51182791603384
529,503.5456448291646
530,503.5999084759616
531,503.668950595397
532,503.74648070150056
533,503.8260153384859
534,503.9013434246191
535,503.9669722112101
536,504.01850480453834
537,504.0529211181896
538,504.06875119633224
539,504.06613428055
540,504.0467528465255
541,504.01362732152063
542,503.9707626487152
543,503.92265822833514
544,503.8737291480121
545,503.8277312157864
546,503.78731295632025
547,503.7538032239304
548,503.7272752294825
549,503.7068433278859
550,503.69109497781636
551,503.67854937886796
552,503.66805220397225
553,503.65904920619687
554,503.65171889186183
555,503.64697222524063
556,503.6463389205972
557,503.6517616005879
558,503.6653230882041
559,503.68894331131884
560,503.7240895393413
561,503.7715313829746
562,503.83114634489857
563,503.9017704038825
564,503.98110740004296
565,504.06574378003353
566,504.15132396059545
567,504.23290231657944
568,504.3054197477221
569,504.3642077683573
570,504.4054336522904
571,504.4264460949675
572,504.42601794897854
573,504.40449005745245
574,504.36380806929117
575,504.3074333419713
576,504.2401155211237
577,504.1675356374522
578,504.09584503323026
579,504.03112920008607
580,503.9788342351667
581,503.9432188102955
582,503.9269173747328
583,503.93069599392385
584,503.9534491980843
585,503.9924368522601
586,504.0437068253243
587,504.1026105736299
588,504.1643121148762
589,504.22421187341575
590,504.27823624129525
591,504.3229732767444
592,504.35566906660404
593,504.37413532946283
594,504.3766427005025
595,504.3618746623837
596,504.32899445039243
597,504.2778371304403
598,504.209190799984
599,504.1250901657959
600,504.02902696687255
601,503.92599004158836
602,503.82228026840454
603,503.72509062851725
604,503.6418826713714
605,503.57961946483755
606,503.54393711857625
607,503.53835911205334
608,503.56367483433456
609,503.617601000533
610,503.6948145382923
611,503.787398107564
612,503.8856864723288
613,503.9794402486487
614,504.05919754938844
615,504.1175808490317
616,504.1503051892361
617,504.1566782686283
618,504.1395032071356
619,504.10444808161776
620,504.0590653812509
621,504.0116823489005
622,503.9703478126538
623,503.94195888605094
624,503.9316380525347
625,503.9423923578765
626,503.9750530447801
627,504.028462633634
628,504.0998491336135
629,504.18530909642845
630,504.2803209823808
631,504.380230236589
632,504.48067812578773
633,504.57797373894834
634,504.66942066758355
635,504.7536005749859
636,504.8305911150398
637,504.90206943147655
638,504.97123763934144
639,505.0425188240515
640,505.1210229090718
641,505.21185396771386
642,505.31938053578125
643,505.4465897397021
644,505.59460875163745
645,505.7624397849154
646,505.946935556229
647,506.14302626300116
648,506.34417433057797
649,506.5429822644139
650,506.7318456874299
651,506.90355871677474
652,507.0518268505637
653,507.1716748848108
654,507.25973446305454
655,507.31438523864654
656,507.33573215267853
657,507.32542497530255
658,507.2863514059407
659,507.22225710606523
660,507.13735962977313
661,507.0360190767157
662,506.92250808494003
663,506.800897654084
664,506.67504572511365
665,506.54864444865535
666,506.42526515970616
667,506.308352768273
668,506.20115764234674
669,506.10662730724505
670,506.0272888044388
671,505.96513393679794
672,505.92149631545476
673,505.8969103912065
674,505.89097538489744
675,505.90228019151584
676,505.92844044275483
677,505.966256346093
678,506.0119563688074
679,506.06147744595836
680,506.11074715139233
681,506.1559569583321
682,506.19382805619773
683,506.2218668599515
684,506.2385952738708
685,506.2437300518964
686,506.2382787796015
687,506.2245195392946
688,506.2058432152907
689,506.1864630184786
690,506.1710237433938
691,506.1641591144524
692,506.1700493100353
693,506.19203062842735
694,506.2323015054369
695,506.29174435228794
696,506.3698505132329
697,506.4647207698104
698,506.5731263099102
699,506.6906384140155
700,506.81184560218304
701,506.93066787973055
702,507.0407614810132
703,507.1359947176903
704,507.2109593335182
705,507.26145542512273
706,507.2848672329097
707,507.2803532986578
708,507.2488073515786
709,507.19259232888095
710,507.11509934462595
711,507.020222499469
712,506.9118483960076
713,506.79343019528255
714,506.66767285308964
715,506.5363287083751
716,506.400098927264
717,506.25864537452225
718,506.11072694828437
719,505.95447230695237
720,505.7877772283347
721,505.608775951339
722,505.4163060278192
723,505.21028526723757
724,504.99194157551796
725,504.76386046222234
726,504.52983358322444
727,504.2945151236121
728,504.06292523002696
729,503.83987457914225
730,503.6294134563711
731,503.434416507017
732,503.25638034375737
733,503.0954422235167
734,502.9505673472826
735,502.8198365308128
736,502.70078528993366
737,502.5907627002179
738,502.48727482623644
739,502.38826558814355
740,502.2922899341411
741,502.19855961297344
742,502.1068799797941
743,502.0175238162454
744,501.9310906922223
745,501.84838780329324
746,501.7703566948438
747,501.69805469293806
748,501.6326689968905
749,501.57551258504594
750,501.52795432949927
751,501.4912710042777
752,501.46644885074755
753,501.4539843757114
754,501.4537321354902
755,501.4648288118042
756,501.4857013533663
757,501.5141505086773
758,501.54749226386065
759,501.5827405766947
760,501.6168194402464
761,501.64678716562173
762,501.67004090499665
763,501.6844644116333
764,501.6885002950419
765,501.6811577954512
766,501.6619853906736
767,501.63103397148956
768,501.5888174551456
769,501.5362589463957
770,501.474608292656
771,501.4053344187817
772,501.330015742748
773,501.25025500564306
774,501.16762891899657
775,501.0836577226667
776,500.9997597871998
777,500.91716032634605
778,500.83675690951895
779,500.75898806854974
780,500.68377597086027
781,500.61060330195374
782,500.53873965312005
783,500.46757426808455
784,500.3969707055339
785,500.32755169307194
786,500.260842957638
787,500.19924109578346
788,500.14581274455094
789,500.1039658267898
790,500.0770479310783
791,500.06792841114145
792,500.07862142230573
793,500.11000656726065
794,500.16169172395104
795,500.2320331912158
796,500.31829245780517
797,500.4168891322195
798,500.5237161372276
799,500.63450298571655
800,500.74522593279045
801,500.85256047929096
802,500.95435197313793
803,501.0500482621916
804,501.14100569147286
805,501.23056604122587
806,501.32382633470206
807,501.42708879213046
808,501.54706233139643
809,501.6899518016794
810,501.86059210524337
811,502.0617659914847
812,502.29380043737694
813,502.55447710097985
814,502.8392348584042
815,503.1416077768819
816,503.45383121943695
817,503.7675430030985
818,504.0744938092421
819,504.3671770212908
820,504.6393175083345
821,504.88621560857007
822,505.10498585324194
823,505.2947259128909
824,505.4566076665472
825,505.5938402335048
826,505.711449685458
827,505.81585169743494
828,505.9142381308164
829,506.0138436252142
830,506.1212014159263
831,506.2415200186287
832,506.3782846605381
833,506.5331119807443
834,506.705812205914
835,506.89458721293045
836,507.09631216515476
837,507.3068714236025
838,507.5215193093633
839,507.73522442188505
840,507.94295968282256
841,508.1399269101509
842,508.32173373916186
843,508.48454735724823
844,508.62523228114395
845,508.74145776750044
846,508.83175474689943
847,508.89551994930355
848,508.9329948181296
849,508.9452624131984
850,508.934289124651
851,508.903002908729
852,508.85537313608086
853,508.79644505336125
854,508.73227224789196
855,508.6696870297799
856,508.6158723429227
857,508.57775214244054
858,508.56127292602497
859,508.5706820632343
860,508.60791838485494
861,508.6722272924382
862,508.7600928829812
863,508.8655291079631
864,508.98069619846086
865,509.0967438319746
866,509.20476016236086
867,509.29671515824487
868,509.3662950872996
869,509.4095284142755
870,509.4251279445396
871,509.4145275496822
872,509.3816463213366
873,509.33244168892713
874,509.2743179213897
875,509.2154520845853
876,509.1640902950901
877,509.1278526554373
878,509.11307434720453
879,509.1242137032875
880,509.16337328438567
881,509.2299941444461
882,509.3207859541535
883,509.42994043792385
884,509.5496398073073
885,509.6708227937804
886,509.784124051127
887,509.8808669393594
888,509.9539681442401
889,509.99861546596287
890,510.0126155307917
891,509.9963683838276
892,509.9524980019601
893,509.88523832548225
894,509.7997185754912
895,509.7012877351072
896,509.594974064096
