frame_number,force
0,732.5542600116898
1,732.5174662523536
2,732.4832113751587
3,732.4519579095894
4,732.4241730470084
5,732.4003149771752
6,732.3808176585653
7,732.3660743510961
8,732.3564203915159
9,732.3521158477722
10,732.3533288891996
11,732.3601209281981
12,732.3724347073371
13,732.3900864157283
14,732.4127626354286
15,732.4400225449573
16,732.4713054123707
17,732.5059430111969
18,732.5431762193899
19,732.5821747774114
20,732.6220590460002
21,732.6619226387601
22,732.7008549732923
23,732.7379630152836
24,732.7723917233434
25,732.8033428938735
26,732.830092207716
27,732.8520042793585
28,732.8685454639628
29,732.8792941758267
30,732.8839485278476
31,732.8823311341185
32,732.8743908776936
33,732.8602014116802
34,732.8399562555555
35,732.8139605900577
36,732.7826201407922
37,732.7464277585706
38,732.7059484348616
39,732.6618035709332
40,732.614655317917
41,732.5651916419598
42,732.5141124710206
43,732.4621170060286
44,732.409892161145
45,732.358102131879
46,732.3073791785837
47,732.2583157628484
48,732.2114581461334
49,732.1673014594704
50,732.1262861190723
51,732.0887953648482
52,732.0551536854008
53,732.0256259336084
54,732.00041697432
55,731.9796717438884
56,731.963475674487
57,731.9518555247557
58,731.9447806969799
59,731.9421650801997
60,731.9438693812415
61,731.9497038477233
62,731.9594312500802
63,731.9727699530629
64,731.9893968876122
65,732.0089502510094
66,732.0310317998913
67,732.0552086538639
68,732.0810146374389
69,732.1079513829222
70,732.1354896548173
71,732.1630715215696
72,732.190113972981
73,732.2160143566232
74,732.2401577230248
75,732.2619259756069
76,732.2807086440902
77,732.2959150720814
78,732.306987771024
79,732.3134166311398
80,732.3147536109057
81,732.3106274541549
82,732.3007578714394
83,732.2849684487322
84,732.2631974051726
85,732.2355053619608
86,732.2020795239487
87,732.1632339746234
88,732.1194060228644
89,732.0711487011139
90,732.0191196179908
91,731.9640664267898
92,731.9068092364024
93,731.8482204404092
94,731.7892026770224
95,731.7306658499497
96,731.6735042251838
97,731.6185745598412
98,731.566676066973
99,731.5185327964119
100,731.4747787303133
101,731.435945625718
102,731.402453482556
103,731.3746035029775
104,731.3525734826941
105,731.3364156709076
106,731.3260572068666
107,731.3213032389474
108,731.3218427277125
109,731.3272567713888
110,731.3370291590642
111,731.3505588087397
112,731.3671737667719
113,731.3861464695158
114,731.4067099637381
115,731.4280747713838
116,731.4494460828175
117,731.4700409655235
118,731.489105297082
119,731.5059301728601
120,731.5198675509154
121,731.5303448497306
122,731.5368781435888
123,731.5390835518672
124,731.536686415544
125,731.5295279021728
126,731.5175687529319
127,731.5008899395085
128,731.4796900446397
129,731.4542792925864
130,731.4250703773721
131,731.3925664928452
132,731.3573471223347
133,731.3200521385863
134,731.2813646643323
135,731.2419930508698
136,731.2026523007357
137,731.1640453076998
138,731.1268443971911
139,731.0916737621911
140,731.0590934502154
141,731.0295855712009
142,731.0035433622323
143,730.9812636068513
144,730.9629426542933
145,730.9486760117424
146,730.9384612742734
147,730.9322040040695
148,730.9297260380591
149,730.9307755967063
150,730.9350385182779
151,730.9421499740421
152,730.9517061218913
153,730.9632753030087
154,730.9764085645332
155,730.990649494232
156,731.0055435368122
157,731.0206470256779
158,731.0355360278462
159,731.0498148170337
160,731.0631235368171
161,731.0751445249997
162,731.0856068328962
163,731.094288621808
164,731.1010173162884
165,731.1056676140898
166,731.1081576552759
167,731.1084438050101
168,731.1065145949293
169,731.1023843876976
170,731.096087268844
171,731.0876715568387
172,731.0771952265835
173,731.0647225102665
174,731.0503219475935
175,731.0340661402151
176,731.0160333641388
177,730.9963109674729
178,730.9750001546253
179,730.9522214770694
180,730.92812027795
181,730.9028714806832
182,730.8766833292347
183,730.8497998584472
184,730.8225019842926
185,730.7951071860424
186,730.7679677887602
187,730.741467802173
188,730.7160181492783
189,730.6920500229376
190,730.670006138432
191,730.6503298181377
192,730.633452079427
193,730.6197771218878
194,730.6096668067884
195,730.6034248943439
196,730.6012819137364
197,730.6033815289245
198,730.6097691444713
199,730.6203833722767
200,730.6350509324395
201,730.6534855573503
202,730.6752914034473
203,730.6999712738622
204,730.7269396252711
205,730.7555399418721
206,730.7850656797337
207,730.8147836752236
208,730.8439587280619
209,730.8718780404549
210,730.8978742864635
211,730.9213462266196
212,730.9417759235722
213,730.9587417757456
214,730.9719268184502
215,730.9811220478543
216,730.9862248269247
217,730.9872326524701
218,730.9842327154942
219,730.9773878729984
220,730.9669199216781
221,730.9530913539384
222,730.9361869477058
223,730.9164965006304
224,730.8942997806788
225,730.8698544180712
226,730.8433870952862
227,730.8150880573387
228,730.7851087127019
229,730.7535619733576
230,730.7205249895211
231,730.6860440043072
232,730.6501411088728
233,730.6128226822951
234,730.5740892575005
235,730.5339464908669
236,730.4924168355417
237,730.4495514003851
238,730.4054413225266
239,730.3602278649278
240,730.3141104305515
241,730.2673517474018
242,730.2202795955409
243,730.1732846243176
244,730.126814048536
245,730.0813612992608
246,730.0374520242337
247,729.995627156414
248,729.9564240415751
249,729.9203567833533
250,729.887896980868
251,729.8594558782559
252,729.8353686839242
253,729.8158815884085
254,729.8011418867105
255,729.7911915340698
256,729.7859643427381
257,729.7852868569325
258,729.7888827789991
259,729.7963806848039
260,729.8073246361654
261,729.8211871554482
262,729.8373839011531
263,729.8552893368127
264,729.8742527576215
265,729.8936141909646
266,729.9127198399553
267,729.9309368685865
268,729.947667452085
269,729.9623621027422
270,729.9745322549429
271,729.98376194665
272,729.9897182380856
273,729.992159823405
274,729.9909431624454
275,729.9860254571823
276,729.9774639795139
277,729.9654116033283
278,729.9501088128816
279,729.9318728432361
280,729.911084890132
281,729.8881765018756
282,729.8636163311115
283,729.8378983203805
284,729.8115320713646
285,729.7850356553133
286,729.7589306022339
287,729.7337383965184
288,729.70997756556
289,729.6881603611903
290,729.6687880849656
291,729.6523443149356
292,729.6392856555827
293,729.6300300802174
294,729.6249433326626
295,729.6243241013802
296,729.6283887876554
297,729.6372567591449
298,729.6509370681242
299,729.6693176736444
300,729.6921581733674
301,729.7190869213134
302,729.7496032033359
303,729.7830848500648
304,729.818801267021
305,729.8559314003396
306,729.8935857726377
307,729.9308315502668
308,729.9667196169665
309,730.0003126576497
310,730.0307131976584
311,730.0570904949097
312,730.0787052690849
313,730.0949314316495
314,730.1052741390004
315,730.1093836161718
316,730.1070643537211
317,730.0982794877328
318,730.0831503842278
319,730.0619516009965
320,730.0351014879321
321,730.0031487735519
322,729.9667556106417
323,729.9266776940985
324,729.8837422018531
325,729.8388244566651
326,729.7928243242467
327,729.7466433558079
328,729.7011634962977
329,729.657227852077
330,729.6156236468946
331,729.5770672224712
332,729.5421908579439
333,729.5115312918708
334,729.4855200409681
335,729.4644758073215
336,729.4485993715597
337,729.4379713686739
338,729.4325532698094
339,729.4321917794721
340,729.4366267168488
341,729.4455022935568
342,729.4583815287053
343,729.4747633472442
344,729.4941017085665
345,729.5158259511616
346,729.5393614307553
347,729.5641494699626
348,729.5896656467663
349,729.6154355441246
350,729.6410472421886
351,729.6661600498933
352,729.6905092806774
353,729.71390726197
354,729.7362410968799
355,729.757467847257
356,729.7776078196155
357,729.7967366428455
358,729.8149768628879
359,729.832489746592
360,729.8494678065523
361,729.8661282511059
362,729.8827071967528
363,729.8994541682647
364,729.916626315297
365,729.9344819494455
366,729.9532733087552
367,729.9732387071299
368,729.9945943653138
369,730.0175262529219
370,730.0421822134758
371,730.0686645837328
372,730.0970235623769
373,730.1272517212334
374,730.1592801837994
375,730.192977052933
376,730.228148624416
377,730.2645437505942
378,730.3018614346079
379,730.3397614299278
380,730.3778773796386
381,730.4158318518103
382,730.4532524559288
383,730.4897880633091
384,730.5251240671582
385,730.5589956486192
386,730.5911981658815
387,730.6215940583994
388,730.6501160470369
389,730.6767668370976
390,730.7016158698511
391,730.7247938184051
392,730.7464854618903
393,730.7669213621048
394,730.78636852693
395,730.80512008402
396,730.8234839690394
397,730.8417707803821
398,730.860281248798
399,730.8792940905727
400,730.8990551257883
401,730.9197683158606
402,730.9415889742573
403,730.964619137071
404,730.9889050263525
405,731.0144365285025
406,731.0411485357673
407,731.0689239387884
408,731.0975980806564
409,731.1269645397456
410,731.1567821504951
411,731.186783208017
412,731.2166828168454
413,731.2461892764437
414,731.2750152482323
415,731.3028893052432
416,731.3295673752835
417,731.3548435135547
418,731.3785593581908
419,731.400611607523
420,731.4209570091693
421,731.4396146552359
422,731.4566656970118
423,731.4722507896875
424,731.4865656358692
425,731.499855008433
426,731.5124056775488
427,731.5245387076556
428,731.5366015314169
429,731.5489600429764
430,731.5619907950334
431,731.5760733293719
432,731.5915826977212
433,731.608882253447
434,731.6283167650383
435,731.6502058451761
436,731.6748376672346
437,731.7024629762124
438,731.7332894361921
439,731.7674763249133
440,731.8051295088616
441,731.8462965986881
442,731.8909622438209
443,731.939043634936
444,731.9903863578045
445,732.0447607432081
446,732.1018588517187
447,732.161292317285
448,732.2225914335884
449,732.2852059859949
450,732.3485083548467
451,732.4117993856487
452,732.4743174681697
453,732.535251154603
454,732.5937554324935
455,732.648971466744
456,732.7000493108836
457,732.7461728227125
458,732.7865858083353
459,732.8206182266557
460,732.8477110881058
461,732.8674385291249
462,732.879525563611
463,732.8838602716404
464,732.8804996126108
465,732.869668531817
466,732.8517525121088
467,732.8272841706125
468,732.7969248462922
469,732.7614423103103
470,732.7216857817542
471,732.6785594342871
472,732.6329955706666
473,732.5859285543343
474,732.5382703796598
475,732.4908885376916
476,732.4445867258607
477,732.4000889462361
478,732.3580275138291
479,732.3189353719264
480,732.2832428827762
481,732.2512789627997
482,732.2232761280533
483,732.1993787795494
484,732.1796538917708
485,732.1641031257867
486,732.1526753019302
487,732.1452782482475
488,732.1417893062907
489,732.1420640670004
490,732.1459430672746
491,732.153256215471
492,732.1638247662033
493,732.177460825298
494,732.1939645990558
495,732.2131197935116
496,732.2346876643186
497,732.2584002772317
498,732.2839536336445
499,732.3110014333915
500,732.3391503379979
501,732.3679576175527
502,732.3969319562183
503,732.4255379241351
504,732.4532042633479
505,732.4793357969395
506,732.5033284952866
507,732.5245869800111
508,732.5425435028224
509,732.5566772749467
510,732.5665330129289
511,732.5717376783067
512,732.5720145256392
513,732.5671936944913
514,732.5572187380714
515,732.5421487169044
516,732.522155759839
517,732.4975182469675
518,732.4686099793864
519,732.4358858622143
520,732.399864752782
521,732.361110273275
522,732.3202105762683
523,732.2777581877755
524,732.2343310360516
525,732.1904756427645
526,732.1466933053327
527,732.1034299360938
528,732.0610699800231
529,732.0199345130153
530,731.9802833037046
531,731.9423203572147
532,731.9062022518523
533,731.8720484181292
534,731.8399523901462
535,731.8099929870768
536,731.7822443933654
537,731.7567842695855
538,731.7336993429093
539,731.7130882539144
540,731.6950616147883
541,731.6797392704027
542,731.6672448157827
543,731.6576976497263
544,731.6512031735599
545,731.647841963954
546,731.6476587422709
547,731.650651830715
548,731.6567636894152
549,731.6658731098571
550,731.6777896253382
551,731.6922506237606
552,731.708921534038
553,731.7273993469456
554,731.747219580854
555,731.7678665375317
556,731.7887863606663
557,731.8094021757131
558,731.8291305563221
559,731.8473986534691
560,731.8636613756207
561,731.8774179606739
562,731.888227237373
563,731.8957209475119
564,731.8996146430799
565,731.8997157686008
566,731.8959286058265
567,731.8882559197157
568,731.8767974344975
569,731.861745572001
570,731.8433790564836
571,731.8220549598622
572,731.7981995544732
573,731.7722980744009
574,731.7448833247528
575,731.7165231161272
576,731.6878066841153
577,731.6593304505756
578,731.6316836146624
579,731.6054341112662
580,731.5811154460578
581,731.5592148356855
582,731.5401629973818
583,731.5243258653252
584,731.511998434528
585,731.5034008257304
586,731.4986765547594
587,731.4978929264565
588,731.5010434720695
589,731.5080523557917
590,731.5187806007584
591,731.5330338103267
592,731.5505708767325
593,731.5711130549576
594,731.5943527334614
595,731.6199612604369
596,731.6475953381356
597,731.6769017863234
598,731.7075208209483
599,731.7390883163363
600,731.7712377696442
601,731.8036027854355
602,731.8358207654574
603,731.8675381633223
604,731.8984172951779
605,731.9281443986811
606,731.9564384283718
607,731.9830599639713
608,732.007819570061
609,732.0305849326659
610,732.0512861068252
611,732.0699183141367
612,732.0865419677147
613,732.1012798876616
614,732.1143118810571
615,732.1258669686001
616,732.1362136260008
617,732.145648550702
618,732.1544846202843
619,732.1630387543698
620,732.1716202991182
621,732.1805204385585
622,732.1900030951219
623,732.2002977473758
624,732.2115944203505
625,732.2240407671484
626,732.2377408193236
627,732.2527548257567
628,732.2690996789535
629,732.2867496803185
630,732.3056377093616
631,732.3256570779134
632,732.3466643341027
633,732.3684830635224
634,732.3909085084385
635,732.4137127486684
636,732.4366502542921
637,732.4594637243538
638,732.4818901823675
639,732.5036672813873
640,732.5245396811401
641,732.5442652299503
642,732.5626205938768
643,732.5794060017116
644,732.5944489221558
645,732.6076067026694
646,732.618768402897
647,732.6278561530643
648,732.6348262822931
649,732.6396702247472
650,732.642414955062
651,732.6431225585211
652,732.6418885729597
653,732.6388389472318
654,732.6341257673935
655,732.627922167956
656,732.6204169517794
657,732.6118093709151
658,732.6023043511998
659,732.5921082701325
660,732.5814252699183
661,732.5704540095988
662,732.5593847226071
663,732.5483964548565
664,732.5376544208026
665,732.5273075018232
666,732.5174859733512
667,732.5082995643958
668,732.499835929054
669,732.492159544615
670,732.4853109777675
671,732.4793064634847
672,732.4741378603088
673,732.4697732004081
674,732.4661581281869
675,732.4632184869043
676,732.4608642082734
677,732.4589945271593
678,732.4575044142365
679,732.456292006926
680,732.4552666962096
681,732.4543573761827
682,732.4535202463084
683,732.4527455648181
684,732.4520628826898
685,732.4515444400914
686,732.4513065142386
687,732.4515086029023
688,732.4523504623489
689,732.4540671693833
690,732.4569224561222
691,732.4612005109643
692,732.4671963152351
693,732.4752045637587
694,732.4855073928231
695,732.4983614019653
696,732.513984624888
697,732.5325441299158
698,732.5541448989565
699,732.5788206152375
700,732.6065269558079
701,732.6371378780118
702,732.6704452075855
703,732.706161629056
704,732.7439269926203
705,732.7833176894825
706,732.82385868901
707,732.8650376740723
708,732.9063205768197
709,732.947167731966
710,732.9870498500533
711,733.0254630650815
712,733.0619423943872
713,733.0960730466653
714,733.127499148547
715,733.1559296353316
716,733.1811412288466
717,733.2029785911672
718,733.2213519325313
719,733.236232558242
720,733.247646968227
721,733.255670098609
722,733.2604181534842
723,733.2620413172501
724,733.2607165408887
725,733.2566405847543
726,733.2500235450403
727,733.2410831183894
728,733.2300398091184
729,733.2171131589705
730,733.2025189235906
731,733.1864669733332
732,733.1691595979988
733,733.1507898772364
734,733.1315398466837
735,733.1115783593939
736,733.0910588195081
737,733.0701172386479
738,733.0488711346281
739,733.0274195818099
740,733.0058443687758
741,732.9842119242302
742,732.9625755615651
743,732.9409776782462
744,732.9194517385622
745,732.8980240490923
746,732.8767154506959
747,732.8555431030887
748,732.834522531599
749,732.8136700414282
750,732.7930054942491
751,732.7725552868997
752,732.7523551815856
753,732.7324524769328
754,732.7129069731982
755,732.6937903122728
756,732.6751835344136
757,732.6571730204639
758,732.6398452582747
759,732.6232809502307
760,732.6075488711906
761,732.5926997674339
762,732.5787605995702
763,732.5657295308537
764,732.55357210106
765,732.5422189426992
766,732.5315652704747
767,732.5214723030705
768,732.5117707340759
769,732.5022662548257
770,732.4927469107176
771,732.482991805971
772,732.472780458755
773,732.4619020439299
774,732.4501638821076
775,732.4373987648905
776,732.4234709048529
777,732.4082803968523
778,732.3917661378368
779,732.3739072557761
780,732.3547232055778
781,732.3342726903911
782,732.3126514496752
783,732.2899888360454
784,732.266443069254
785,732.242195099657
786,732.2174411284769
787,732.1923840411218
788,732.1672242625539
789,732.1421507155161
790,732.1173325807945
791,732.0929124350389
792,732.0690011078422
793,732.0456743061725
794,732.022970794031
795,732.0008917895913
796,731.979401303113
797,731.9584273516489
798,731.937864234928
799,731.9175762046367
800,731.8974028227664
801,731.8771661044539
802,731.8566793059824
803,731.8357570780632
804,731.8142266493753
805,731.7919396328817
806,731.768783916195
807,731.7446949455351
808,731.7196655877725
809,731.6937537158275
810,731.6670867780747
811,731.6398628734361
812,731.6123481367854
813,731.5848704204952
814,731.5578093493833
815,731.5315829465158
816,731.5066312504388
817,731.4833976352071
818,731.4623088273934
819,731.4437548276834
820,731.4280700277567
821,731.415516715127
822,731.4062718899755
823,731.4004179649836
824,731.3979375941374
825,731.3987126441872
826,731.402527160104
827,731.4090740146806
828,731.4179647562173
829,731.4287420603935
830,731.4408942358508
831,731.4538713506638
832,731.467102536012
833,731.4800138060799
834,731.4920454739604
835,731.5026681661335
836,731.5113966140592
837,731.5178007287518
838,731.5215137828332
839,731.5222377374976
840,731.5197458579916
841,731.513882800806
842,731.5045623672241
843,731.4917631486285
844,731.4755223944072
845,731.4559286095891
846,731.433113519357
847,731.4072439890543
848,731.3785142837095
849,731.347138852909
850,731.3133457451358
851,731.2773707576409
852,731.239452437656
853,731.1998280504988
854,731.15873063031
855,731.1163871949637
856,731.0730180752587
857,731.0288370781025
858,730.9840519710298
859,730.9388646759579
860,730.8934706731332
861,730.8480574066972
862,730.8028018184817
863,730.757867397141
864,730.7134012958979
865,730.6695321546102
866,730.6263692138236
867,730.5840031035623
868,730.5425084228287
869,730.501948021161
870,730.4623787480261
871,730.4238582699728
872,730.3864523824575
873,730.3502421556539
874,730.3153302792622
875,730.2818460605034
876,730.2499486363506
877,730.2198280655062
878,730.1917040735964
879,730.1658223686632
880,730.1424486285308
881,730.121860437366
882,730.1043375790534
883,730.0901512050567
884,730.0795525071499
885,730.0727615864172
886,730.0699571419211
887,730.0712674312654
888,730.0767628090753
889,730.0864501080584
890,730.1002691369582
891,730.1180915399378
892,730.1397221803285
893,730.1649031019999
894,730.1933199540325
895,730.2246105085528
896,730.2583746321252
897,730.2941849217702
898,730.3315972486844
899,730.3701606221261
900,730.4094260066992
901,730.4489539320185
902,730.4883209015123
903,730.5271247324263
904,730.564989023115
905,730.6015669397417
906,730.636544484475
907,730.6696434049272
908,730.7006239377444
909,730.7292876059806
910,730.7554802550382
911,730.779095394375
912,730.8000777500808
913,730.8184268002913
914,730.8342000153399
915,730.8475155421952
916,730.8585540839107
917,730.8675596931862
