frame_number,force
0,732.5542600112198
1,732.5174662518876
2,732.4832113746977
3,732.4519579091342
4,732.4241730465594
5,732.4003149767325
6,732.3808176581286
7,732.366074350665
8,732.3564203910901
9,732.3521158473511
10,732.3533288887827
11,732.3601209277849
12,732.3724347069273
13,732.3900864153217
14,732.412762635025
15,732.4400225445564
16,732.4713054119719
17,732.5059430107993
18,732.5431762189932
19,732.5821747770151
20,732.6220590456046
21,732.6619226383657
22,732.7008549729001
23,732.7379630148947
24,732.7723917229589
25,732.803342893495
26,732.8300922073453
27,732.8520042789972
28,732.8685454636126
29,732.8792941754886
30,732.8839485275225
31,732.8823311338074
32,732.8743908773966
33,732.8602014113969
34,732.8399562552846
35,732.8139605897974
36,732.7826201405406
37,732.7464277583259
38,732.7059484346221
39,732.6618035706971
40,732.6146553176828
41,732.5651916417263
42,732.5141124707866
43,732.462117005793
44,732.4098921609069
45,732.3581021316384
46,732.3073791783411
47,732.2583157626049
48,732.2114581458895
49,732.1673014592265
50,732.1262861188281
51,732.0887953646039
52,732.0551536851566
53,732.0256259333646
54,732.0004169740769
55,731.9796717436459
56,731.963475674245
57,731.9518555245139
58,731.9447806967376
59,731.942165079956
60,731.9438693809961
61,731.9497038474764
62,731.9594312498318
63,731.9727699528129
64,731.98939688736
65,732.0089502507541
66,732.0310317996315
67,732.0552086535984
68,732.0810146371663
69,732.1079513826419
70,732.1354896545288
71,732.1630715212723
72,732.1901139726742
73,732.2160143563057
74,732.2401577226943
75,732.2619259752612
76,732.280708643727
77,732.2959150716995
78,732.3069877706224
79,732.3134166307184
80,732.3147536104649
81,732.3106274536963
82,732.3007578709654
83,732.2849684482461
84,732.2631974046778
85,732.2355053614614
86,732.2020795234484
87,732.1632339741261
88,732.119406022373
89,732.0711487006306
90,732.0191196175166
91,731.9640664263248
92,731.9068092359461
93,731.8482204399603
94,731.7892026765792
95,731.7306658495103
96,731.6735042247466
97,731.6185745594046
98,731.5666760665355
99,731.5185327959728
100,731.4747787298719
101,731.4359456252744
102,731.4024534821114
103,731.3746035025331
104,731.3525734822516
105,731.3364156704694
106,731.3260572064348
107,731.3213032385244
108,731.3218427273006
109,731.3272567709901
110,731.3370291586803
111,731.3505588083715
112,731.3671737664197
113,731.3861464691798
114,731.4067099634185
115,731.4280747710806
116,731.4494460825312
117,731.4700409652545
118,731.4891052968306
119,731.5059301726264
120,731.5198675506992
121,731.5303448495307
122,731.5368781434034
123,731.5390835516945
124,731.5366864153818
125,731.5295279020188
126,731.5175687527834
127,731.5008899393625
128,731.4796900444927
129,731.454279292435
130,731.4250703772132
131,731.3925664926766
132,731.3573471221548
133,731.320052138394
134,731.2813646641265
135,731.2419930506497
136,731.2026523005004
137,731.1640453074484
138,731.1268443969228
139,731.0916737619048
140,731.0590934499096
141,731.0295855708744
142,731.0035433618838
143,730.9812636064793
144,730.9629426538967
145,730.9486760113193
146,730.938461273822
147,730.932204003588
148,730.9297260375465
149,730.9307755961619
150,730.9350385177015
151,730.9421499734344
152,730.9517061212538
153,730.963275302343
154,730.9764085638419
155,730.9906494935186
156,731.0055435360814
157,731.0206470249356
158,731.035536027099
159,731.0498148162889
160,731.0631235360811
161,731.0751445242786
162,731.0856068321953
163,731.0942886211318
164,731.1010173156412
165,731.1056676134752
166,731.1081576546962
167,731.1084438044658
168,731.1065145944194
169,731.1023843872206
170,731.0960872683971
171,731.0876715564181
172,731.0771952261848
173,731.0647225098847
174,731.0503219472231
175,731.03406613985
176,731.0160333637727
177,730.9963109671002
178,730.9750001542405
179,730.9522214766681
180,730.9281202775281
181,730.9028714802376
182,730.8766833287632
183,730.8497998579485
184,730.8225019837661
185,730.7951071854882
186,730.7679677881787
187,730.7414678015647
188,730.7160181486438
189,730.6920500222776
190,730.6700061377472
191,730.6503298174293
192,730.6334520786966
193,730.6197771211378
194,730.6096668060219
195,730.6034248935653
196,730.6012819129506
197,730.6033815281367
198,730.6097691436868
199,730.6203833715009
200,730.6350509316784
201,730.6534855566098
202,730.6752914027331
203,730.6999712731797
204,730.726939624625
205,730.7555399412655
206,730.7850656791686
207,730.8147836747
208,730.8439587275789
209,730.8718780400105
210,730.8978742860562
211,730.9213462262479
212,730.9417759232348
213,730.9587417754406
214,730.9719268181756
215,730.9811220476081
216,730.9862248267056
217,730.9872326522772
218,730.9842327153272
219,730.9773878728572
220,730.9669199215623
221,730.9530913538472
222,730.9361869476376
223,730.916496500583
224,730.894299780649
225,730.8698544180554
226,730.8433870952803
227,730.8150880573385
228,730.7851087127027
229,730.7535619733545
230,730.7205249895093
231,730.6860440042818
232,730.6501411088301
233,730.6128226822318
234,730.5740892574142
235,730.5339464907556
236,730.4924168354037
237,730.4495514002188
238,730.4054413223303
239,730.3602278646997
240,730.3141104302906
241,730.2673517471073
242,730.2202795952131
243,730.1732846239577
244,730.1268140481454
245,730.0813612988419
246,730.0374520237891
247,729.9956271559469
248,729.9564240410897
249,729.9203567828542
250,729.8878969803604
251,729.8594558777448
252,729.8353686834149
253,729.8158815879053
254,729.8011418862176
255,729.7911915335908
256,729.7859643422767
257,729.7852868564919
258,729.7888827785824
259,729.7963806844142
260,729.807324635805
261,729.8211871551187
262,729.8373839008543
263,729.8552893365437
264,729.8742527573801
265,729.8936141907475
266,729.9127198397589
267,729.9309368684068
268,729.9476674519186
269,729.962362102586
270,729.9745322547941
271,729.9837619465055
272,729.9897182379423
273,729.9921598232593
274,729.9909431622939
275,729.9860254570219
276,729.9774639793421
277,729.9654116031429
278,729.9501088126809
279,729.9318728430192
280,729.9110848898988
281,729.888176501627
282,729.8636163308487
283,729.8378983201054
284,729.811532071079
285,729.785035655019
286,729.7589306019322
287,729.7337383962104
288,729.7099775652467
289,729.6881603608729
290,729.6687880846453
291,729.6523443146135
292,729.6392856552598
293,729.6300300798945
294,729.6249433323409
295,729.6243241010603
296,729.6283887873382
297,729.6372567588315
298,729.6509370678168
299,729.6693176733454
300,729.6921581730795
301,729.7190869210398
302,729.74960320308
303,729.7830848498303
304,729.8188012668104
305,729.8559314001549
306,729.8935857724799
307,729.9308315501364
308,729.9667196168634
309,730.0003126575727
310,730.030713197606
311,730.0570904948798
312,730.0787052690748
313,730.0949314316559
314,730.1052741390198
315,730.1093836161998
316,730.1070643537522
317,730.0982794877617
318,730.0831503842495
319,730.0619516010069
320,730.0351014879278
321,730.0031487735301
322,729.9667556106001
323,729.9266776940351
324,729.8837422017665
325,729.8388244565542
326,729.7928243241107
327,729.7466433556464
328,729.7011634961104
329,729.6572278518644
330,729.6156236466578
331,729.5770672222119
332,729.5421908576641
333,729.5115312915733
334,729.4855200406561
335,729.4644758069986
336,729.4485993712303
337,729.4379713683425
338,729.4325532694802
339,729.432191779149
340,729.4366267165356
341,729.4455022932568
342,729.4583815284212
343,729.4747633469783
344,729.4941017083205
345,729.5158259509369
346,729.539361430553
347,729.564149469783
348,729.5896656466099
349,729.6154355439905
350,729.6410472420757
351,729.6661600497998
352,729.6905092806007
353,729.7139072619069
354,729.7362410968266
355,729.7574678472098
356,729.7776078195709
357,729.7967366428005
358,729.8149768628398
359,729.8324897465386
360,729.8494678064923
361,729.8661282510385
362,729.8827071966775
363,729.8994541681814
364,729.9166263152057
365,729.9344819493464
366,729.9532733086477
367,729.9732387070133
368,729.9945943651877
369,730.0175262527857
370,730.0421822133285
371,730.0686645835734
372,730.0970235622045
373,730.1272517210468
374,730.1592801835972
375,730.1929770527136
376,730.2281486241777
377,730.264543750335
378,730.301861434326
379,730.3397614296221
380,730.3778773793077
381,730.4158318514529
382,730.4532524555437
383,730.4897880628952
384,730.5251240667146
385,730.5589956481457
386,730.5911981653777
387,730.6215940578655
388,730.650116046474
389,730.6767668365077
390,730.7016158692367
391,730.7247938177686
392,730.7464854612349
393,730.7669213614344
394,730.7863685262489
395,730.8051200833324
396,730.8234839683491
397,730.8417707796923
398,730.8602812481115
399,730.879294089892
400,730.8990551251156
401,730.919768315198
402,730.9415889736074
403,730.9646191364361
404,730.9889050257348
405,731.0144365279042
406,731.0411485351902
407,731.068923938234
408,731.0975980801253
409,731.126964539238
410,731.1567821500112
411,731.1867832075567
412,731.2166828164083
413,731.2461892760288
414,731.2750152478386
415,731.3028893048696
416,731.3295673749285
417,731.3548435132159
418,731.3785593578656
419,731.4006116072086
420,731.420957008863
421,731.4396146549352
422,731.4566656967144
423,731.4722507893913
424,731.4865656355726
425,731.4998550081347
426,731.5124056772485
427,731.5245387073535
428,731.5366015311141
429,731.5489600426743
430,731.5619907947334
431,731.576073329076
432,731.5915826974315
433,731.6088822531658
434,731.6283167647682
435,731.650205844919
436,731.6748376669917
437,731.7024629759841
438,731.7332894359782
439,731.7674763247132
440,731.8051295086746
441,731.8462965985132
442,731.8909622436569
443,731.9390436347813
444,731.9903863576575
445,732.0447607430667
446,732.1018588515809
447,732.1612923171493
448,732.2225914334533
449,732.2852059858593
450,732.3485083547099
451,732.4117993855101
452,732.4743174680282
453,732.5352511544571
454,732.5937554323416
455,732.648971466584
456,732.7000493107132
457,732.7461728225292
458,732.786585808136
459,732.8206182264378
460,732.847711087867
461,732.8674385288639
462,732.8795255633274
463,732.8838602713347
464,732.8804996122842
465,732.8696685314712
466,732.851752511746
467,732.8272841702349
468,732.796924845902
469,732.7614423099102
470,732.7216857813471
471,732.6785594338758
472,732.6329955702536
473,732.5859285539225
474,732.5382703792524
475,732.4908885372917
476,732.4445867254717
477,732.4000889458614
478,732.3580275134718
479,732.3189353715892
480,732.2832428824614
481,732.251278962509
482,732.2232761277883
483,732.1993787793116
484,732.1796538915612
485,732.1641031256056
486,732.1526753017768
487,732.1452782481196
488,732.1417893061855
489,732.1420640669143
490,732.1459430672033
491,732.15325621541
492,732.1638247661477
493,732.1774608252426
494,732.1939645989958
495,732.2131197934423
496,732.2346876642354
497,732.2584002771304
498,732.2839536335212
499,732.3110014332427
500,732.3391503378211
501,732.3679576173466
502,732.3969319559822
503,732.4255379238691
504,732.4532042630531
505,732.4793357966187
506,732.5033284949435
507,732.5245869796499
508,732.5425435024474
509,732.5566772745619
510,732.5665330125381
511,732.5717376779132
512,732.5720145252459
513,732.5671936941005
514,732.5572187376855
515,732.5421487165254
516,732.5221557594682
517,732.4975182466062
518,732.4686099790363
519,732.435885861877
520,732.3998647524588
521,732.3611102729665
522,732.3202105759747
523,732.2777581874966
524,732.2343310357875
525,732.1904756425154
526,732.1466933050992
527,732.1034299358762
528,732.0610699798215
529,732.0199345128292
530,731.9802833035337
531,731.9423203570582
532,731.9062022517085
533,731.8720484179958
534,731.83995239002
535,731.8099929869545
536,731.7822443932436
537,731.756784269461
538,731.7336993427792
539,731.7130882537758
540,731.6950616146383
541,731.6797392702392
542,731.6672448156039
543,731.6576976495311
544,731.6512031733477
545,731.6478419637243
546,731.647658742024
547,731.6506518304514
548,731.6567636891356
549,731.665873109562
550,731.6777896250283
551,731.6922506234365
552,731.7089215337003
553,731.7273993465952
554,731.7472195804924
555,731.7678665371606
556,731.7887863602872
557,731.8094021753276
558,731.8291305559316
559,731.847398653075
560,731.8636613752241
561,731.8774179602756
562,731.8882272369733
563,731.8957209471105
564,731.8996146426755
565,731.8997157681922
566,731.8959286054131
567,731.8882559192972
568,731.8767974340741
569,731.8617455715731
570,731.8433790560516
571,731.8220549594266
572,731.798199554035
573,731.7722980739613
574,731.7448833243138
575,731.7165231156914
576,731.6878066836862
577,731.6593304501569
578,731.6316836142579
579,731.60543411088
580,731.581115445694
581,731.5592148353478
582,731.540162997073
583,731.5243258650469
584,731.5119984342805
585,731.503400825513
586,731.4986765545704
587,731.4978929262926
588,731.5010434719266
589,731.5080523556652
590,731.5187806006431
591,731.5330338102175
592,731.5505708766243
593,731.5711130548455
594,731.5943527333409
595,731.6199612603042
596,731.6475953379878
597,731.6769017861578
598,731.7075208207625
599,731.7390883161279
600,731.771237769411
601,731.8036027851757
602,731.8358207651698
603,731.8675381630063
604,731.8984172948336
605,731.9281443983094
606,731.9564384279748
607,731.9830599635518
608,732.0078195696224
609,732.0305849322114
610,732.0512861063579
611,732.0699183136595
612,732.0865419672298
613,732.1012798871708
614,732.1143118805622
615,732.1258669681032
616,732.1362136255042
617,732.1456485502083
618,732.1544846197963
619,732.1630387538903
620,732.1716202986495
621,732.1805204381025
622,732.1900030946804
623,732.2002977469502
624,732.2115944199426
625,732.2240407667596
626,732.2377408189549
627,732.2527548254087
628,732.2690996786265
629,732.2867496800125
630,732.3056377090757
631,732.3256570776459
632,732.3466643338511
633,732.3684830632831
634,732.3909085082078
635,732.4137127484427
636,732.4366502540679
637,732.4594637241273
638,732.4818901821349
639,732.503667281145
640,732.5245396808857
641,732.5442652296825
642,732.5626205935956
643,732.5794060014176
644,732.5944489218498
645,732.6076067023528
646,732.6187684025709
647,732.6278561527301
648,732.6348262819524
649,732.6396702244016
650,732.6424149547134
651,732.6431225581714
652,732.6418885726109
653,732.6388389468858
654,732.6341257670521
655,732.6279221676201
656,732.6204169514497
657,732.6118093705918
658,732.6023043508831
659,732.5921082698225
660,732.5814252696151
661,732.5704540093026
662,732.5593847223179
663,732.5483964545741
664,732.5376544205268
665,732.527307501554
666,732.5174859730889
667,732.508299564141
668,732.4998359288077
669,732.4921595443782
670,732.4853109775415
671,732.4793064632707
672,732.4741378601076
673,732.4697732002195
674,732.4661581280102
675,732.4632184867381
676,732.4608642081154
677,732.4589945270071
678,732.4575044140879
679,732.4562920067789
680,732.4552666960622
681,732.4543573760334
682,732.4535202461562
683,732.4527455646623
684,732.4520628825298
685,732.4515444399267
686,732.4513065140686
687,732.4515086027268
688,732.4523504621676
689,732.4540671691964
690,732.4569224559303
691,732.4612005107681
692,732.467196315035
693,732.4752045635548
694,732.4855073926157
695,732.4983614017546
696,732.5139846246749
697,732.5325441297015
698,732.5541448987424
699,732.5788206150253
700,732.6065269555988
701,732.6371378778074
702,732.6704452073876
703,732.7061616288665
704,732.7439269924414
705,732.7833176893164
706,732.8238586888588
707,732.8650376739373
708,732.9063205767018
709,732.947167731865
710,732.9870498499681
711,733.0254630650109
712,733.0619423943294
713,733.0960730466184
714,733.1274991485084
715,733.1559296352983
716,733.181141228815
717,733.202978591133
718,733.2213519324906
719,733.236232558191
720,733.247646968162
721,733.2556700985274
722,733.260418153384
723,733.2620413171298
724,733.2607165407474
725,733.2566405845914
726,733.2500235448555
727,733.2410831181829
728,733.2300398088913
729,733.2171131587246
730,733.2025189233278
731,733.1864669730555
732,733.1691595977078
733,733.1507898769332
734,733.1315398463692
735,733.1115783590684
736,733.0910588191722
737,733.0701172383023
738,733.0488711342737
739,733.0274195814475
740,733.0058443684061
741,732.984211923854
742,732.9625755611836
743,732.9409776778604
744,732.9194517381729
745,732.8980240487006
746,732.8767154503026
747,732.8555431026946
748,732.8345225312044
749,732.813670041033
750,732.793005493853
751,732.7725552865024
752,732.7523551811878
753,732.7324524765359
754,732.7129069728038
755,732.6937903118834
756,732.6751835340322
757,732.6571730200939
758,732.6398452579189
759,732.6232809498913
760,732.6075488708697
761,732.5926997671331
762,732.5787605992911
763,732.5657295305979
764,732.5535721008287
765,732.5422189424928
766,732.5315652702935
767,732.5214723029142
768,732.5117707339439
769,732.5022662547166
770,732.4927469106287
771,732.4829918058988
772,732.4727804586948
773,732.461902043877
774,732.4501638820573
775,732.4373987648385
776,732.4234709047952
777,732.408280396785
778,732.3917661377565
779,732.3739072556789
780,732.3547232054603
781,732.3342726902504
782,732.3126514495082
783,732.2899888358494
784,732.2664430690272
785,732.2421950993985
786,732.2174411281871
787,732.1923840408022
788,732.1672242622064
789,732.1421507151434
790,732.1173325803991
791,732.0929124346233
792,732.069001107409
793,732.0456743057242
794,732.0229707935699
795,732.0008917891198
796,731.9794013026337
797,731.9584273511639
798,731.9378642344395
799,731.9175762041465
800,731.8974028222755
801,731.8771661039631
802,731.8566793054925
803,731.8357570775747
804,731.8142266488885
805,731.7919396323967
806,731.768783915712
807,731.7446949450541
808,731.7196655872942
809,731.693753715353
810,731.6670867776052
811,731.6398628729735
812,731.6123481363319
813,731.5848704200532
814,731.5578093489551
815,731.5315829461035
816,731.5066312500448
817,731.4833976348333
818,731.462308827041
819,731.4437548273532
820,731.4280700274492
821,731.4155167148423
822,731.406271889714
823,731.4004179647455
824,731.3979375939228
825,731.3987126439961
826,731.4025271599355
827,731.4090740145332
828,731.4179647560885
829,731.4287420602808
830,731.4408942357518
831,731.4538713505757
832,731.4671025359319
833,731.4800138060045
834,731.4920454738865
835,731.5026681660573
836,731.511396613977
837,731.5178007286601
838,731.5215137827283
839,731.5222377373766
840,731.5197458578522
841,731.5138828006462
842,731.5045623670428
843,731.491763148425
844,731.475522394182
845,731.4559286093432
846,731.4331135190915
847,731.4072439887703
848,731.3785142834074
849,731.3471388525887
850,731.313345744797
851,731.2773707572829
852,731.2394524372785
853,731.1998280501017
854,731.1587306298937
855,731.116387194529
856,731.0730180748066
857,731.0288370776346
858,730.9840519705485
859,730.9388646754655
860,730.8934706726319
861,730.8480574061896
862,730.8028018179701
863,730.7578673966281
864,730.7134012953868
865,730.6695321541044
866,730.626369213327
867,730.584003103079
868,730.5425084223622
869,730.5019480207139
870,730.4623787476013
871,730.4238582695726
872,730.3864523820844
873,730.3502421553101
874,730.3153302789499
875,730.2818460602247
876,730.2499486361066
877,730.2198280652971
878,730.1917040734207
879,730.165822368519
880,730.1424486284154
881,730.1218604372763
882,730.104337578986
883,730.0901512050082
884,730.0795525071165
885,730.0727615863951
886,730.0699571419058
887,730.0712674312517
888,730.076762809058
889,730.0864501080322
890,730.1002691369181
891,730.1180915398797
892,730.1397221802494
893,730.1649031018976
894,730.1933199539058
895,730.2246105084012
896,730.258374631949
897,730.2941849215699
898,730.3315972484606
899,730.3701606218801
900,730.4094260064322
901,730.4489539317319
902,730.4883209012075
903,730.5271247321052
904,730.56498902278
905,730.6015669393954
906,730.6365444841203
907,730.6696434045671
908,730.7006239373823
909,730.7292876056204
910,730.7554802546831
911,730.7790953940278
912,730.8000777497432
913,730.8184267999642
914,730.8342000150241
915,730.8475155418913
916,730.8585540836189
