frame_number,force
0,732.6318299037879
1,732.6122242603179
2,732.5948939032731
3,732.5798550237802
4,732.5671058251096
5,732.5566258769175
6,732.5483755904015
7,732.5422958350073
8,732.5383077217801
9,732.5363125828977
10,732.5361921831868
11,732.5378092063856
12,732.5410080612244
13,732.5456160452294
14,732.5514448882739
15,732.5582926779963
16,732.565946148514
17,732.5741832931824
18,732.5827762429351
19,732.5914943369014
20,732.6001073042888
21,732.6083884769561
22,732.6161179590954
23,732.6230856907507
24,732.6290943528536
25,732.6339620710467
26,732.6375248816327
27,732.6396389248767
28,732.6401823312357
29,732.6390567688532
30,732.6361886264291
31,732.6315298106073
32,732.625058139036
33,732.6167773127524
34,732.6067164599414
35,732.594929258267
36,732.5814926601531
37,732.5665052593422
38,732.5500853468883
39,732.5323687120475
40,732.5135062468459
41,732.4936614087422
42,732.4730075849355
43,732.4517253916372
44,732.4299999379897
45,732.4080180870576
46,732.3859657510396
47,732.3640252602939
48,732.3423728441628
49,732.321176256194
50,732.3005925689693
51,732.2807661575436
52,732.2618268876964
53,732.2438885244436
54,732.2270473750293
55,732.2113811791188
56,732.1969482587556
57,732.1837869409879
58,732.1719152640106
59,732.1613309719158
60,732.1520117957114
61,732.143916011734
62,732.1369832630841
63,732.1311356243605
64,732.1262788855836
65,732.1223040286951
66,732.1190888686968
67,732.1164998312365
68,732.1143938411252
69,732.1126203032031
70,732.1110231662684
71,732.1094430672482
72,732.1077195509888
73,732.105693350772
74,732.1032087022347
75,732.1001156554983
76,732.0962723482002
77,732.0915472027191
78,732.0858210114438
79,732.0789888738705
80,732.0709619492873
81,732.0616689889615
82,732.0510576103571
83,732.0390952719883
84,732.0257699052003
85,732.011090165172
86,731.9950852784742
87,731.9778044821862
88,731.9593160643295
89,731.9397060264324
90,731.9190763971937
91,731.8975432319627
92,731.8752343383774
93,731.8522867774642
94,731.8288442019078
95,731.8050541041661
96,731.7810650514755
97,731.7570239820635
98,731.7330736293189
99,731.7093501292854
100,731.6859808522964
101,731.6630824851842
102,731.6407593807432
103,731.619102187369
104,731.5981867716516
105,731.5780734472525
106,731.5588065226432
107,731.5404141761053
108,731.5229086575442
109,731.5062868052447
110,731.490530855766
111,731.4756095193287
112,731.4614792905573
113,731.448085962545
114,731.4353663094441
115,731.4232499001923
116,731.4116610043314
117,731.40052054997
118,731.38974809444
119,731.3792637701586
120,731.3689901693755
121,731.358854130521
122,731.3487883873094
123,731.3387330416684
124,731.3286368239421
125,731.3184581088485
126,731.3081656620927
127,731.2977390983297
128,731.2871690367319
129,731.2764569490414
130,731.265614708516
131,731.2546638631894
132,731.2436346670473
133,731.2325649053732
134,731.2214985486406
135,731.2104842674263
136,731.199573841306
137,731.1888204983032
138,731.1782772274463
139,731.1679951126022
140,731.1580217385585
141,731.1483997205695
142,731.1391654061941
143,731.1303477907315
144,731.1219676744771
145,731.1140370757092
146,731.1065589016143
147,731.0995268699347
148,731.0929256654674
149,731.0867313079586
150,731.0809117029365
151,731.0754273456299
152,731.0702321500161
153,731.0652743790914
154,731.06049765809
155,731.0558420593375
156,731.0512452537585
157,731.0466437252405
158,731.0419740364749
159,731.0371741209804
160,731.0321845637707
161,731.0269498285712
162,731.0214193921997
163,731.015548753667
164,731.009300295004
165,731.002643981606
166,730.9955579001335
167,730.9880286402198
168,730.9800515318663
169,730.9716307530288
170,730.962779321052
171,730.9535189785039
172,730.9438799817536
173,730.9339008014273
174,730.9236277464815
175,730.9131145251237
176,730.9024217534726
177,730.8916164148037
178,730.88077125957
179,730.8699641257004
180,730.8592771572877
181,730.848795908009
182,730.8386083270703
183,730.828803634574
184,730.8194710994173
185,730.8106987374521
186,730.8025719499162
187,730.7951721201223
188,730.7885751808659
189,730.7828501604363
190,730.7780577158674
191,730.774248668774
192,730.7714625685353
193,730.7697263162518
194,730.7690528899969
195,730.7694402176243
196,730.7708702460257
197,730.7733082526797
198,730.7767024372719
199,730.7809838227956
200,730.7860664905445
201,730.791848170372
202,730.7982112018723
203,730.8050238703312
204,730.8121421038196
205,730.819411497797
206,730.8266696143298
207,730.8337484872463
208,730.8404772548153
209,730.8466848391467
210,730.8522025950086
211,730.8568668568068
212,730.8605213189054
213,730.8630191921762
214,730.8642250909511
215,730.8640166194815
216,730.8622856421238
217,730.8589392330232
218,730.8539003098105
219,730.8471079661992
220,730.83851753279
221,730.8281004106758
222,730.8158437323845
223,730.8017499050342
224,730.7858360819367
225,730.7681335952647
226,730.7486873677544
227,730.7275553082067
228,730.704807685977
229,730.6805264758606
230,730.654804666705
231,730.62774553174
232,730.5994618624869
233,730.570075169527
234,730.5397148525782
235,730.5085173404399
236,730.4766251987055
237,730.4441861985172
238,730.4113523332351
239,730.3782787650338
240,730.3451226827992
241,730.3120420556156
242,730.2791942713114
243,730.2467346572379
244,730.2148148908092
245,730.183581319564
246,730.1531732239674
247,730.1237210695745
248,730.0953448060299
249,730.0681522762286
250,730.0422377977669
251,730.0176809695897
252,729.994545742555
253,729.9728797797771
254,729.9527141244448
255,729.9340631866758
256,729.9169250528022
257,729.901282110135
258,729.8871019702843
259,729.8743386656114
260,729.8629340853022
261,729.8528196091534
262,729.8439178898057
263,729.8361447307535
264,729.8294110098072
265,729.8236246040385
266,729.8186922790682
267,729.8145215117496
268,729.8110222217222
269,729.8081083924114
270,729.8056995624299
271,729.8037221636429
272,729.8021106755506
273,729.8008085598393
274,729.7997689359469
275,729.7989549613892
276,729.7983398919796
277,729.7979068159673
278,729.7976480783084
279,729.7975644317985
280,729.7976639675554
281,729.797960888078
282,729.7984741916197
283,729.7992263341499
284,729.8002419223898
285,729.8015464706095
286,729.8031652313988
287,729.8051220926977
288,729.8074385226313
289,729.8101325394815
290,729.8132176857091
291,729.8167019930912
292,729.8205869409065
293,729.8248664273318
294,729.8295257898034
295,729.8345409185051
296,729.8398775090219
297,729.8454905000898
298,729.8513237429441
299,729.8573099479615
300,729.8633709492434
301,729.8694183184404
302,729.8753543465112
303,729.881073395739
304,729.8864636033428
305,729.8914088946249
306,729.8957912440958
307,729.8994931135442
308,729.9023999955148
309,729.9044029913733
310,729.9054013504561
311,729.905304895159
312,729.9040362618218
313,729.9015328970096
314,729.8977487580589
315,729.892655674962
316,729.8862443406052
317,729.8785249089971
318,729.8695271941565
319,729.859300472823
320,729.8479129018242
321,729.8354505685246
322,729.8220162020211
323,729.8077275824901
324,729.7927156954544
325,729.7771226872069
326,729.761099685381
327,729.7448045503173
328,729.728399615942
329,729.7120494650738
330,729.695918768086
331,729.6801702015431
332,729.6649624592765
333,729.6504483724179
334,729.636773163125
335,729.6240728639754
336,729.612472937765
337,729.602087130096
338,729.5930165813045
339,729.5853492164626
340,729.5791594230809
341,729.574508016312
342,729.5714424810149
343,729.5699974686449
344,729.5701955155364
345,729.572047939674
346,729.575555866247
347,729.5807113279782
348,729.5874983853608
349,729.5958942152768
350,729.6058701230623
351,729.6173924425445
352,729.6304233025385
353,729.6449212560436
354,729.6608417838409
355,729.678137691818
356,729.6967594228929
357,729.7166553058773
358,729.7377717665128
359,729.7600535257295
360,729.7834438033451
361,729.8078845328124
362,729.833316577289
363,729.8596799243676
364,729.886913833542
365,729.9149569193975
366,729.9437471680715
367,729.9732218965579
368,730.0033176712359
369,730.0339702038297
370,730.0651142405718
371,730.0966834576022
372,730.1286103774919
373,730.1608263277745
374,730.1932614679679
375,730.2258449136974
376,730.2585049839771
377,730.2911695893416
378,730.3237667651103
379,730.3562253396727
380,730.3884757162973
381,730.4204507384584
382,730.4520866005498
383,730.4833237582347
384,730.5141077885501
385,730.5443901511902
386,730.57412880924
387,730.6032886801793
388,730.6318419057746
389,730.6597679490128
390,730.6870535418445
391,730.7136925146087
392,730.7396855354942
393,730.7650397791583
394,730.7897685329842
395,730.8138907423503
396,730.8374304955179
397,730.8604164554619
398,730.8828812593405
399,730.9048609206702
400,730.9263942741505
401,730.9475224924805
402,730.9682886859999
403,730.9887375834629
404,731.0089152893711
405,731.0288691123639
406,731.0486474553677
407,731.0682997550988
408,731.087876459215
409,731.1074290317646
410,731.1270099793691
411,731.1466728922691
412,731.1664724951922
413,731.1864647002781
414,731.2067066481022
415,731.2272567170147
416,731.2481744777674
417,731.2695205680112
418,731.2913564586528
419,731.3137440846606
420,731.3367453211272
421,731.3604213005954
422,731.3848315835709
423,731.4100332045183
424,731.4360796196779
425,731.4630195848833
426,731.4908959947563
427,731.5197447175369
428,731.5495934579753
429,731.580460673848
430,731.6123545648559
431,731.6452721502354
432,731.679198452418
433,731.7141058045958
434,731.7499532978587
435,731.7866863797971
436,731.8242366139925
437,731.8625216096349
438,731.9014451300412
439,731.9408973851297
440,731.9807555068913
441,732.0208842026905
442,732.061136581076
443,732.1013551468562
444,732.1413729626345
445,732.1810149711316
446,732.2200994695119
447,732.2584397280698
448,732.2958457503689
449,732.3321261750373
450,732.3670903184961
451,732.4005503549204
452,732.432323626091
453,732.4622350679688
454,732.4901197308011
455,732.5158253561327
456,732.5392149605711
457,732.5601693653905
458,732.5785896032417
459,732.5943991267806
460,732.6075457377441
461,732.6180031512278
462,732.6257721142987
463,732.6308810136051
464,732.6333859300091
465,732.6333701242824
466,732.6309429640124
467,732.6262383264241
468,732.6194125316197
469,732.6106418731387
470,732.6001198187219
471,732.5880539576751
472,732.5746627738129
473,732.5601723215162
474,732.5448128750796
475,732.5288156128601
476,732.5124093938231
477,732.4958176843458
478,732.4792556919972
479,732.4629277567501
480,732.4470250385921
481,732.4317235253548
482,732.4171823688082
483,732.4035425439557
484,732.390925816191
485,732.3794339915189
486,732.3691484178675
487,732.3601297057706
488,732.3524176451666
489,732.3460313046268
490,732.3409693028321
491,732.3372102401968
492,732.3347132773448
493,732.3334188509768
494,732.3332495249375
495,732.3341109798715
496,732.3358931462691
497,732.3384714857581
498,732.3417084274319
499,732.345454969297
500,732.3495524573409
501,732.3538345542809
502,732.3581294041807
503,732.3622619864404
504,732.3660566361749
505,732.3693396928994
506,732.3719422276364
507,732.3737027881358
508,732.3744700923522
509,732.3741055948556
510,732.372485852611
511,732.3695046241666
512,732.365074645314
513,732.3591290328478
514,732.3516222784191
515,732.3425308085567
516,732.3318531028117
517,732.319609376904
518,732.3058408507379
519,732.2906086318125
520,732.2739922534472
521,732.2560879169043
522,732.2370064978053
523,732.2168713858522
524,732.1958162282526
525,732.1739826430554
526,732.1515179633188
527,732.1285730666807
528,732.1053003345081
529,732.08185177061
530,732.058377294976
531,732.0350232156052
532,732.0119308713607
533,731.9892354304316
534,731.9670648222634
535,731.9455387759942
536,731.924767937141
537,731.904853039712
538,731.885884123138
539,731.8679397959785
540,731.8510865540301
541,731.8353781596161
542,731.820855089065
543,731.8075440630279
544,731.79545768656
545,731.7845942332312
546,731.7749376046426
547,731.7664574882111
548,731.7591097292967
549,731.7528369305929
550,731.7475692889016
551,731.7432256740476
552,731.739714947812
553,731.7369375142989
554,731.7347870851758
555,731.7331526303565
556,731.7319204691253
557,731.7309764459401
558,731.7302081338612
559,731.7295070132573
560,731.7287705767707
561,731.7279043106842
562,731.7268235025475
563,731.7254548302375
564,731.7237376963569
565,731.7216252787422
566,731.7190852735843
567,731.7161003178503
568,731.7126680937744
569,731.7088011349134
570,731.7045263640247
571,731.6998843945253
572,731.6949286206773
573,731.6897241121452
574,731.684346323575
575,731.6788796336072
576,731.6734157377439
577,731.6680519297993
578,731.6628893136258
579,731.6580309897031
580,731.6535802601264
581,731.6496388917452
582,731.646305472864
583,731.6436738950181
584,731.6418319866573
585,731.6408603192059
586,731.6408311992119
587,731.6418078554343
588,731.6438438274951
589,731.6469825607335
590,731.6512572061064
591,731.6566906136627
592,731.6632954974061
593,731.6710747418508
594,731.6800218162626
595,731.6901212617278
596,731.7013492212661
597,731.7136739946051
598,731.7270566134158
599,731.741451446237
600,731.7568068527476
601,731.7730659109209
602,731.7901672342383
603,731.8080458813521
604,731.8266343441184
605,731.8458635868872
606,731.8656641014386
607,731.8859669378924
608,731.9067046713849
609,731.9278122650949
610,731.9492277920957
611,731.97089298489
612,731.9927535939715
613,732.0147595514164
614,732.0368649467675
615,732.0590278290305
616,732.081209854058
617,732.1033758045055
618,732.1254930178956
619,732.1475307615078
620,732.169459589534
621,732.1912507134464
622,732.2128754151219
623,732.2343045309722
624,732.2555080275563
625,732.276454673722
626,732.2971117984882
627,732.3174451161736
628,732.3374186031385
629,732.3569944210839
630,732.3761328950683
631,732.394792563122
632,732.4129303124566
633,732.4305016062534
634,732.4474607935683
635,732.463761490238
636,732.4793570205787
637,732.494200913343
638,732.5082474470175
639,732.5214522378906
640,732.5337728595064
641,732.545169475656
642,732.5556054645197
643,732.5650480124547
644,732.5734686624594
645,732.5808438119744
646,732.587155164015
647,732.5923901402759
648,732.5965422613225
649,732.5996114886836
650,732.6016045125627
651,732.6025349628567
652,732.602423523236
653,732.6012979381267
654,732.5991929169912
655,732.5961499530497
656,732.5922170790533
657,732.5874485801238
658,732.5819046765782
659,732.5756511823417
660,732.5687591392447
661,732.5613044243819
662,732.5533673263583
663,732.5450320869217
664,732.5363864075352
665,732.5275209245368
666,732.5185286594603
667,732.5095044519401
668,732.5005443815603
669,732.4917451820754
670,732.4832036481082
671,732.4750160345609
672,732.4672774543739
673,732.4600812872897
674,732.4535186157407
675,732.4476777025045
676,732.4426435201569
677,732.4384973364994
678,732.4353163544985
679,732.4331734004331
680,732.4321366486915
681,732.4322693651682
682,732.4336296462802
683,732.4362701313852
684,732.4402376726978
685,732.4455729540656
686,732.452310055137
687,732.4604759620289
688,732.4700900318854
689,732.4811634256353
690,732.4936985268001
691,732.5076883615419
692,732.5231160292029
693,732.539954151167
694,732.5581643531781
695,732.57769680738
696,732.5984898670479
697,732.6204698270336
698,732.6435508402974
699,732.6676350187258
700,732.6926127434677
701,732.7183632037121
702,732.7447551731148
703,732.7716480222231
704,732.7988929553586
705,732.8263344517204
706,732.8538118820438
707,732.8811612639508
708,732.9082171121306
709,732.9348143349193
710,732.9607901276848
711,732.9859858155055
712,733.0102486013859
713,733.0334331808963
714,733.055403190658
715,733.0760324666898
716,733.0952060975283
717,733.1128212655947
718,733.1287878800698
719,733.143029015233
720,733.1554811754947
721,733.1660944087611
722,733.1748322849202
723,733.1816717506539
724,733.1866028689295
725,733.1896284525418
726,733.1907636045386
727,733.190035180955
728,733.1874811902636
729,733.1831501394399
730,733.1771003304891
731,733.1693991055059
732,733.160122034621
733,733.1493520409592
734,733.1371784602698
735,733.1236960408642
736,733.1090039022281
737,733.0932044831039
738,733.0764025128825
739,733.058704030422
740,733.0402154580901
741,733.021042725088
742,733.0012904286489
743,732.9810610250659
744,732.9604540506465
745,732.9395653802638
746,732.9184865357067
747,732.8973040577268
748,732.8760989546906
749,732.8549462371274
750,732.8339145417506
751,732.8130658407931
752,732.7924552231622
753,732.7721307259646
754,732.7521331926213
755,732.7324961388684
756,732.7132456190996
757,732.6944000996322
758,732.6759703570518
759,732.6579594226673
760,732.6403625885878
761,732.6231674849251
762,732.6063542375721
763,732.5898957198849
764,732.5737579128024
765,732.5579003836413
766,732.542276887645
767,732.5268360927048
768,732.5115224254175
769,732.4962770312216
770,732.4810388311495
771,732.4657456455699
772,732.4503353456403
773,732.4347469903691
774,732.4189219128823
775,732.4028047302519
776,732.3863442606267
777,732.3694943362956
778,732.3522145045836
779,732.3344706137437
780,732.3162352864886
781,732.2974882844717
782,732.2782167623941
783,732.2584154056551
784,732.2380864445911
785,732.2172395409536
786,732.1958915480672
787,732.1740661561076
788,732.1517934458788
789,732.1291093826705
790,732.106055282992
791,732.0826772816814
792,732.0590258165763
793,732.0351551348534
794,732.0111228135639
795,731.9869892813817
796,731.9628173315357
797,731.9386716257258
798,731.914618200294
799,731.8907239928664
800,731.8670564063174
801,731.8436829181775
802,731.8206707333652
803,731.7980864722147
804,731.7759958837805
805,731.7544635716803
806,731.7335527143888
807,731.7133247556469
808,731.6938390356124
809,731.6751523322182
810,731.6573182880031
811,731.6403867100204
812,731.6244027436579
813,731.6094059297089
814,731.5954291583164
815,731.5824975388302
816,731.5706272145068
817,731.5598241637258
818,731.5500830415716
819,731.5413861244276
820,731.5337024229208
821,731.5269870228215
822,731.5211806998575
823,731.5162098367714
824,731.5119866544514
825,731.5084097565804
826,731.5053649779712
827,731.502726517521
828,731.5003583268265
829,731.4981157187885
830,731.4958471607818
831,731.4933962207365
832,731.4906036326071
833,731.4873094366951
834,731.4833551376297
835,731.47858581864
836,731.472852158335
837,731.4660123109038
838,731.4579336252347
839,731.4484941884858
840,731.4375841850974
841,731.4251070648836
842,731.4109805154222
843,731.3951372365829
844,731.3775255211827
845,731.3581096552363
846,731.3368701587204
847,731.3138038872016
848,731.2889240070481
849,731.262259849613
850,731.2338566476966
851,731.2037751592619
852,731.1720911853324
853,731.1388949904283
854,731.104290635253
855,731.0683952310447
856,731.0313381201975
857,730.9932599783556
858,730.9543118235858
859,730.9146539145482
860,730.8744545254249
861,730.8338885991378
862,730.79313629609
863,730.7523814678857
864,730.7118100933484
865,730.6716087181334
866,730.6319629372281
867,730.5930559504469
868,730.5550672089707
869,730.518171161672
870,730.4825361032779
871,730.4483231187553
872,730.4156851102409
873,730.384765888592
874,730.355699312444
875,730.32860846128
876,730.3036048333494
877,730.2807875634077
878,730.260242659446
879,730.2420422632744
880,730.226243947265
881,730.2128900664778
882,730.2020071901218
883,730.1936056399945
884,730.1876791672266
885,730.184204799875
886,730.1831428891766
887,730.1844373727696
888,730.1880162647425
889,730.1937923786185
890,730.2016642879205
891,730.2115175257095
892,730.223226018928
893,730.2366537466099
894,730.2516566017298
895,730.2680844233096
896,730.2857831517956
897,730.3045970527552
898,730.3243709544201
899,730.3449524515614
900,730.366194037726
901,730.3879551370276
902,730.410104014411
903,730.4325195494208
904,730.4550928621402
905,730.477728780816
906,730.5003471406517
907,730.5228839047331
908,730.5452921014158
909,730.5675425757933
910,730.5896245535881
911,730.6115460129491
912,730.6333338549056
913,730.6550338599244
914,730.6767104185348
915,730.698446027603
916,730.7203405471512
917,730.7425102139265
918,730.7650864098673
