frame_number,force
0,724.0875900074839
1,724.0261267187133
2,723.96490870469
3,723.9041794135262
4,723.844178669092
5,723.7851409294401
6,723.7272936248783
7,723.6708555958272
8,723.6160356479838
9,723.5630312402001
10,723.5120273179546
11,723.463195301959
12,723.4166922375689
13,723.3726601066744
14,723.3312253002595
15,723.2924982473523
16,723.2565731944809
17,723.2235281282323
18,723.1934248315496
19,723.1663090621701
20,723.1422108398708
21,723.121144828661
22,723.1031108008282
23,723.0880941713713
24,723.0760665933301
25,723.0669866063574
26,723.0608003321526
27,723.057442211122
28,723.0568357753867
29,723.0588944542021
30,723.0635224083594
31,723.0706153895565
32,723.080061619176
33,723.0917426790726
34,723.1055344054782
35,723.1213077765012
36,723.1389297842381
37,723.1582642841186
38,723.1791728161361
39,723.2015153943283
40,723.2251512617531
41,723.2499396084398
42,723.2757402501674
43,723.3024142671558
44,723.3298246038064
45,723.357836632658
46,723.3863186868131
47,723.4151425648782
48,723.4441840114638
49,723.4733231753696
50,723.5024450471366
51,723.5314398773371
52,723.5602035762764
53,723.5886380945622
54,723.6166517826182
55,723.6441597261256
56,723.6710840538187
57,723.6973542138093
58,723.7229072143608
59,723.747687824902
60,723.7716487332247
61,723.7947506552173
62,723.8169623942103
63,723.8382608483164
64,723.8586309656051
65,723.8780656477495
66,723.8965656028922
67,723.9141391486706
68,723.9308019669638
69,723.9465768125133
70,723.9614931774821
71,723.975586913359
72,723.9888998111562
73,724.0014791412704
74,724.01337715562
75,724.024650556253
76,724.035359936229
77,724.0455692003148
78,724.0553449748793
79,724.0647560176477
80,724.0738726377338
81,724.0827661346117
82,724.0915082624607
83,724.1001707245133
84,724.1088247008018
85,724.1175404118206
86,724.1263867198301
87,724.135430768477
88,724.1447376600104
89,724.1543701679437
90,724.1643884819282
91,724.1748499810967
92,724.1858090324665
93,724.1973168120575
94,724.2094211476453
95,724.2221663830961
96,724.23559326504
97,724.2497388531218
98,724.2646364544928
99,724.2803155812127
100,724.2968019264686
101,724.3141173532978
102,724.3322798887268
103,724.3513037171007
104,724.3711991684847
105,724.391972700632
106,724.4136268754104
107,724.4361603324943
108,724.45956776459
109,724.4838398994664
110,724.5089634944752
111,724.5349213489848
112,724.5616923392296
113,724.5892514788205
114,724.6175700071511
115,724.6466155076744
116,724.6763520585629
117,724.706740419093
118,724.7377382551948
119,724.7693004061591
120,724.8013791918049
121,724.8339247567365
122,724.8668854463917
123,724.9002082082123
124,724.9338390100663
125,724.9677232670152
126,725.0018062664399
127,725.0360335800634
128,725.0703514498597
129,725.1047071344748
130,725.139049204546
131,725.1733277786802
132,725.2074946954169
133,725.2415036192485
134,725.2753100806119
135,725.3088714510715
136,725.3421468560495
137,725.375097028544
138,725.4076841081292
139,725.4398713901984
140,725.4716230313267
141,725.5029037179097
142,725.5336783065497
143,725.5639114459221
144,725.5935671913835
145,725.622608625152
146,725.6509974955877
147,725.6786938883104
148,725.7056559400122
149,725.7318396037437
150,725.757198472589
151,725.7816836668501
152,725.8052437878649
153,725.8278249395448
154,725.8493708170142
155,725.8698228606372
156,725.8891204730616
157,725.9072012964307
158,725.9240015462648
159,725.9394563972758
160,725.9535004145682
161,725.9660680221175
162,725.9770940001107
163,725.9865140037417
164,725.9942650973957
165,726.0002862988346
166,726.0045191278151
167,726.0069081530952
168,726.0074015315708
169,726.005951533227
170,726.0025150452844
171,725.9970540484634
172,725.9895360584104
173,725.9799345267008
174,725.9682291980675
175,725.9544064223887
176,725.9384594204431
177,725.9203885015407
178,725.9002012297368
179,725.8779125343426
180,725.853544760404
181,725.8271276559365
182,725.7986982947582
183,725.7683009359516
184,725.735986822493
185,725.7018139224825
186,725.6658466173933
187,725.6281553431312
188,725.5888161908268
189,725.5479104744539
190,725.5055242716307
191,725.461747943129
192,725.4166756363204
193,725.3704047777944
194,725.3230355602344
195,725.2746704283335
196,725.2254135682541
197,725.1753704048346
198,725.1246471104399
199,725.0733501291514
200,725.0215857197688
201,724.9694595205891
202,724.9170761380199
203,724.8645387599444
204,724.8119487936464
205,724.759405527355
206,724.7070058142115
207,724.6548437773596
208,724.6030105345252
209,724.551593939819
210,724.5006783399208
211,724.4503443416186
212,724.4006685878442
213,724.3517235395706
214,724.3035772611539
215,724.2562932073989
216,724.2099300123056
217,724.1645412818513
218,724.1201753951614
219,724.0768753191339
220,724.034678441336
221,723.9936164257853
222,723.953715096374
223,723.9149943525991
224,723.8774681213928
225,723.841144347321
226,723.8060250216605
227,723.7721062494436
228,723.7393783529451
229,723.7078260102935
230,723.6774284283057
231,723.6481595486127
232,723.6199882856885
233,723.5928787950512
234,723.5667907697732
235,723.5416797630288
236,723.517497533592
237,723.4941924104111
238,723.4717096721773
239,723.4499919381684
240,723.4289795673535
241,723.4086110635985
242,723.388823485816
243,723.3695528629696
244,723.3507346147128
245,723.3323039787845
246,723.3141964458656
247,723.2963482013436
248,723.2786965715127
249,723.2611804697656
250,723.2437408369395
251,723.2263210691929
252,723.2088674261956
253,723.1913294120219
254,723.1736601214953
255,723.1558165461378
256,723.1377598357157
257,723.1194555128451
258,723.100873638916
259,723.0819889298959
260,723.0627808204999
261,723.0432334751139
262,723.0233357444422
263,723.0030810685122
264,722.9824673288887
265,722.9614966548218
266,722.9401751890899
267,722.9185128195895
268,722.8965228827651
269,722.8742218453806
270,722.8516289720471
271,722.828765986745
272,722.8056567367217
273,722.7823268666017
274,722.7588035094353
275,722.7351149998425
276,722.7112906127578
277,722.6873603301456
278,722.6633546375318
279,722.6393043518905
280,722.61524048172
281,722.5911941186671
282,722.5671963579077
283,722.5432782423873
284,722.51947072475
285,722.4958046406852
286,722.4723106882474
287,722.4490194091157
288,722.4259611694144
289,722.4031661393323
290,722.3806642719835
291,722.3584852825188
292,722.3366586283588
293,722.3152134907921
294,722.2941787573585
295,722.2735830037163
296,722.2534544732575
297,722.2338210526109
298,722.214710241247
299,722.1961491135928
300,722.1781642722666
301,722.1607817909883
302,722.1440271454104
303,722.1279251300759
304,722.1124997604521
305,722.0977741603323
306,722.0837704363151
307,722.0705095423458
308,722.0580111384342
309,722.0462934484592
310,722.0353731222505
311,722.0252651071471
312,722.0159825343009
313,722.0075366250283
314,721.9999366222015
315,721.9931897509534
316,721.9873012120208
317,721.9822742097329
318,721.9781100146893
319,721.9748080588375
320,721.972366058738
321,721.97078016187
322,721.9700451109095
323,721.9701544219441
324,721.9711005743766
325,721.9728752119737
326,721.9754693550308
327,721.9788736226391
328,721.9830784623292
329,721.9880743827761
330,721.9938521842685
331,722.0004031814509
332,722.0077194132742
333,722.0157938356963
334,722.0246204931983
335,722.0341946656889
336,722.0445129878766
337,722.055573538698
338,722.0673758991767
339,722.0799211785219
340,722.0932120101302
341,722.1072525205807
342,722.1220482750053
343,722.1376062013088
344,722.1539344942119
345,722.1710424988843
346,722.1889405736846
347,722.2076399321185
348,722.2271524648191
349,722.2474905425396
350,722.2686668010471
351,722.290693908987
352,722.3135843203061
353,722.3373500133688
354,722.3620022194931
355,722.3875511445004
356,722.4140056879205
357,722.441373165294
358,722.4696590393895
359,722.4988666659129
360,722.5289970582766
361,722.5600486743591
362,722.5920172264794
363,722.6248955146099
364,722.65867328249
365,722.6933370968463
366,722.728870251286
367,722.765252698276
368,722.8024610144046
369,722.8404684050204
370,722.8792447535698
371,722.9187567184953
372,722.9589678772995
373,722.9998389143891
374,723.0413278471488
375,723.0833902833859
376,723.1259797027358
377,723.1690477545748
378,723.2125445650951
379,723.2564190462439
380,723.3006191993882
381,723.3450924070515
382,723.3897857068723
383,723.4346460428983
384,723.4796204904319
385,723.5246564520563
386,723.5697018243161
387,723.6147051365448
388,723.6596156650032
389,723.7043835264916
390,723.7489597561569
391,723.7932963747701
392,723.8373464512858
393,723.8810641665362
394,723.9244048830074
395,723.9673252239547
396,724.009783163212
397,724.0517381252747
398,724.0931510935613
399,724.1339847233223
400,724.1742034550335
401,724.2137736245437
402,724.2526635671346
403,724.2908437131786
404,724.3282866731231
405,724.364967309729
406,724.4008627961529
407,724.435952659107
408,724.4702188061726
409,724.5036455352399
410,724.5362195225708
411,724.5679297851477
412,724.5987676135804
413,724.6287264740664
414,724.6578018809453
415,724.6859912440545
416,724.7132936967729
417,724.7397099115897
418,724.7652419107242
419,724.7898928795782
420,724.8136669900822
421,724.836569239203
422,724.8586053056833
423,724.8797814262259
424,724.9001042911503
425,724.9195809590601
426,724.9382187900623
427,724.9560253970863
428,724.973008614435
429,724.9891764820011
430,725.0045372430469
431,725.0190993531066
432,725.0328714969963
433,725.0458626100138
434,725.0580818988474
435,725.0695388584469
436,725.0802432833683
437,725.090205274947
438,725.0994352477476
439,725.1079439392572
440,725.115742425764
441,725.1228421453153
442,725.129254926481
443,725.134993020506
444,725.1400691350524
445,725.1444964696065
446,725.1482887544306
447,725.1514602956071
448,725.1540260279122
449,725.1560015753217
450,725.1574033167801
451,725.1582484535547
452,725.1585550744538
453,725.1583422158516
454,725.1576299141644
455,725.1564392490809
456,725.1547923766354
457,725.1527125521156
458,725.1502241436971
459,725.1473526384764
460,725.1441246427756
461,725.1405678776583
462,725.1367111685848
463,725.1325844259735
464,725.1282186123442
465,725.1236456921904
466,725.1188985620444
467,725.1140109593438
468,725.1090173494549
469,725.103952790987
470,725.0988527804666
471,725.0937530781766
472,725.088689517196
473,725.08369779752
474,725.0788132668143
475,725.0740706888844
476,725.0695040006235
477,725.0651460585881
478,725.0610283774231
479,725.0571808634168
480,725.0536315469349
481,725.0504063175517
482,725.047528665813
483,725.0450194359399
484,725.0428965943219
485,725.0411750190435
486,725.0398663154585
487,725.0389786618734
488,725.0385166883464
489,725.0384813910771
490,725.0388700846778
491,725.0396763940784
492,725.040890286718
493,725.0424981444613
494,725.044482873749
495,725.0468240518294
496,725.0494981064523
497,725.052478526123
498,725.0557360976544
499,725.0592391668554
500,725.0629539167189
501,725.0668446561277
502,725.0708741117495
503,725.0750037167111
504,725.0791938911011
505,725.0834043104825
506,725.0875941591671
507,725.0917223656583
508,725.095747819083
509,725.0996295675333
510,725.1033270010654
511,725.1068000227847
512,725.1100092110447
513,725.1129159753634
514,725.1154827089647
515,725.1176729415648
516,725.1194514961538
517,725.1207846525913
518,725.121640319156
519,725.121988211245
520,725.1218000343428
521,725.1210496663223
522,725.1197133325708
523,725.117769766775
524,725.1152003504732
525,725.1119892254846
526,725.1081233750444
527,725.1035926719262
528,725.0983898946729
529,725.0925107154093
530,725.085953663748
531,725.0787200709012
532,725.0708139970336
533,725.0622421441731
534,725.0530137570476
535,725.0431405147299
536,725.0326364164616
537,725.0215176651446
538,725.0098025514775
539,724.99751134057
540,724.9846661615925
541,724.9712909001787
542,724.9574110929768
543,724.9430538235694
544,724.9282476187684
545,724.9130223441892
546,724.8974090981542
547,724.8814401034449
548,724.8651485974262
549,724.8485687225382
550,724.8317354204056
551,724.814684333094
552,724.7974517143687
553,724.7800743528305
554,724.7625895078887
555,724.7450348586591
556,724.7274484649658
557,724.709868738652
558,724.6923344223109
559,724.6748845713804
560,724.6575585346737
561,724.6403959283509
562,724.6234365991429
563,724.6067205738339
564,724.5902879930611
565,724.5741790284208
566,724.5584337828726
567,724.5430921752688
568,724.5281938098976
569,724.513777831142
570,724.4998827624048
571,724.4865463281344
572,724.4738052581081
573,724.4616950734974
574,724.4502498543634
575,724.4395019885797
576,724.4294819031805
577,724.4202177804513
578,724.4117352620092
579,724.4040571445039
580,724.3972030709349
581,724.391189222461
582,724.3860280165999
583,724.381727818168
584,724.3782926690507
585,724.3757220424071
586,724.3740106266517
587,724.373148144707
588,724.3731192144945
589,724.3739032570356
590,724.3754744588474
591,724.3778017958107
592,724.3808491259962
593,724.38457535819
594,724.388934700851
595,724.3938769937482
596,724.3993481220111
597,724.4052905094172
598,724.4116436842702
599,724.4183449076852
600,724.4253298510041
601,724.4325333067156
602,724.439889915948
603,724.4473348955088
604,724.4548047483557
605,724.4622379430634
606,724.469575550279
607,724.4767618270787
608,724.4837447426235
609,724.4904764396997
610,724.4969136267374
611,724.5030178948423
612,724.5087559552355
613,724.5140997944371
614,724.519026747084
615,724.5235194889758
616,724.5275659554616
617,724.5311591922059
618,724.534297146188
619,724.5369824044319
620,724.5392218871264
621,724.5410265013361
622,724.5424107617529
623,724.5433923856841
624,724.5439918703808
625,724.5442320615525
626,724.5441377222446
627,724.5437351109103
628,724.543051576441
629,724.5421151763358
630,724.5409543225542
631,724.5395974583123
632,724.5380727681662
633,724.5364079228694
634,724.5346298593931
635,724.5327645953427
636,724.5308370763771
637,724.5288710552563
638,724.5268890012545
639,724.5249120385172
640,724.5229599118067
641,724.5210509782728
642,724.5192022242221
643,724.5174293059443
644,724.5157466132553
645,724.5141673536809
646,724.5127036546314
647,724.5113666807968
648,724.5101667640781
649,724.5091135430329
650,724.5082161075907
651,724.5074831429027
652,724.5069230646369
653,724.506544137829
654,724.5063545724305
655,724.5063625900452
656,724.5065764573617
657,724.5070044825641
658,724.507654971896
659,724.5085361448135
660,724.5096560080204
661,724.5110221911943
662,724.5126417499047
663,724.5145209434194
664,724.5166649963504
665,724.5190778532558
666,724.5217619343756
667,724.5247178990007
668,724.5279444212005
669,724.5314379811736
670,724.5351926742327
671,724.5392000382494
672,724.5434488995164
673,724.5479252367586
674,724.5526120636454
675,724.5574893315714
676,724.5625338562337
677,724.5677192728406
678,724.5730160251376
679,724.5783913929539
680,724.583809562125
681,724.5892317397288
682,724.594616316533
683,724.5999190771279
684,724.605093456365
685,724.6100908388822
686,724.6148608973328
687,724.6193519646354
688,724.6235114357095
689,724.6272861941923
690,724.6306230591404
691,724.6334692457496
692,724.6357728332642
693,724.6374832331978
694,724.6385516516923
695,724.6389315405834
696,724.6385790321417
697,724.6374533528979
698,724.6355172128141
699,724.6327371672309
700,724.6290839500743
701,724.6245327773483
702,724.61906361958
703,724.6126614406608
704,724.6053163992003
705,724.5970240081518
706,724.5877852495655
707,724.5776066433857
708,724.5665002712205
709,724.5544837570628
710,724.5415802067816
711,724.5278181074074
712,724.5132311866796
713,724.4978582332889
714,724.4817428782709
715,724.4649333378381
716,724.4474821179175
717,724.4294456813138
718,724.4108840797778
719,724.3918605548046
720,724.3724411119022
721,724.3526940728096
722,724.3326896090515
723,724.3124992593109
724,724.2921954330708
725,724.2718509036555
726,724.2515382947337
727,724.2313295652432
728,724.2112954983762
729,724.1915052004454
730,724.1720256150753
731,724.1529210574018
732,724.1342527720909
733,724.1160785183714
734,724.0984521852419
735,724.0814234406266
736,724.0650374191348
737,724.0493344534092
738,724.0343498532025
739,724.0201137344777
740,724.0066508987961
741,723.9939807615649
742,723.9821173263048
743,723.971069200725
744,723.9608396491411
745,723.9514266751904
746,723.942823129516
747,723.9350168390919
748,723.9279907572416
749,723.9217231351699
750,723.9161877167135
751,723.9113539583634
752,723.9071872767106
753,723.903649325324
754,723.9006983026785
755,723.8982892919951
756,723.8963746326074
757,723.8949043208578
758,723.8938264369518
759,723.8930875929784
760,723.8926333966158
761,723.8924089251639
762,723.8923592054504
763,723.8924296962117
764,723.8925667700466
765,723.8927181919256
766,723.8928335907867
767,723.8928649200869
768,723.8927669024877
769,723.8924974534557
770,723.8920180786727
771,723.8912942407435
772,723.8902956914714
773,723.888996766647
774,723.8873766407227
775,723.885419538848
776,723.8831149035291
777,723.8804575128424
778,723.8774475469875
779,723.8740906000022
780,723.8703976335464
781,723.8663848698576
782,723.8620736215338
783,723.8574900566252
784,723.8526648984359
785,723.8476330604789
786,723.842433218337
787,723.8371073218198
788,723.8317000528821
789,723.8262582372469
790,723.8208302199502
791,723.8154652161808
792,723.8102126483506
793,723.8051214786656
794,723.8002395445026
795,723.7956129025426
796,723.7912851874556
797,723.787296991974
798,723.7836852766468
799,723.7804828182857
800,723.7777177055477
801,723.7754128887336
802,723.7735857897554
803,723.77224797823
804,723.771404920716
805,723.7710558111875
806,723.7711934907952
807,723.7718044635635
808,723.7728690124413
809,723.7743614177487
810,723.7762502778093
811,723.7784989292936
812,723.7810659622672
813,723.7839058221829
814,723.7869694885859
815,723.7902052188508
816,723.7935593451824
817,723.7969771138431
818,723.8004035560126
819,723.803784379193
820,723.8070668669042
821,723.8102007732284
822,723.8131391978111
823,723.8158394260676
824,723.8182637187689
825,723.8203800354062
826,723.8221626769802
827,723.8235928358392
828,723.8246590425841
829,723.8253575028216
830,723.8256923196287
831,723.8256756004622
832,723.8253274490563
833,723.8246758434426
834,723.8237564016289
835,723.8226120378173
836,723.8212925143778
837,723.8198538973627
838,723.8183579254091
839,723.8168713030288
840,723.8154649295894
841,723.8142130751513
842,723.813192514058
843,723.8124816268923
844,723.812159481286
845,723.8123049023411
846,723.8129955439989
847,723.8143069731308
848,723.8163117780944
849,723.8190787129472
850,723.8226718876407
851,723.8271500134969
852,723.8325657121707
853,723.8389648952132
854,723.8463862203843
855,723.8548606300388
856,723.8644109761497
857,723.8750517359067
858,723.8867888214724
859,723.8996194873162
860,723.9135323380791
861,723.9285074385072
862,723.9445165244739
863,723.9615233109784
864,723.979483889984
865,723.9983472084282
866,724.0180556148074
867,724.0385454618025
868,724.0597477529722
869,724.0815888233454
870,724.1039910458139
871,724.1268735567044
872,724.1501529946798
873,724.1737442475019
874,724.1975612015887
875,724.2215174898347
876,724.2455272335994
877,724.2695057747804
878,724.293370393542
879,724.3170410070564
880,724.3404408446861
881,724.3634970948771
882,724.3861415182586
883,724.408311020393
884,724.4299481770281
885,724.4510017049115
886,724.4714268720874
887,724.4911858428875
888,724.5102479543033
889,724.5285899217567
890,724.5461959733162
891,724.5630579123042
892,724.5791751091792
893,724.594554424422
894,724.6092100648951
895,724.6231633770095
896,724.6364425809961
897,724.6490824514265
898,724.6611239500181
899,724.6726138179555
900,724.6836041360285
901,724.6941518610528
902,724.704318346236
903,724.7141688519484
904,724.7237720517454
905,724.7331995361085
906,724.7425253137069
907,724.7518253082679
908,724.7611768489281
909,724.7706581527261
910,724.7803477989407
911,724.7903241959198
912,724.8006650420101
913,724.8114467835704
914,724.8227440748724
915,724.834629246401
916,724.8471717890665
917,724.8604378621193
