frame_number,force
0,689.3931300075616
1,689.3350339172573
2,689.2770632303126
3,689.2193428291026
4,689.16199655522
5,689.1051466927064
6,689.0489134567387
7,688.9934144901547
8,688.9387643695632
9,688.8850741220031
10,688.8324507528278
11,688.7809967861085
12,688.730809820255
13,688.6819821028128
14,688.634600128696
15,688.5887442657804
16,688.5444884117168
17,688.5018996861545
18,688.4610381626285
19,688.4219566438005
20,688.3847004827362
21,688.3493074517818
22,688.3158076597189
23,688.2842235173231
24,688.2545697511132
25,688.2268534648484
26,688.2010742482927
27,688.177224332676
28,688.1552887916218
29,688.1352457848084
30,688.1170668396331
31,688.1007171643198
32,688.0861559849914
33,688.0733368996716
34,688.062208243737
35,688.0527134634004
36,688.0447914959725
37,688.0383771577411
38,688.0334015419446
39,688.0297924300007
40,688.0274747188465
41,688.0263708663409
42,688.026401355452
43,688.0274851764051
44,688.0295403242933
45,688.0324843085604
46,688.0362346708793
47,688.0407095089337
48,688.0458280043533
49,688.0515109528059
50,688.0576812931808
51,688.0642646314113
52,688.0711897529578
53,688.0783891164084
54,688.0857993195137
55,688.0933615289322
56,688.1010218661735
57,688.1087317441558
58,688.1164481507533
59,688.1241338774472
60,688.1317576927673
61,688.1392944616085
62,688.1467252124746
63,688.154037154977
64,688.1612236493678
65,688.1682841287563
66,688.17522397347
67,688.1820543361807
68,688.18879191589
69,688.1954586785885
70,688.2020815225438
71,688.2086918866898
72,688.215325301109
73,688.2220208790089
74,688.2288207504065
75,688.2357694393586
76,688.2429131888781
77,688.2502992404368
78,688.2579750780803
79,688.2659876501683
80,688.2743825835803
81,688.2832034052127
82,688.2924907843433
83,688.30228180837
84,688.31260930418
85,688.3235012172772
86,688.334980059899
87,688.3470624376855
88,688.3597586626041
89,688.3730724580923
90,688.3870007608698
91,688.401533622652
92,688.4166542139715
93,688.4323389310906
94,688.4485576051898
95,688.4652738105065
96,688.4824452654391
97,688.5000243188074
98,688.517958512857
99,688.5361912146727
100,688.5546623079517
101,688.5733089374207
102,688.592066298061
103,688.6108684602069
104,688.6296492197617
105,688.6483429611262
106,688.6668855195595
107,688.6852150295651
108,688.7032727462696
109,688.7210038276257
110,688.7383580666
111,688.755290563824
112,688.7717623320337
113,688.787740824162
114,688.8032003778376
115,688.8181225705754
116,688.8324964818195
117,688.8463188596261
118,688.8595941907571
119,688.8723346734168
120,688.8845600923916
121,688.8962975975433
122,688.9075813884816
123,688.9184523102198
124,688.9289573660601
125,688.9391491546892
126,688.9490852388167
127,688.9588274530807
128,688.9684411593967
129,688.9779944580515
130,688.9875573623696
131,688.9972009441449
132,689.0069964570936
133,689.0170144465184
134,689.0273238546092
135,689.0379911318205
136,689.0490793655968
137,689.0606474383577
138,689.0727492266121
139,689.0854328518345
140,689.0987399916227
141,689.1127052577644
142,689.1273556469852
143,689.14271006994
144,689.1587789636025
145,689.175563991465
146,689.1930578354386
147,689.211244082948
148,689.2300972117469
149,689.2495826731785
150,689.2696570723867
151,689.2902684418115
152,689.31135660255
153,689.3328536071132
154,689.354684256764
155,689.3767666868199
156,689.3990130138478
157,689.4213300392611
158,689.4436200039354
159,689.4657813879601
160,689.4877097490623
161,689.5092985930575
162,689.5304402697216
163,689.551026887414
164,689.5709512394377
165,689.5901077344214
166,689.6083933220721
167,689.625708404988
168,689.6419577271304
169,689.6570512298464
170,689.6709048666787
171,689.6834413683903
172,689.6945909496991
173,689.704291949385
174,689.7124913959454
175,689.7191454918072
176,689.7242200100783
177,689.7276905988706
178,689.7295429893901
179,689.7297731053746
180,689.7283870733169
181,689.725401135028
182,689.7208414656417
183,689.7147439007466
184,689.7071535768071
185,689.6981244901388
186,689.6877189810245
187,689.6760071502051
188,689.6630662150183
189,689.6489798126925
190,689.6338372591431
191,689.6177327724782
192,689.6007646704659
193,689.5830345502702
194,689.564646457555
195,689.5457060517198
196,689.5263197750968
197,689.5065940355498
198,689.4866344124817
199,689.466544894962
200,689.446427158135
201,689.4263798815356
202,689.4064981113079
203,689.3868726678119
204,689.3675896005485
205,689.3487296932718
206,689.3303680228805
207,689.3125735754737
208,689.2954089216909
209,689.2789299517577
210,689.2631856692208
211,689.2482180412588
212,689.2340619023182
213,689.220744906487
214,689.2082875229569
215,689.196703068933
216,689.1859977759947
217,689.1761708887494
218,689.1672147971807
219,689.1591152049913
220,689.1518513352609
221,689.1453961729542
222,689.139716742573
223,689.1347744191194
224,689.1305252713383
225,689.1269204373871
226,689.1239065339137
227,689.1214260993117
228,689.1194180705903
229,689.1178182916358
230,689.1165600493774
231,689.1155746333939
232,689.1147919132571
233,689.1141409264194
234,689.1135504683556
235,689.1129496764332
236,689.1122685994994
237,689.1114387460353
238,689.1103936045913
239,689.1090691310319
240,689.1074041981503
241,689.1053410047773
242,689.1028254436076
243,689.0998074289877
244,689.0962411871984
245,689.0920855123117
246,689.0873039909029
247,689.0818651987462
248,689.0757428718329
249,689.0689160528594
250,689.0613692133606
251,689.0530923511358
252,689.0440810621135
253,689.0343365851609
254,689.0238658179829
255,689.0126813024369
256,689.0008011780488
257,688.9882491030693
258,688.9750541431372
259,688.9612506286118
260,688.9468779825872
261,688.9319805220464
262,688.9166072342308
263,688.9008115293143
264,688.8846509695214
265,688.8681869745711
266,688.8514845038632
267,688.8346117167126
268,688.8176396125336
269,688.8006416529878
270,688.7836933679281
271,688.7668719464446
272,688.7502558132794
273,688.733924189803
274,688.7179566386438
275,688.7024325921994
276,688.6874308667672
277,688.673029165282
278,688.6593035728574
279,688.6463280508702
280,688.6341739370206
281,688.6229094600818
282,688.6125992785012
283,688.6033040514628
284,688.5950800494743
285,688.5879788092197
286,688.5820468348157
287,688.5773253454762
288,688.5738500686251
289,688.5716510776764
290,688.5707526741991
291,688.5711733140898
292,688.5729255765342
293,688.5760161735294
294,688.5804459971068
295,688.5862102012125
296,688.593298315148
297,688.601694385162
298,688.6113771402137
299,688.622320177555
300,688.6344921638781
301,688.6478570482318
302,688.6623742835401
303,688.6779990545573
304,688.6946825116424
305,688.71237201139
306,688.7310113660513
307,688.7505411035328
308,688.7708987392615
309,688.7920190612612
310,688.8138344304897
311,688.8362750992727
312,688.8592695509382
313,688.8827448633704
314,688.9066270980959
315,688.9308417146058
316,688.9553140072411
317,688.9799695599906
318,689.0047347136623
319,689.0295370400036
320,689.0543058179362
321,689.0789725076937
322,689.1034712188551
323,689.1277391676051
324,689.1517171171505
325,689.1753497938493
326,689.1985862709327
327,689.2213803118124
328,689.2436906657063
329,689.2654813095144
330,689.2867216312194
331,689.3073865511655
332,689.3274565782626
333,689.346917798865
334,689.3657617972545
335,689.383985508266
336,689.4015910040848
337,689.4185852184311
338,689.4349796125301
339,689.4507897890505
340,689.4660350627737
341,689.4807379995697
342,689.4949239372928
343,689.5086205028591
344,689.52185713893
345,689.5346646515694
346,689.5470747877424
347,689.5591198495505
348,689.5708323509479
349,689.5822447218263
350,689.5933890630989
351,689.6042969546592
352,689.6149993162566
353,689.6255263196915
354,689.6359073491193
355,689.6461710045244
356,689.65634514167
357,689.6664569401715
358,689.6765329900542
359,689.6865993867714
360,689.6966818254111
361,689.7068056862004
362,689.7169961048687
363,689.7272780230006
364,689.7376762152378
365,689.7482152915677
366,689.7589196733311
367,689.769813540853
368,689.7809207491333
369,689.7922647065368
370,689.8038682106603
371,689.8157532363015
372,689.8279406731971
373,689.840450015709
374,689.8532990115762
375,689.8665032805324
376,689.8800759153339
377,689.8940270779533
378,689.9083636030247
379,689.9230886195314
380,689.9382012007035
381,689.9536960514199
382,689.9695632418802
383,689.9857879955939
384,690.002350538894
385,690.0192260184975
386,690.036384493195
387,690.0537910050681
388,690.0714057340441
389,690.0891842369584
390,690.1070777691398
391,690.1250336835262
392,690.142995899808
393,690.1609054340273
394,690.1787009772022
395,690.1963195099216
396,690.2136969389986
397,690.2307687426852
398,690.2474706124707
399,690.2637390813807
400,690.2795121302453
401,690.2947297642689
402,690.3093345526058
403,690.3232721240322
404,690.3364916126055
405,690.3489460486013
406,690.3605926918747
407,690.3713933066466
408,690.3813143782296
409,690.390327273496
410,690.3984083482893
411,690.4055390065545
412,690.4117057171748
413,690.4168999944983
414,690.4211183472862
415,690.4243621993786
416,690.426637784827
417,690.4279560205836
418,690.4283323603015
419,690.4277866327409
420,690.4263428674747
421,690.4240291094021
422,690.4208772226913
423,690.4169226845468
424,690.4122043694023
425,690.4067643244185
426,690.4006475375041
427,690.3939016994836
428,690.3865769623245
429,690.3787256953581
430,690.3704022411963
431,690.3616626724739
432,690.3525645495084
433,690.3431666777336
434,690.3335288627878
435,690.323711660595
436,690.3137761194915
437,690.3037835111105
438,690.2937950461536
439,690.2838715706172
440,690.2740732382051
441,690.2644591561142
442,690.2550870040399
443,690.2460126295414
444,690.2372896260779
445,690.2289689024483
446,690.221098253619
447,690.2137219429068
448,690.2068803045245
449,690.2006093741372
450,690.1949405534864
451,690.1899003131111
452,690.1855099350374
453,690.1817852960536
454,690.1787366925143
455,690.1763687088317
456,690.1746801326682
457,690.1736639198178
458,690.173307211157
459,690.1735914032888
460,690.1744922736793
461,690.1759801602988
462,690.1780201951477
463,690.1805725903805
464,690.1835929748371
465,690.1870327779375
466,690.190839657372
467,690.1949579665207
468,690.1993292565408
469,690.2038928067601
470,690.2085861761564
471,690.2133457685785
472,690.2181074044714
473,690.2228068915119
474,690.2273805856973
475,690.2317659335122
476,690.235901985441
477,690.2397298716675
478,690.2431932322287
479,690.2462385956368
480,690.2488157012982
481,690.2508777615282
482,690.2523816590401
483,690.2532880764923
484,690.2535615562794
485,690.2531704907135
486,690.2520870446386
487,690.2502870143643
488,690.2477496283573
489,690.2444572960345
490,690.2403953113003
491,690.2355515176477
492,690.2299159422106
493,690.2234804071928
494,690.2162381282071
495,690.2081833097162
496,690.1993107477597
497,690.1896154496822
498,690.1790922800005
499,690.1677356409566
500,690.1555391954098
501,690.1424956383942
502,690.128596522114
503,690.1138321376875
504,690.0981914558303
505,690.0816621281822
506,690.0642305511079
507,690.0458819937816
508,690.0266007912342
509,690.0063706005881
510,689.9851747157423
511,689.9629964333426
512,689.9398194614225
513,689.9156283613377
514,689.8904090127777
515,689.8641490903384
516,689.8368385389813
517,689.8084700357867
518,689.7790394271077
519,689.7485461329343
520,689.7169935130588
521,689.6843891919222
522,689.6507453405749
523,689.6160789147491
524,689.5804118473689
525,689.5437711920413
526,689.506189212025
527,689.4677034082781
528,689.4283564813621
529,689.38819622472
530,689.3472753496897
531,689.3056512443317
532,689.2633856683508
533,689.2205443854976
534,689.1771967337438
535,689.1334151331482
536,689.0892745322512
537,689.0448517960267
538,689.0002250412255
539,688.9554729275276
540,688.9106739151471
541,688.8659055018317
542,688.8212434545935
543,688.7767610534596
544,688.7325283655055
545,688.6886115672633
546,688.6450723322566
547,688.6019672978738
548,688.5593476222351
549,688.5172586376974
550,688.4757396037593
551,688.4348235585987
552,688.394537265293
553,688.3549012461167
554,688.3159298965649
555,688.2776316701132
556,688.2400093250461
557,688.2030602254044
558,688.1667766886707
559,688.1311463730179
560,688.0961526970002
561,688.0617752846654
562,688.0279904294481
563,687.9947715710131
564,687.9620897803499
565,687.9299142493261
566,687.8982127810407
567,687.8669522767848
568,687.8360992148753
569,687.8056201162966
570,687.7754819915289
571,687.745652762134
572,687.7161016506523
573,687.6867995339479
574,687.6577192577896
575,687.6288359127719
576,687.600127072838
577,687.5715729978282
578,687.5431568011671
579,687.5148645831554
580,687.4866855293357
581,687.4586119722517
582,687.430639413944
583,687.4027665059336
584,687.3749949833098
585,687.3473295500188
586,687.3197777136894
587,687.292349570374
588,687.265057542138
589,687.2379160730643
590,687.2109412916277
591,687.1841506492408
592,687.157562545586
593,687.1311959509418
594,687.1050700344672
595,687.0792038060646
596,687.0536157783251
597,687.0283236538764
598,687.0033440418398
599,686.9786922054836
600,686.9543818424164
601,686.9304248989004
602,686.9068314202698
603,686.8836094394254
604,686.8607649049061
605,686.8383016492327
606,686.8162213971706
607,686.7945238124879
608,686.773206580736
609,686.7522655244235
610,686.7316947458761
611,686.7114867926712
612,686.6916328411626
613,686.6721228946079
614,686.6529459927009
615,686.6340904287872
616,686.6155439707145
617,686.5972940820492
618,686.5793281421813
619,686.5616336657673
620,686.5441985231764
621,686.5270111638254
622,686.5100608438502
623,686.4933378588711
624,686.4768337818483
625,686.4605417052966
626,686.4444564864641
627,686.4285749934475
628,686.4128963496904
629,686.3974221740305
630,686.382156813271
631,686.3671075636764
632,686.3522848764933
633,686.3377025409599
634,686.3233778371662
635,686.3093316510556
636,686.2955885444075
637,686.2821767732662
638,686.2691282491014
639,686.2564784385062
640,686.2442661994011
641,686.2325335537544
642,686.2213253981666
643,686.210689154518
644,686.2006743638254
645,686.1913322277314
646,686.1827151033777
647,686.174875958433
648,686.1678677937098
649,686.1617430413307
650,686.1565529468779
651,686.1523469444137
652,686.1491720337376
653,686.147072169705
654,686.1460876735591
655,686.1462546758635
656,686.1476045999452
657,686.1501636939205
658,686.153952618096
659,686.1589860925219
660,686.1652726070752
661,686.1728141947382
662,686.1816062685696
663,686.1916375240844
664,686.2028899101484
665,686.2153386717688
666,686.2289524671558
667,686.2436935600535
668,686.2595180872357
669,686.2763763999018
670,686.2942134760757
671,686.3129693990356
672,686.332579894429
673,686.3529769163129
674,686.3740892706733
675,686.3958432645927
676,686.4181633697914
677,686.4409728899761
678,686.4641946219107
679,686.4877515005711
680,686.511567219544
681,686.5355668191788
682,686.5596772368903
683,686.5838278161506
684,686.6079507726373
685,686.6319816170823
686,686.6558595343434
687,686.6795277175072
688,686.7029336552695
689,686.7260293710182
690,686.7487716128354
691,686.7711219944913
692,686.7930470879364
693,686.8145184678174
694,686.8355127086467
695,686.8560113360361
696,686.8760007348425
697,686.8954720185442
698,686.914420865272
699,686.9328473267457
700,686.9507556168669
701,686.9681538863468
702,686.9850539883215
703,687.0014712381627
704,687.0174241696349
705,687.0329342893589
706,687.048025831547
707,687.06272551456
708,687.0770623000085
709,687.0910671541978
710,687.1047728108823
711,687.1182135336156
712,687.1314248755143
713,687.1444434339033
714,687.1573065969286
715,687.170052278777
716,687.1827186399005
717,687.1953437888228
718,687.2079654628728
719,687.2206206866526
720,687.2333454091698
721,687.2461741229221
722,687.2591394702437
723,687.2722718435929
724,687.2855989872495
725,687.2991456083465
726,687.3129330054809
727,687.3269787235089
728,687.3412962435887
729,687.3558947178238
730,687.3707787575701
731,687.3859482835056
732,687.401398444224
733,687.4171196086008
734,687.4330974353245
735,687.4493130203687
736,687.4657431197761
737,687.4823604415386
738,687.499133997528
739,687.51602950485
740,687.5330098256716
741,687.5500354352013
742,687.5670649084791
743,687.5840554172786
744,687.6009632285642
745,687.6177441959001
746,687.6343542355366
747,687.6507497800565
748,687.6668882044477
749,687.6827282215854
750,687.6982302454769
751,687.7133567211004
752,687.7280724198067
753,687.7423446996286
754,687.7561437303535
755,687.7694426833428
756,687.7822178856997
757,687.7944489380287
758,687.8061187951979
759,687.817213810115
760,687.8277237410977
761,687.8376417237024
762,687.8469642081752
763,687.8556908642927
764,687.8638244562202
765,687.8713706908379
766,687.8783380433655
767,687.8847375638843
768,687.8905826678283
769,687.8958889132596
770,687.9006737677867
771,687.9049563679889
772,687.9087572740988
773,687.9120982227034
774,687.9150018805007
775,687.9174916025311
776,687.9195911984357
777,687.9213247097921
778,687.9227162004839
779,687.9237895608985
780,687.9245683262167
781,687.9250755094553
782,687.9253334508703
783,687.9253636861617
784,687.925186836302
785,687.9248225217725
786,687.924289303563
787,687.9236046525226
788,687.922784947751
789,687.9218455037563
790,687.9208006248366
791,687.919663683353
792,687.9184472166421
793,687.9171630361716
794,687.9158223428676
795,687.9144358441864
796,687.9130138704717
797,687.911566489246
798,687.9101036157846
799,687.9086351172516
800,687.9071709069736
801,687.9057210255265
802,687.9042957059476
803,687.902905421277
804,687.9015609136951
805,687.9002732056299
806,687.8990535940944
807,687.8979136298136
808,687.8968650821832
809,687.8959198899745
810,687.8950900966229
811,687.8943877685932
812,687.8938248959514
813,687.8934132758721
814,687.8931643821192
815,687.8930892258945
816,687.8931982149007
817,687.8935010174229
818,687.8940064369873
819,687.8947223015537
820,687.8956553701204
821,687.8968112593693
822,687.8981943930994
823,687.8998079770412
824,687.9016540008976
825,687.9037332683406
826,687.9060454546161
827,687.9085891905478
828,687.9113621709191
829,687.9143612841945
830,687.917582759376
831,687.9210223250091
832,687.9246753754244
833,687.9285371400445
834,687.9326028524463
835,687.9368679168382
836,687.9413280708272
837,687.9459795444031
838,687.9508192151753
839,687.9558447587674
840,687.9610547914501
841,687.9664490006548
842,687.9720282587194
843,687.9777947158283
844,687.9837518688971
845,687.9899046040387
846,687.9962592117903
847,688.0028233766236
848,688.0096061446715
849,688.0166178752539
850,688.0238701823049
851,688.0313758712261
852,688.0391488752281
853,688.0472041932354
854,688.0555578293688
855,688.0642267322621
856,688.0732287315183
857,688.0825824688038
858,688.0923073223415
859,688.1024233252332
860,688.1129510791018
861,688.1239116642017
862,688.1353265454601
863,688.1472174717072
864,688.159606363715
865,688.1725151864314
866,688.1859658019897
867,688.1999798017598
868,688.2145783168254
869,688.229781806599
870,688.2456098253865
871,688.2620807671793
872,688.2792115898322
873,688.2970175207696
874,688.3155117473156
875,688.3347050958724
876,688.3546057056865
877,688.3752187046293
878,688.396545895761
879,688.4185854637287
880,688.4413317087826
881,688.464774813721
882,688.4889006465881
883,688.5136906005216
884,688.5391214717479
885,688.5651653765326
886,688.5917897072662
887,688.6189571269213
888,688.6466256003487
889,688.6747484604114
890,688.7032745065194
891,688.7321481327515
892,688.761309482914
893,688.7906946307703
894,688.8202357846757
895,688.8498615164183
896,688.8794970143717
897,688.909064361427
898,688.9384828383314
899,688.9676692524936
900,688.9965382909628
901,689.0250028946809
902,689.052974649884
903,689.0803641918355
904,689.1070816155611
905,689.1330368876849
906,689.1581402530522
907,689.1823026300908
908,689.2054359900758
909,689.2274537173142
910,689.2482709492139
911,689.2678048968583
912,689.2859751479322
913,689.3027039548396
914,689.3179165118412
915,689.3315412255569
916,689.3435099825422
917,689.3537584160566
