acceleration,velocity,displacement
0.0030770270013382125,0.0,0.0
0.00338091317975446,1.6144850452731682e-06,4.0362126131829204e-10
0.003684130535717283,3.3807459741411036e-06,1.6524290161718599e-09
0.003986011299618558,5.298281432975064e-06,3.822185867950901e-09
0.004285889698778082,7.366256682574223e-06,6.9883203968382235e-09
0.0045831027094792014,9.583504784638544e-06,1.1225760763641416e-08
0.004876990575217702,1.194852810581277e-05,1.6608768986254243e-08
0.005166897090621473,1.4459500022272563e-05,2.3210776018275576e-08
0.005452169684452122,1.7114266716040962e-05,3.1104217702853955e-08
0.005732159356659491,1.9910348976318865e-05,4.036037162594391e-08
0.006006220530372273,2.2844943948076805e-05,5.1049194857042824e-08
0.006273710872374163,2.5914926798763415e-05,6.323916254375287e-08
0.006533991125622568,2.91168522982626e-05,7.699710731800938e-08
0.0067864249959682715,3.244695632866031e-05,9.23880594747401e-08
0.007030379147224532,3.5901157364458514e-05,1.0947508789801981e-07
0.007265223380172666,3.947505799630781e-05,1.2831914173821138e-07
0.007490331090542937,4.3163946613986714e-05,1.48978892890785e-07
0.007705080106150423,4.6962799413160053e-05,1.715105793975717e-07
0.007908853990477648,5.086628293731707e-05,1.95967849985191e-07
0.008101043876772119,5.486875740412952e-05,2.2240161007055263e-07
0.008281050872756246,5.8964281091511605e-05,2.508598696944629e-07
0.008448289055564225,6.314661607359173e-05,2.8138759398573873e-07
0.008602189056908583,6.740923560170993e-05,3.1402655690456413e-07
0.008742202214559533,7.174533341957695e-05,3.4881519915988586e-07
0.008867805233173879,7.61478352815103e-05,3.8578849133515764e-07
0.008978505255625142,8.060941290371006e-05,4.249778033814627e-07
0.009073845204331544,8.512250051869923e-05,4.66410781737065e-07
0.00915340922331159,8.967931412561001e-05,5.101112353981423e-07
0.009216828044355073,9.427187344252667e-05,5.560990322901765e-07
0.00926378411333356,9.889202648194882e-05,6.043900072712954e-07
0.00929401633784049,0.00010353147659474233,6.549958830404681e-07
0.009307324345749194,0.00010818181176563975,7.079242051305636e-07
0.00930357216992376,0.00011283453589455799,7.63178292045613e-07
0.009282691294721146,0.00011748110176071922,8.207572014594323e-07
0.009244683015690217,0.00012211294533832207,8.806557132341926e-07
0.009189620076821968,0.0001267215211114501,9.428643298466357e-07
0.009117647561743679,0.00013129833802109152,1.0073692946297712e-06
0.009028983026747091,0.0001358349956682142,1.0741526280520975e-06
0.008923915874136264,0.00014032322039343503,1.14319218206751e-06
0.00880280597284652,0.00014475490085518074,1.2144617123796639e-06
0.008666081539190136,0.0001491221227331899,1.2879309682767565e-06
0.008514236295275712,0.00015341720219180636,1.3635657995080056e-06
0.008347825929571322,0.0001576327177480181,1.4413282794929616e-06
0.008167463894650137,0.00016176154020407346,1.5211768439809845e-06
0.0079738165862934,0.00016579686032430933,1.6030664441130802e-06
0.007767597950544715,0.00016973221395851886,1.6869487126837872e-06
0.007549563562403243,0.00017356150433675584,1.772772142257606e-06
0.007320504219271296,0.00017727902128217448,1.8604822736623385e-06
0.00708123909957869,0.00018087945711188697,1.9500218932608536e-06
0.006832608549795882,0.00018435791902423061,2.041331237294883e-06
0.006575466575502369,0.00018770993780555518,2.1343482015023294e-06
0.006310673123951546,0.00019093147273041864,2.229008554136323e-06
0.0060390862612665006,0.00019401891257672316,2.325246150463108e-06
0.0057615543666052335,0.0001969690727336911,2.422993146790712e-06
0.00547890848002271,0.00019977918844534808,2.5221802120854715e-06
0.005191954942284981,0.000202446904300925,2.6227367352720397e-06
0.004901468452137313,0.00020497026014953056,2.7245910263846537e-06
0.004608185643607534,0.0002073476736734668,2.827670509840403e-06
0.004312799259385339,0.000209577919899215,2.9319019082335735e-06
0.004015952974061179,0.00021166010795757662,3.0372114151977715e-06
0.003718236906935882,0.00021359365542782588,3.143524856044122e-06
0.003420183855346045,0.00021537826061839637,3.2507678350556773e-06
0.0031222662697566973,0.00021701387314967206,3.3588658684976945e-06
0.0028248939779240475,0.00021850066321159225,3.467744502588011e-06
0.002528412647158628,0.00021983898986786292,3.5773294158578747e-06
0.0022331029557010602,0.00022102936876857785,3.6875465055169847e-06
0.0019391804340768229,0.00022207243961602232,3.7983219576131346e-06
0.0016467959371510243,0.00022296893370882929,3.909582300944347e-06
0.0013560367129914167,0.0002237196418713649,4.0212544448393955e-06
0.001066928039309588,0.00022432538305944014,4.133265701072097e-06
0.0007794353983539041,0.00022478697391885603,4.245543790316671e-06
0.0004934671571149465,0.00022510519955772323,4.3580168336858155e-06
0.0002088777156576815,0.00022528078577591638,4.470613330019225e-06
-7.452891509556631e-05,0.00022531437297605692,4.5832621197072184e-06
-0.00035699514587880077,0.00022520649196081333,4.695892335941436e-06
-0.0006388054935314856,0.00022495754180096075,4.808433344381879e-06
-0.0009202819608984265,0.00022456776993735327,4.920814672316458e-06
-0.0012017791563580075,0.00022403725465803916,5.032965928465306e-06
-0.0014836791946512245,0.00022336589007028684,5.144816714647387e-06
-0.0017663864126071162,0.00022255337366847226,5.256296530582077e-06
-0.0020503219212907103,0.0002215991965849978,5.367334673145444e-06
-0.002335918004106843,0.0002205026366036484,5.477860131442606e-06
-0.0026236123624200328,0.00021926275401201669,5.587801479096522e-06
-0.002913842209227509,0.0002178783903691048,5.697086765191802e-06
-0.0032070382157490048,0.00021634817026286066,5.805643405349794e-06
-0.003503618320237831,0.00021467050612886395,5.913398074447725e-06
-0.0038039814119307774,0.0002128436061958218,6.020276602528897e-06
-0.004108500911855463,0.00021086548561487524,6.126203875481571e-06
-0.004417518290947973,0.00020873398081417438,6.231103742088833e-06
-0.004731336590134508,0.00020644676709390377,6.3348989290658525e-06
-0.005050214028050759,0.00020400137943935744,6.437510965699168e-06
-0.005374357794454484,0.00020139523648373114,6.53886011967994e-06
-0.005703918131722713,0.00019862566750218684,6.638865345676419e-06
-0.006038982807413231,0.00019568994226740286,6.737444248118817e-06
-0.006379572080336956,0.00019258530354546532,6.834513059572034e-06
-0.006725634259479561,0.00018930900196051118,6.929986635948528e-06
-0.007077041945663511,0.00018585833290922542,7.023778469665963e-06
-0.0074335890306006566,0.00018223067516515937,7.115800721684559e-06
-0.007794988510815573,0.00017842353077980532,7.2059642731708e-06
-0.008160871156076685,0.00017443456586308225,7.294178797331522e-06
-0.008530785051974039,0.00017026165181106958,7.38035285175006e-06
-0.008904196015607171,0.00016590290654417428,7.464393991338872e-06
-0.009280488869212096,0.00016135673532296946,7.546208901805658e-06
-0.009658969554537197,0.00015662187071703213,7.625703553315658e-06
-0.010038868075011451,0.00015169741130964496,7.702783373822327e-06
-0.010419342249549943,0.00014658285872850462,7.777353441331864e-06
-0.010799482244076659,0.00014127815260509796,7.849318694165264e-06
-0.011178315821047119,0.000135783703088817,7.918584158088744e-06
-0.011554814225618253,0.00013010042057715068,7.985055189005235e-06
-0.01192789861984512,0.00012422974236578484,8.048637729740969e-06
-0.012296446985359751,0.00011817365596448363,8.109238579323535e-06
-0.012659301434321962,0.0001119347188595632,8.166765673029546e-06
-0.013015275889900283,0.00010551607452850764,8.221128371376564e-06
-0.013363164116977988,9.892146452678807e-05,8.272237756140388e-06
-0.01370174809780601,9.215523647309207e-05,8.320006931390357e-06
-0.014029806750607792,8.522234776098862e-05,8.364351327448878e-06
-0.014346124978704444,7.812836482866056e-05,8.405189005596291e-06
-0.014649503018035949,7.087945782947546e-05,8.442440961260826e-06
-0.01493876602901476,6.348239056771279e-05,8.476031423360123e-06
-0.015212773857952595,5.594450559597095e-05,8.505888147401044e-06
-0.015470430874511798,4.827370441285485e-05,8.53194269990325e-06
-0.015710695775056294,4.047842275046283e-05,8.554130731694079e-06
-0.015932591228365576,3.256760099960737e-05,8.572392237631596e-06
-0.01613521323296254,2.455064988427534e-05,8.586671800352566e-06
-0.016317740057444997,1.6437411561673452e-05,8.596918815714053e-06
-0.01647944064543463,8.238116385953546e-06,8.603087697700959e-06
-0.016619682379661257,-3.6664370320426776e-08,8.605138060704868e-06
-0.016737938110835505,-8.376069492944616e-06,8.603034877239052e-06
-0.01683379236618814,-1.6769002112200526e-05,8.596748609337765e-06
-0.01690694666089222,-2.5204186868970613e-05,8.586255312092472e-06
-0.016957223843677306,-3.367022949511299e-05,8.571536708001452e-06
-0.016984571416432302,-4.2155678310140395e-05,8.552580231050138e-06
-0.01698906377738536,-5.064908710859481e-05,8.529379039695455e-06
-0.016970903349172808,-5.913907889023435e-05,8.501931998195747e-06
-0.016930420565103136,-6.761440986880333e-05,8.470243626005988e-06
-0.016868072695082413,-7.606403318384972e-05,8.434324015242824e-06
-0.016784441495771674,-8.447716173156324e-05,8.394188716513971e-06
-0.016680229673412938,-9.284332952385939e-05,8.349858593700115e-06
-0.016556256157721945,-0.00010115245098164311,8.30135964857374e-06
-0.01641345019945962,-0.0001093948775709385,8.248722816435594e-06
-0.016252844319286138,-0.00011756145120062494,8.191983734242703e-06
-0.016075566153924914,-0.0001256435538189277,8.131182482987816e-06
-0.01588282927190383,-0.00013363315267538487,8.066363306364238e-06
-0.01567592306310144,-0.00014152284075913618,7.997574308005608e-06
-0.015456201837055211,-0.00014930587198417534,7.92486712981978e-06
-0.015225073289925,-0.0001569761907659204,7.848296614132256e-06
-0.01498398651573714,-0.00016452845571733593,7.767920452511442e-06
-0.014734419741708988,-0.00017195805728169747,7.683798824261683e-06
-0.014477867963146065,-0.00017926112920791125,7.595994027639281e-06
-0.01421583064506062,-0.0001864345538599629,7.5045701068723125e-06
-0.013949799644565128,-0.00019347596143236935,7.40959247804923e-06
-0.013681247487933167,-0.00020038372321549392,7.311127556887264e-06
-0.01341161611186976,-0.00020715693911544465,7.209242391304529e-06
-0.013142306155265269,-0.00021379541968222842,7.1040043016051105e-06
-0.012874666867797509,-0.0002202996629379941,6.995480530950055e-06
-0.01260998668486483,-0.0002266708263261597,6.8837379086340166e-06
-0.012349484503779795,-0.00023291069412332085,6.7688425285216465e-06
-0.012094301682361872,-0.00023902164066985627,6.6508594448233524e-06
-0.011845494765938328,-0.00024500658978193133,6.529852387210406e-06
-0.011604028932000332,-0.000250868970706416,6.405883497088319e-06
-0.011370772128413014,-0.0002566126709715193,6.279013086668835e-06
-0.01114648988031358,-0.000262241986473701,6.14929942230753e-06
-0.010931840755578539,-0.000267761569132674,6.0167985334059365e-06
-0.010727372499409778,-0.0002731763724464211,5.881564048011163e-06
-0.010533518862482629,-0.00027849159528689423,5.743647056077834e-06
-0.010350597150193949,-0.00028371262429006337,5.603096001183594e-06
-0.010178806515162269,-0.0002888449752064024,5.459956601309478e-06
-0.010018227003397778,-0.00029389423358604244,5.314271799111366e-06
-0.009868819349340472,-0.000298865995174227,5.166081741921299e-06
-0.009730425503841632,-0.0003037658063875225,5.015423791530862e-06
-0.009602769879741308,-0.00030859910523341823,4.862332563625627e-06
-0.009485461313092577,-0.0003133711630316267,4.7068399965593655e-06
-0.00937799575600453,-0.000318087027298901,4.548975448976734e-06
-0.009279759727801998,-0.0003227514661698526,4.3887658256095455e-06
-0.009190034548958614,-0.00032736891473904273,4.226235730382322e-06
-0.009108001372625641,-0.0003319434237194388,4.061407645767702e-06
-0.009032747020456214,-0.00033647861081770926,3.894302137133415e-06
-0.008963270623738705,-0.000340977615228758,3.724938080621798e-06
-0.008898491063564828,-0.0003454430556505839,3.5533329129019625e-06
-0.008837255195115898,-0.0003498769922152541,3.379502900935503e-06
-0.008778346834938278,-0.0003542808927227676,3.2034634297009974e-06
-0.008720496485646125,-0.00035865560355291374,3.025229305632077e-06
-0.008662391763473205,-0.00036300132561519356,2.84481507334005e-06
-0.008602688475464852,-0.0003673175956749281,2.6622353430175197e-06
-0.008540022264431207,-0.0003716032733599021,2.477505125758812e-06
-0.008473020705663505,-0.0003758565341024258,2.29064017389323e-06
-0.00840031570712136,-0.000380074868205622,2.101657323316218e-06
-0.008320556043783036,-0.0003842550861433481,1.9105748347289756e-06
-0.00823241985338441,-0.00038839333011764,1.7174127306637285e-06
-0.008134626932603509,-0.00039248509181413695,1.5221931251807843e-06
-0.008025950688769318,-0.0003965252362194802,1.3249405431723801e-06
-0.007905229611996273,-0.00040050803129467155,1.1256822262938423e-06
-0.007771378136265655,-0.00040442718323173703,9.244484226622401e-07
-0.007623396763037947,-0.0004082758769565629,7.212726576151651e-07
-0.007460381332256778,-0.0004120468214803866,5.161919830059277e-07
-0.007281531342064359,-0.00041573229964896686,3.0924720272358934e-07
-0.00708615723761102,-0.0004193242217938857,1.0048307236287618e-07
-0.0068736866098982755,-0.00042281418275576303,-1.1005152877453603e-07
-0.006643669270328908,-0.00042619352172581983,-3.223034548949317e-07
-0.006395781198588104,-0.0004294533843430491,-5.362151814121489e-07
-0.006129827396494151,-0.00043258478649181966,-7.517247241208661e-07
-0.005845743705179047,-0.00043557867926723794,-9.687655905606306e-07
-0.005543597647583355,-0.0004384260146054285,-1.1872667640287972e-06
-0.005223588346610923,-0.0004411178111039771,-1.4071527204561487e-06
-0.004886045554959428,-0.0004436452195793697,-1.6283434781269854e-06
-0.004531427825119137,-0.00044599958792438933,-1.850754680002925e-06
-0.004160319848088811,-0.0004481725248426913,-2.074297708194695e-06
-0.003773428993890118,-0.0004501559620531861,-2.2988798299186645e-06
-0.003371581094486871,-0.00045194221457528033,-2.524404374075781e-06
-0.0029557155179914412,-0.0004535240387283999,-2.750770937401701e-06
-0.0025268795865379832,-0.00045489468750453227,-2.977875618959934e-06
-0.002086222384773124,-0.00045604796299736003,-3.2056112815854074e-06
-0.0016349879952493082,-0.0004569782655923656,-3.433867838732839e-06
-0.0011745081904354783,-0.00045768063963878684,-3.662532565040627e-06
-0.0007061946120020762,-0.0004581508153393962,-3.891490428785173e-06
-0.00023153047210941165,-0.0004583852466104241,-4.120624444272628e-06
0.0002479381858483048,-0.00045838114468198937,-4.3498160420957315e-06
0.0007306116258796664,-0.00045813650722905736,-4.578945455073493e-06
0.001214845906645209,-0.00045765014284592615,-4.807892117592239e-06
0.0016989626500685479,-0.0004569216907067477,-5.036535075980407e-06
0.0021812590068634877,-0.0004559516352925147,-5.264753407480223e-06
0.002660017724094469,-0.00045474131610977517,-5.492426645330795e-06
0.003133517218643875,-0.0004532929323740906,-5.719435207451762e-06
0.0036000415650783253,-0.00045160954267816,-5.945660826214824e-06
0.004057890312679105,-0.00044969505970872067,-6.170986976811544e-06
0.004505388053085444,-0.00044755424011727954,-6.395299301768044e-06
0.004940893667998137,-0.00044519266968700866,-6.618486029219116e-06
0.005362809196163952,-0.0004426167439709681,-6.84043838263361e-06
0.0057695882703829035,-0.0004398336446043314,-7.061050979777435e-06
0.006159744089241256,-0.00043685131151442535,-7.280222218807124e-06
0.00653185690212491,-0.0004336784112665838,-7.497854649502377e-06
0.006884580992015084,-0.00043032430179304877,-7.713855327767286e-06
0.00721665113308497,-0.00042679899376177376,-7.928136151655992e-06
0.007526888483177622,-0.00042311310885770814,-8.140614177310863e-06
0.007814205855414699,-0.00041927783527306005,-8.351211913343556e-06
0.008077612306791535,-0.0004153048807325085,-8.559857592344948e-06
0.008316216988556046,-0.0004112064234086716,-8.766485418380243e-06
0.008529232222739169,-0.00040699506110584776,-8.971035789508873e-06
0.00871597579413502,-0.0004026837591016292,-9.173455494560742e-06
0.008875872466261252,-0.0003982857970365301,-9.373697883595282e-06
0.009008454741234597,-0.00039381471523465615,-9.571723011663078e-06
0.009113362894775882,-0.00038928426082565355,-9.767497755678155e-06
0.00919034433388746,-0.0003847083340184877,-9.96099590438919e-06
0.009239252339466049,-0.00038010093485014936,-1.0152198221606349e-05
0.009260044259830664,-0.0003754761107003252,-1.0341092482993968e-05
0.009252779215521152,-0.00037084790483148724,-1.0527673486876922e-05
0.009217615372350755,-0.00036623030618451925,-1.0711943039630924e-05
0.009154806845468374,-0.0003616372006300645,-1.089390991633457e-05
0.009064700305004612,-0.00035708232384244623,-1.1073589797452697e-05
0.008947731351184679,-0.0003525792159283989,-1.1251005182395408e-05
0.00880442071133494,-0.000348141177912769,-1.14261852808557e-05
0.008635370293718105,-0.0003437812301615057,-1.1599165882874269e-05
0.008441259124641977,-0.0003395120728069157,-1.1769989208616374e-05
0.008222839199567377,-0.00033534604822586334,-1.1938703738874568e-05
0.007980931291748065,-0.00033129510560303446,-1.2105364027331792e-05
0.0077164207736334115,-0.0003273707675866891,-1.2270030495629223e-05
0.007430253507889365,-0.0003235840990163084,-1.2432769212279973e-05
0.007123431855174128,-0.00031994567767554255,-1.2593651656452935e-05
0.006797010829854574,-0.00031646556700428536,-1.2752754467622892e-05
0.006452094415365372,-0.00031315329069298036,-1.291015918204721e-05
0.006089832028623448,-0.00031001780908198316,-1.306595195699095e-05
0.0057114151033631055,-0.0003070674972989865,-1.3220223283586192e-05
0.005318073750024741,-0.00030431012508563956,-1.337306768918235e-05
0.004911073442948664,-0.0003017528382873962,-1.3524583430025608e-05
0.004491711679862668,-0.0002994021420066934,-1.367487217509913e-05
0.004061314555624555,-0.0002972638854478216,-1.3824038681962759e-05
0.003621233194591749,-0.00029534324851026753,-1.3972190465452281e-05
0.0031728399933171614,-0.0002936447302132903,-1.4119437460133171e-05
0.002717524634798457,-0.0002921721390562614,-1.4265891677450558e-05
0.002256689843787967,-0.0002909285854366148,-1.4411666858573778e-05
0.0017917468576377563,-0.0002899164762612584,-1.4556878123998247e-05
0.0013241105908602612,-0.0002891375118991339,-1.4701641621038345e-05
0.0008551944783210182,-0.0002885926856318386,-1.4846074170421088e-05
0.0003864049918525631,-0.0002882822857642952,-1.4990292913270122e-05
-8.086416488188575e-05,-0.00028820590055755256,-1.5134414959850584e-05
-0.0005452381690314639,-0.0002883624261410309,-1.527855704152523e-05
-0.0010053674744351746,-0.0002887500775518976,-1.5422835167448463e-05
-0.001459934453758121,-0.0002893664030339459,-1.5567364287594924e-05
-0.0019076602284249639,-0.00029020830170449165,-1.5712257963779533e-05
-0.002347311593963709,-0.0002912720446600888,-1.585762805037068e-05
-0.002777707911016205,-0.0002925532995363338,-1.6003584386419785e-05
-0.003197727809326794,-0.00029404715846641954,-1.6150234500920472e-05
-0.00360631555209189,-0.0002957481693067742,-1.629768333286377e-05
-0.004002486926079431,-0.000297650369926317,-1.6446032967672044e-05
-0.00438533454798821,-0.00029974732529483393,-1.659538239147733e-05
-0.004754032497435934,-0.00030203216705619,-1.674582726456509e-05
-0.0051078401920384466,-0.0003044976352285586,-1.6897459715136277e-05
-0.005446105413263398,-0.00030713612162988407,-1.7050368154350888e-05
-0.0057682663892041726,-0.00030993971458050096,-1.7204637113403484e-05
-0.0060738528550551086,-0.00031290024439156576,-1.73603471031465e-05
-0.0063624860404106745,-0.0003160093291154322,-1.751757449652325e-05
-0.006633877563079388,-0.0003192584200163047,-1.7676391433806187e-05
-0.006887827235289725,-0.000322638846215897,-1.7836865750364238e-05
-0.007124219810936572,-0.0003261418579774536,-1.7999060926412575e-05
-0.007343020727401463,-0.00032975866811203806,-1.8163036057934947e-05
-0.007544270928262459,-0.00033348049102595404,-1.8328845847719443e-05
-0.007728080891830172,-0.0003372985789809772,-1.8496540615221176e-05
