frame_number,force
0,828.7534180002518
1,828.761644023257
2,828.7697598803778
3,828.777675310103
4,828.7853379502673
5,828.7927478678772
6,828.7999676165438
7,828.807127377595
8,828.8144252126101
9,828.8221227717738
10,828.8305369191264
11,828.8400276864079
12,828.8509828877083
13,828.8637997665741
14,828.8788642688432
15,828.8965288841703
16,828.9170903264687
17,828.9407684661459
18,828.9676878361174
19,828.997862805382
20,829.0311872775949
21,829.067429577709
22,829.1062330040256
23,829.1471222750457
24,829.1895157259108
25,829.2327426114699
26,829.2760643665985
27,829.3186983289378
28,829.3598423509181
29,829.3986989013284
30,829.4344975798759
31,829.4665153224126
32,829.4940938777982
33,829.516654359569
34,829.5337088245822
35,829.544868932057
36,829.5498518138999
37,829.5484833503446
38,829.5406990876098
39,829.5265430438349
40,829.5061646205733
41,829.4798137903135
42,829.4478347135205
43,829.4106579690234
44,829.3687915984118
45,829.3228110973995
46,829.2733483566092
47,829.2210794625984
48,829.1667112904934
49,829.1109669234224
50,829.0545700447543
51,828.998228562744
52,828.9426179050558
53,828.8883646577149
54,828.8360314095478
55,828.7861036931008
56,828.7389797682468
57,828.6949637271332
58,828.6542620954624
59,828.6169838660549
60,828.5831437790159
61,828.5526686163496
62,828.5254062275682
63,828.5011368995475
64,828.4795865269548
65,828.4604408892124
66,828.443360292043
67,828.4279939164832
68,828.4139933734901
69,828.4010251063788
70,828.3887813650109
71,828.3769894988127
72,828.3654193362
73,828.3538884666813
74,828.3422652920075
75,828.330469747177
76,828.3184716231802
77,828.3062864641233
78,828.293969090553
79,828.2816049478968
80,828.2692996740375
81,828.2571674698554
82,828.245318989049
83,828.2338495011097
84,828.2228280432569
85,828.2122882330971
86,828.2022213769321
87,828.1925723973152
88,828.1832388577172
89,828.174073038136
90,828.1648867282472
91,828.1554582246202
92,828.1455409374189
93,828.1348729748298
94,828.1231870421291
95,828.1102199904802
96,828.0957214243105
97,828.0794609188938
98,828.0612335624097
99,828.0408637015754
100,828.0182069576027
101,827.9931507709322
102,827.9656138343581
103,827.9355447120137
104,827.9029197943204
105,827.8677406877846
106,827.8300312751911
107,827.7898349253313
108,827.747212518527
109,827.7022419552632
110,827.6550196033969
111,827.6056637959045
112,827.5543201236609
113,827.5011679330468
114,827.4464271785088
115,827.3903646701915
116,827.3332988347454
117,827.275602315133
118,827.217701982811
119,827.1600761773417
120,827.1032492161584
121,827.0477834285892
122,826.9942691495892
123,826.943313221894
124,826.8955265593938
125,826.8515112340767
126,826.8118474375899
127,826.777080592452
128,826.747708848916
129,826.7241711870415
130,826.7068363413763
131,826.6959927669742
132,826.6918398572321
133,826.6944805976746
134,826.7039158141198
135,826.7200402015212
136,826.7426404151448
137,826.7713955916824
138,826.8058806706022
139,826.8455728288233
140,826.8898612693445
141,826.9380604794006
142,826.9894268362151
143,827.0431781170873
144,827.09851515274
145,827.1546446095607
146,827.210801741109
147,827.2662719411433
148,827.3204100214452
149,827.3726562674946
150,827.4225485036757
151,827.4697296587799
152,827.5139506244791
153,827.555068475848
154,827.5930403453623
155,827.6279134143555
156,827.659811620847
157,827.6889198004052
158,827.7154661054853
159,827.7397036949516
160,827.7618927827934
161,827.7822840638795
162,827.8011042581121
163,827.818544158358
164,827.8347492989673
165,827.8498132351959
166,827.8637734073894
167,827.8766096313253
168,827.8882453685734
169,827.8985519904938
170,827.9073561547572
171,827.9144501518956
172,827.9196047577204
173,827.9225839015955
174,827.9231604057186
175,827.9211320937213
176,827.9163375921031
177,827.908671142504
178,827.8980957622249
179,827.8846541307147
180,827.8684765916032
181,827.8497856547743
182,827.8288964427987
183,827.8062127206385
184,827.7822184801884
185,827.757465465585
186,827.7325574240018
187,827.7081321292825
188,827.6848422673394
189,827.6633361245857
190,827.6442388305059
191,827.6281348075136
192,827.61555207539
193,827.6069490449879
194,827.6027043519771
195,827.6031101384956
196,827.6083690233548
197,827.6185948211469
198,827.6338168435868
199,827.65398729921
200,827.6789909548608
201,827.708656006851
202,827.7427651611365
203,827.7810661854905
204,827.8232814959221
205,827.869116546638
206,827.9182668978455
207,827.9704238771562
208,828.025278748203
209,828.0825252818355
210,828.1418606626079
211,828.2029848117717
212,828.265598415809
213,828.3294000968851
214,828.3940832007347
215,828.4593326673759
216,828.5248224470884
217,828.5902139007937
218,828.655155512316
219,828.7192840293311
220,828.7822269201334
221,828.8436058837616
222,828.903041112526
223,828.960156036002
224,829.0145823192164
225,829.0659649285428
226,829.1139671300639
227,829.1582753528005
228,829.1986039343606
229,829.2346998781267
230,829.2663478572166
231,829.2933757003613
232,829.3156604149325
233,829.3331344981409
234,829.3457919974535
235,829.3536936161602
236,829.3569701716651
237,829.3558238960991
238,829.3505273236951
239,829.3414196968853
240,829.3289009119221
241,829.3134231204634
242,829.2954802732717
243,829.2755960483585
244,829.254310626963
245,829.232166688301
246,829.2096949394545
247,829.1873995717896
248,829.1657441455675
249,829.1451383837159
250,829.1259261763201
251,829.1083748957976
252,829.09266604573
253,829.0788873601374
254,829.0670266782623
255,829.0569681159678
256,829.0484911169798
257,829.0412728791775
258,829.0348944787046
259,829.0288507902912
260,829.0225640365996
261,829.0154005612166
262,829.0066902720904
263,828.9957481136582
264,828.9818968455957
265,828.9644903514417
266,828.9429367080122
267,828.91672031051
268,828.8854224332392
269,828.8487396678354
270,828.8064996931189
271,828.7586738228786
272,828.7053858065794
273,828.6469164277054
274,828.5837035175841
275,828.5163370703059
276,828.4455492246806
277,828.3721990031432
278,828.2972519440002
279,828.2217551849877
280,828.1468090327826
281,828.0735363550646
282,828.0030511444935
283,827.9364273947723
284,827.8746691421429
285,827.818682320291
286,827.769249078248
287,827.7270053817862
288,827.6924228437189
289,827.6657956374894
290,827.6472330845121
291,827.636658217876
292,827.6338123966343
293,827.6382658622151
294,827.649433916381
295,827.6665980786926
296,827.6889311769256
297,827.7155250043955
298,827.7454190954116
299,827.7776293091171
300,827.8111751613422
301,827.8451051335934
302,827.8785194776025
303,827.9105902489835
304,827.9405783926087
305,827.9678477212958
306,827.9918756750614
307,828.0122608182623
308,828.0287270402123
309,828.0411243407843
310,828.049425985247
311,828.0537218311952
312,828.0542078557287
313,828.051172310341
314,828.044979340783
315,828.0360511564744
316,828.0248498689737
317,828.011860015973
318,827.9975726327755
319,827.9824715476041
320,827.9670223551815
321,827.951664299748
322,827.9368051261426
323,827.9228188357074
324,827.9100461583423
325,827.898797387031
326,827.889357036296
327,827.8819896182698
328,827.876945708276
329,827.874467432205
330,827.8747925885439
331,827.8781568249373
332,827.8847935593026
333,827.8949315488348
334,827.9087901083046
335,827.9265720499566
336,827.9484545828903
337,827.9745786603428
338,828.0050374755732
339,828.0398649102553
340,828.0790247928874
341,828.1224018897803
342,828.1697955544159
343,828.2209167823122
344,828.2753890612972
345,828.3327529978152
346,828.3924743727225
347,828.4539551111786
348,828.5165466393292
349,828.5795651621016
350,828.64230842792
351,828.7040735254157
352,828.7641752513123
353,828.8219646344421
354,828.876847217764
355,828.9283005887451
356,828.9758904623084
357,829.0192845410198
358,829.0582634923529
359,829.092728590338
360,829.122705732576
361,829.1483456589127
362,829.1699203465249
363,829.1878157498384
364,829.2025212051383
365,829.2146158722945
366,829.2247525901873
367,829.233639544593
368,829.2420201917377
369,829.250651935828
370,829.2602841225012
371,829.271635957617
372,829.2853749723702
373,829.3020966490727
374,829.3223057981473
375,829.3464001946485
376,829.3746568341866
377,829.4072210216384
378,829.4440984424309
379,829.4851504089099
380,829.5300925845404
381,829.5784975983464
382,829.6298020107971
383,829.6833180430092
384,829.738250296931
385,829.7937173496388
386,829.8487776623782
387,829.9024588488529
388,829.9537890921586
389,830.0018293708877
390,830.0457050996023
391,830.0846357871195
392,830.1179614001975
393,830.1451643336126
394,830.1658861967544
395,830.1799389222674
396,830.1873099139216
397,830.1881611004883
398,830.1828219092714
399,830.1717763713744
400,830.1556448402898
401,830.1351610903647
402,830.1111457594432
403,830.0844771667897
404,830.0560605469443
405,830.0267967899601
406,829.997551839763
407,829.9691278507576
408,829.942237013071
409,829.9174787513136
410,829.895320884219
411,829.8760852865495
412,829.8599385585401
413,829.8468881489221
414,829.8367842727215
415,829.8293277859109
416,829.82408392328
417,829.8205015140792
418,829.8179370069209
419,829.8156823678523
420,829.8129956505576
421,829.809132801446
422,829.8033791274122
423,829.7950788675266
424,829.783661447801
425,829.7686632233663
426,829.749743834823
427,829.7266967255241
428,829.6994537940068
429,829.6680844654876
430,829.6327896285068
431,829.5938909833413
432,829.5518164932266
433,829.5070828490522
434,829.460276063403
435,829.4120313405443
436,829.3630131610049
437,829.313896192965
438,829.2653473780099
439,829.2180094156954
440,829.1724858319939
441,829.1293277351368
442,829.0890221826418
443,829.0519819036842
444,829.0185360909612
445,828.9889221357004
446,828.9632784413956
447,828.9416386779329
448,828.9239279031162
449,828.9099608586035
450,828.8994425764101
451,828.8919713787573
452,828.8870444216749
453,828.8840659919628
454,828.8823587461294
455,828.8811779865697
456,828.8797289010637
457,828.8771864601275
458,828.8727174421065
459,828.865503888223
460,828.8547671660504
461,828.8397917087299
462,828.8199473913005
463,828.7947094551616
464,828.7636749984694
465,828.7265753531923
466,828.6832840556253
467,828.6338204191528
468,828.5783488817488
469,828.517174396169
470,828.4507342254825
471,828.3795865991664
472,828.3043967438587
473,828.2259208021035
474,828.1449880941076
475,828.062482119328
476,827.9793207095408
477,827.8964358334271
478,827.8147536297835
479,827.735175212723
480,827.6585586199179
481,827.5857020529415
482,827.5173284318181
483,827.4540713269944
484,827.3964624954494
485,827.3449214285085
486,827.2997474120822
487,827.2611145364269
488,827.2290698892979
489,827.2035349329759
490,827.1843099130855
491,827.1710811019184
492,827.1634306929685
493,827.1608491611588
494,827.1627498264892
495,827.1684852276717
496,827.1773648253956
497,827.1886735683572
498,827.2016908977416
499,827.2157097319906
500,827.2300548559846
501,827.2441000098489
502,827.2572828975967
503,827.2691173733098
504,827.2792022675982
505,827.2872266495642
506,827.2929716307119
507,827.2963089998473
508,827.2971970614232
509,827.2956741234524
510,827.2918501791489
511,827.285897402307
512,827.2780400778217
513,827.2685445266483
514,827.2577094986331
515,827.2458574039298
516,827.2333266151686
517,827.2204648894664
518,827.2076237589605
519,827.1951535900886
520,827.1833989882439
521,827.1726943440775
522,827.1633595170048
523,827.1556958110685
524,827.1499824270651
525,827.1464734961294
526,827.1453957265911
527,827.1469466816594
528,827.1512936767405
529,827.1585731901515
530,827.1688906162493
531,827.1823202682186
532,827.198905719619
533,827.2186607306174
534,827.2415710569041
535,827.2675973607701
536,827.2966792360742
537,827.3287400921166
538,827.363692442265
539,827.4014430856714
540,827.4418977310132
541,827.4849647280573
542,827.530557680332
543,827.5785967479594
544,827.6290084226665
545,827.6817235863516
546,827.7366738617983
547,827.7937865820902
548,827.8529789678125
549,827.9141521761551
550,827.9771857915011
551,828.0419331899122
552,828.1082181503191
553,828.1758331131471
554,828.2445394948068
555,828.3140703473183
556,828.3841354195068
557,828.4544284158668
558,828.5246359803637
559,828.5944476296318
560,828.6635656151833
561,828.7317136918407
562,828.7986440560355
563,828.8641421253205
564,828.9280291693736
565,828.990163028868
566,829.0504373193729
567,829.1087796217175
568,829.1651491665483
569,829.2195344168695
570,829.2719507961853
571,829.3224386892887
572,829.3710617943124
573,829.4179058657278
574,829.4630777614069
575,829.5067045044933
576,829.548931926803
577,829.5899224589195
578,829.6298517286689
579,829.6689037773293
580,829.7072649105418
581,829.7451164370428
582,829.7826267329865
583,829.8199431768178
584,829.8571845564024
585,829.8944345491723
586,829.9317367848636
587,829.9690918291263
588,830.0064562239605
589,830.0437435453447
590,830.0808273475767
591,830.117545857031
592,830.1537082512029
593,830.18910222315
594,830.2235023608366
595,830.2566788271604
596,830.2884059463731
597,830.3184704557808
598,830.3466792379504
599,830.3728663063247
600,830.3968987623888
601,830.4186814436132
602,830.4381600426549
603,830.4553225774023
604,830.4701992099991
605,830.482860512112
606,830.4934143104251
607,830.5020012371813
608,830.5087891159264
609,830.5139663597065
610,830.5177346157756
611,830.5203008968144
612,830.5218693646679
613,830.5226328380047
614,830.5227640977121
615,830.5224072158541
616,830.5216693434105
617,830.5206135045744
618,830.5192529091848
619,830.5175471900416
620,830.515400872866
621,830.5126642822397
622,830.5091369632785
623,830.5045736018066
624,830.4986923895998
625,830.491185769205
626,830.4817334384481
627,830.4700173543555
628,830.4557382424279
629,830.4386328270675
630,830.418490738731
631,830.3951699317491
632,830.3686095319742
633,830.3388392906157
634,830.3059851184283
635,830.2702703922342
636,830.2320128701339
637,830.1916172294808
638,830.149563498896
639,830.1063919050839
640,830.0626848096693
641,830.0190465087326
642,829.9760817775463
643,829.9343741290709
644,829.8944647460979
645,829.8568329618818
646,829.8218790632484
647,829.7899100862461
648,829.7611291468063
649,829.73562868436
650,829.7133877977162
651,829.6942736383193
652,829.6780466176097
653,829.6643689861963
654,829.652816150942
655,829.6428899487348
656,829.6340330697328
657,829.6256439590347
658,829.6170917649656
659,829.6077311328617
660,829.5969168072437
661,829.5840181073612
662,829.5684333598396
663,829.5496042617929
664,829.5270299471402
665,829.5002803566213
666,829.4690084305744
667,829.4329606209742
668,829.3919852252567
669,829.3460380887592
670,829.2951852984621
671,829.2396025800018
672,829.179571243125
673,829.1154707312339
674,829.0477680704805
675,828.9770047195542
676,828.9037815049878
677,828.8287424950653
678,828.7525587352769
679,828.6759126677504
680,828.5994838241601
681,828.5239360948652
682,828.4499065772426
683,828.3779957353946
684,828.3087584443281
685,828.2426955180551
686,828.180245527166
687,828.1217770007391
688,828.0675813508648
689,828.0178669730307
690,827.9727549623875
691,827.9322768035862
692,827.8963742999836
693,827.8649019231366
694,827.8376316704636
695,827.8142604035944
696,827.7944195034307
697,827.7776865375176
698,827.7635985068597
699,827.7516661181504
700,827.7413884048842
701,827.7322669188984
702,827.7238187035503
703,827.7155874304764
704,827.7071524389643
705,827.6981358213261
706,827.6882079692894
707,827.677092047964
708,827.664567705207
709,827.6504740248934
710,827.6347114270579
711,827.617242064258
712,827.5980883340801
713,827.5773293479303
714,827.5550954123348
715,827.5315607009818
716,827.506934370006
717,827.4814504871781
718,827.4553573039515
719,827.4289064967836
720,827.4023429712284
721,827.3758957101013
722,827.3497700764003
723,827.3241420061157
724,827.29915455398
725,827.2749171410399
726,827.2515075748906
727,827.2289765940629
728,827.2073544262383
729,827.1866586578207
730,827.1669026262282
731,827.1481036114172
732,827.1302902330517
733,827.1135085120277
734,827.0978260539446
735,827.0833339199687
736,827.0701460358767
737,827.0583963516123
738,827.0482342456951
739,827.0398187683247
740,827.0333122280281
741,827.0288734465917
742,827.0266508694333
743,827.0267756846144
744,827.0293551414028
745,827.0344663130425
746,827.042150578326
747,827.0524090891815
748,827.0651994764319
749,827.0804340522825
750,827.0979797558134
751,827.117659990405
752,827.1392583261543
753,827.1625238483672
754,827.187177761498
755,827.2129207338851
756,827.2394404624287
757,827.2664190996313
758,827.2935404622687
759,827.3204972016028
760,827.346998249795
761,827.3727767952532
762,827.3975987381101
763,827.4212710953078
764,827.4436493878313
765,827.4646429125006
766,827.4842170552151
767,827.5023922906644
768,827.5192400240426
769,827.5348758452241
770,827.549451047366
771,827.5631433817847
772,827.5761479751166
773,827.5886691810109
774,827.6009139446243
775,827.613087039339
776,827.6253882851566
777,827.6380115805076
778,827.6511452712356
779,827.6649730821543
780,827.6796746820295
781,827.6954250681018
782,827.7123923132413
783,827.7307336455865
784,827.7505901532639
785,827.772080575836
786,827.7952947339797
787,827.8202872350978
788,827.8470721545455
789,827.8756193622978
790,827.9058530335327
791,827.9376526975324
792,827.9708569687589
793,828.0052698595371
794,828.0406693250312
795,828.0768175164642
796,828.1134721544177
797,828.1503984284172
798,828.1873808189589
799,828.2242342126793
800,828.2608136483333
801,828.2970220066053
802,828.3328149990301
803,828.3682029854835
804,828.4032494377389
805,828.4380661634013
806,828.4728056222218
807,828.5076508009824
808,828.542803188219
809,828.5784694058292
810,828.6148470309781
811,828.6521101487355
812,828.6903952658103
813,828.7297883597049
814,828.770313950638
815,828.8119270865152
816,828.8545089852665
817,828.8978667984983
818,828.9417376200603
819,828.9857965558671
820,829.0296684231987
821,829.0729424091538
822,829.1151887620335
823,829.1559763642877
824,829.1948899203969
825,829.2315455538571
826,829.2656038438357
827,829.2967796345077
828,829.3248482047577
829,829.349647617523
830,829.3710773745659
831,829.3890938780452
832,829.4037035084885
833,829.4149542370403
834,829.4229265867667
835,829.4277245563479
836,829.4294669737886
837,829.4282797322533
838,829.4242894002408
839,829.4176186465919
840,829.4083837024649
841,829.3966937517947
842,829.3826518277203
843,829.3663566147973
844,829.3479045781019
845,829.3273920476273
846,829.3049171789648
847,829.2805819364136
848,829.2544943024373
849,829.226770835138
850,829.1975395741654
851,829.166943191434
852,829.1351421767077
853,829.1023177251499
854,829.0686739056246
855,829.0344387095502
856,828.9998637283404
857,828.9652224213254
858,828.9308071140966
859,828.8969249226309
860,828.8638927140513
861,828.8320310752634
862,828.8016572086545
863,828.773076799661
864,828.746575161926
865,828.7224082208045
866,828.7007940246572
867,828.6819054548698
868,828.6658646794622
869,828.6527396934476
870,828.6425430529857
871,828.6352327225552
872,828.6307148666305
873,828.6288483669675
874,828.6294507272113
875,828.6323048384431
876,828.6371659486493
877,828.6437682175641
878,828.6518304214497
879,828.6610605911513
880,828.6711595657764
881,828.6818236278466
882,828.6927465279772
883,828.703621266809
884,828.7141419869236
885,828.7240062725922
886,828.7329180820747
887,828.7405914571232
888,828.7467550669411
889,828.7511575371291
890,828.7535733887717
891,828.7538092929155
892,828.7517102673185
893,828.7471654345585
894,828.7401130114037
895,828.7305442415986
896,828.7185059521039
897,828.7041013235998
898,828.6874884334522
899,828.6688762816158
900,828.6485183627908
901,828.6267042472462
902,828.60374986981
903,828.5799872160659
904,828.555753908499
905,828.5313829896877
906,828.5071931268762
907,828.4834795424798
908,828.4605060587658
909,828.4384985871968
910,828.4176402223187
911,828.3980679608878
912,828.3798710389009
913,828.363090902112
914,828.3477227979932
915,828.3337188822504
916,828.3209926408857
917,828.3094244150905
918,828.2988678882385
