acceleration,velocity,displacement
-0.014302317979378648,0.0,0.0
-0.014485265392129932,-7.1968958428771446e-06,-1.7992239607192863e-09
-0.014667680871643144,-1.4485132408820414e-05,-7.2197310236436754e-09
-0.014849035986792566,-2.186431162342934e-05,-1.6307092031706115e-08
-0.015028809315304675,-2.9333772948953654e-05,-2.9106613174801865e-08
-0.015206489952460048,-3.689259776589483e-05,-4.5663205853513986e-08
-0.015381581002788873,-4.4539615504707066e-05,-6.602125917116447e-08
-0.015553603010966888,-5.2273411508146005e-05,-9.022451592437774e-08
-0.0157220972613361,-6.0092336576221754e-05,-1.1831595294546969e-07
-0.015886628859369464,-6.799451810639814e-05,-1.5033766661612466e-07
-0.016046789512028176,-7.597787269924755e-05,-1.8633076431753608e-07
-0.016202199940426893,-8.404012006236131e-05,-2.2633526250793828e-07
-0.01635251187210191,-9.217879801549351e-05,-2.70389992027402e-07
-0.0164974095671854,-0.00010039127837531535,-3.185325111251042e-07
-0.016636610841329127,-0.00010867478347744398,-3.7079902658829405e-07
-0.01676986756503373,-0.0001170264030790347,-4.2722432322741373e-07
-0.016896965643504163,-0.00012544311138116916,-4.878417018424647e-07
-0.01701772450932698,-0.00013392178391937696,-5.526829256676012e-07
-0.01713199618556957,-0.0001424592140931011,-6.217781751707207e-07
-0.017239663990371145,-0.0001510521291370863,-6.951560109782676e-07
-0.017340640950497182,-0.00015969720537230338,-7.72843344605615e-07
-0.017434867973385705,-0.0001683910826032741,-8.548654165995094e-07
-0.01752231180368479,-0.0001771303775475417,-9.412457816372133e-07
-0.017602962771662563,-0.00018591169619137856,-1.0320063000719434e-06
-0.017676832334171624,-0.0001947316449678371,-1.1271671353617473e-06
-0.017743950413604204,-0.00020358684065478107,-1.226746756767402e-06
-0.017804362548834416,-0.00021247391889539074,-1.3307619466549448e-06
-0.017858126876523713,-0.00022138954125173026,-1.4392278116917251e-06
-0.017905310960730038,-0.0002303304007110437,-1.5521577971824186e-06
-0.017945988489623876,-0.00023929322557363216,-1.6695637037535874e-06
-0.01798023586193046,-0.00024827478166152076,-1.7914557055623757e-06
-0.018008128685445355,-0.0002572718727983647,-1.917842369177347e-06
-0.018029738202210627,-0.0002662813395202787,-2.048730672257008e-06
-0.01804512764793939,-0.00027530005598281617,-2.1841260211327815e-06
-0.018054348558172877,-0.00028432492503434423,-2.3240322663870717e-06
-0.018057437052578673,-0.0002933528714370321,-2.468451715504916e-06
-0.01805441015466564,-0.0003023808332388432,-2.617385141673885e-06
-0.01804526222945009,-0.00031140575133487214,-2.770831787817314e-06
-0.01802996164135644,-0.00032042455730257375,-2.9287893649766753e-06
-0.018008447746591646,-0.0003294341596495608,-3.091254044214709e-06
-0.017980628335437267,-0.000338431428670068,-3.258220441294616e-06
-0.017946377629187122,-0.00034741318016122413,-3.429681593502439e-06
-0.017905534917596926,-0.0003563761582979201,-3.6056289281172253e-06
-0.017857903902786944,-0.0003653170180030161,-3.786052222192459e-06
-0.017803252800398982,-0.0003742323071788126,-3.9709395534879166e-06
-0.017741315239091324,-0.00038311844918868516,-4.160277242579791e-06
-0.017671791990171763,-0.0003919717259960009,-4.3540497863759625e-06
-0.017594353544251214,-0.00040078826237960666,-4.552239783469865e-06
-0.017508643533061214,-0.00040956401164893476,-4.754827851977e-06
-0.017414282983828647,-0.0004182947432781572,-4.961792540708773e-06
-0.017310875397597646,-0.0004269760328735138,-5.17311023474669e-06
-0.017198012647716966,-0.0004356032548848424,-5.388755056686279e-06
-0.017075281676060188,-0.0004441715784657867,-5.608698765023936e-06
-0.016942271916451444,-0.0004526759668639146,-5.8329106513563615e-06
-0.016798583317865524,-0.00046111118067249384,-6.061357438240463e-06
-0.016643834798259614,-0.0004694717852015251,-6.294003179708968e-06
-0.016477672937969638,-0.00047775216213558243,-6.530809166543245e-06
-0.016299780710129413,-0.0004859465255476072,-6.771733838464043e-06
-0.01610988604097459,-0.0004940489422353832,-7.016732705409791e-06
-0.015907769999871698,-0.0005020533562455948,-7.265758280030035e-06
-0.015693274440872537,-0.0005099536173557808,-7.518760023430379e-06
-0.015466308947425017,-0.0005177435132028552,-7.775684306070038e-06
-0.015226856960714548,-0.0005254168046798901,-8.036474385540724e-06
-0.014974981001163425,-0.0005329672641703596,-8.301070402753288e-06
-0.014710826928795636,-0.0005403887161528494,-8.56940939783409e-06
-0.014434627230005635,-0.0005476750796925497,-8.84142534679544e-06
-0.014146703355410522,-0.0005548204123389037,-9.117049219803303e-06
-0.013847467156935814,-0.0005618189549669903,-9.396209061629776e-06
-0.013537421479281657,-0.0005686651771260447,-9.678830094653035e-06
-0.01321715995390257,-0.0005753538224843407,-9.964834844555631e-06
-0.01288736603046462,-0.0005818799539804325,-1.0254143288671825e-05
-0.01254881127023879,-0.0005882389983056084,-1.0546673026743335e-05
-0.012202352920947233,-0.0005944267893534049,-1.084233947365809e-05
-0.011848930788745987,-0.0006004396102808282,-1.1141056073566648e-05
-0.011489563414597262,-0.000606274233831664,-1.1442734534594771e-05
-0.011125343548146984,-0.00061192796057235,-1.1747285083195775e-05
-0.01075743289725018,-0.0006173986546836993,-1.2054616737009788e-05
-0.010387056121295654,-0.0006226847769383358,-1.2364637594915296e-05
-0.010015494035207092,-0.0006277854144774615,-1.2677255142769245e-05
-0.009644075997993008,-0.0006327003069857615,-1.2992376573135051e-05
-0.009274171474751005,-0.0006374298688539475,-1.3309909117094979e-05
-0.008907180784342881,-0.0006419752069187209,-1.3629760386038146e-05
-0.008544525073762972,-0.0006463381333832474,-1.3951838721113637e-05
-0.008187635589721298,-0.0006505211735491185,-1.427605354784673e-05
-0.007837942345569995,-0.0006545275680329413,-1.4602315733242245e-05
-0.007496862306547584,-0.0006583612691959707,-1.4930537942549473e-05
-0.007165787236448808,-0.0006620269315817199,-1.5260634992743896e-05
-0.00684607136232435,-0.0006655298962314132,-1.5592524199697178e-05
-0.006539019019692392,-0.0006688761688269174,-1.592612571596176e-05
-0.00624587243959638,-0.0006720723916917396,-1.6261362856091425e-05
-0.005967799831657155,-0.000675125809759553,-1.6598162406454248e-05
-0.005705883904272265,-0.0006780442306935353,-1.693645491656752e-05
-0.005461110947072757,-0.0006808359794063715,-1.7276174969092497e-05
-0.005234360589525047,-0.000683509847290521,-1.761726142576672e-05
-0.0050263963496608504,-0.0006860750365253175,-1.795965764672068e-05
-0.004837857092498198,-0.0006885410998858573,-1.830331168082347e-05
-0.004669249512063922,-0.0006909178765369978,-1.8648176424929185e-05
-0.004520941724986931,-0.0006932154243462606,-1.899420975015e-05
-0.004393158026905046,-0.0006954439492842336,-1.9341374593557623e-05
-0.004285974834075298,-0.0006976137324994786,-1.968963901400355e-05
-0.004199317822073961,-0.000699735055663516,-2.00389762110443e-05
-0.004132960278333575,-0.0007018181251886178,-2.0389364506257332e-05
-0.004086522694362563,-0.0007038729959317918,-2.0740787286537433e-05
-0.004059473625933534,-0.0007059094950118658,-2.109323290927335e-05
-0.004051131840842338,-0.0007079371463785598,-2.1446694569620956e-05
-0.004060669758402601,-0.000709965096778371,-2.1801170130410187e-05
-0.004087118172537068,-0.000712002043761106,-2.2156661915545056e-05
-0.004129372246942561,-0.0007140561663659758,-2.2513176468076825e-05
-0.004186198769734682,-0.0007161350591201451,-2.2870724274448355e-05
-0.004256244640388194,-0.0007182456699726758,-2.322931945672156e-05
-0.004338046523840795,-0.000720394242763733,-2.358897943490566e-05
-0.004430041550972729,-0.0007225862647824364,-2.3949724561792205e-05
-0.004530578888966803,-0.0007248264198924213,-2.431157773296092e-05
-0.0046379319701450065,-0.0007271185476071993,-2.4674563974835824e-05
-0.004750311164359591,-0.0007294656083908255,-2.503871001383533e-05
-0.004865876702530296,-0.000731869655357548,-2.5404043829772422e-05
-0.0049827516917034225,-0.0007343318124561064,-2.5770594196725835e-05
-0.005099035093187783,-0.0007368522591523291,-2.6138390214627943e-05
-0.0052128145644999725,-0.0007394302215667511,-2.6507460834807714e-05
-0.005322179099260479,-0.0007420639699826912,-2.6877834382695074e-05
-0.005425231436741734,-0.0007447508226166917,-2.724953808084492e-05
-0.005520100243939997,-0.0007474871555368622,-2.762259757538331e-05
-0.005604952087093457,-0.0007502684186196205,-2.799703646892243e-05
-0.005678003207413249,-0.0007530891574432472,-2.8372875862938145e-05
-0.005737531104774917,-0.0007559430410212942,-2.875013391255428e-05
-0.005781885917687719,-0.0007588228952769099,-2.9128825396628832e-05
-0.005809501568514754,-0.0007617207421484605,-2.9508961305985175e-05
-0.005818906620793269,-0.0007646278441957875,-2.9890548452571238e-05
-0.0058087347712421425,-0.0007675347545437964,-3.0273589102256132e-05
-0.005777734873941224,-0.0007704313719550923,-3.0658080633880856e-05
-0.00572478037312133,-0.0007733070007668579,-3.104401522706134e-05
-0.005648878009289764,-0.0007761504153624607,-3.143137958109367e-05
-0.0055491756616933355,-0.0007789499287802064,-3.182015466712934e-05
-0.005424969194030791,-0.0007816934649941375,-3.221031551557293e-05
-0.00527570817773334,-0.0007843686343370784,-3.260183104040573e-05
-0.005101000380372324,-0.0007869628114766049,-3.299466390185915e-05
-0.004900614929101735,-0.0007894632153039733,-3.338877040855429e-05
-0.004674484089513515,-0.0007918569900586272,-3.378410045989494e-05
-0.004422703635170643,-0.0007941312869897982,-3.418059752915705e-05
-0.004145531821038386,-0.0007962733458538505,-3.457819868736796e-05
-0.003843387013552901,-0.0007982705755624983,-3.497683466772205e-05
-0.003516844064610249,-0.0008001106333320391,-3.537642996994568e-05
-0.0031666295357686215,-0.0008017815017321338,-3.577690300371173e-05
-0.0027936158768436057,-0.0008032715630852869,-3.617816626991608e-05
-0.0023988146459958636,-0.0008045696707159967,-3.65801265783664e-05
-0.0019833688409372037,-0.00080566521658773,-3.698268530019233e-05
-0.0015485444042074592,-0.0008065481948990161,-3.7385738653064016e-05
-0.0010957209710660235,-0.0008072092612428345,-3.778917801709948e-05
-0.0006263819398756893,-0.00080763978697057,-3.819289027915283e-05
-0.00014210395435775402,-0.0008078319084441284,-3.8596758203006504e-05
0.00035545410771131334,-0.00080777857090579,-3.900066082284398e-05
0.0008645625395516045,-0.0008074735667439742,-3.940447385725642e-05
0.0013834324938846738,-0.0008069115679856151,-3.980807014093882e-05
0.0019102278315696326,-0.0008060881529042516,-4.021132007116129e-05
0.0024430769998238745,-0.0008049998266964032,-4.0614092066061454e-05
0.0029800848118781984,-0.0008036440362434777,-4.1016253031796425e-05
0.003519344007543632,-0.0008020191790386222,-4.141766883561695e-05
0.004058946482253262,-0.000800124606416173,-4.181820478198065e-05
0.004596994083792278,-0.0007979606212746616,-4.221772608890336e-05
0.005131608898202611,-0.0007955284705291629,-4.261609836185431e-05
0.005660942978664155,-0.0007928303325599463,-4.301318806262659e-05
0.006183187502698319,-0.0007898692999396057,-4.340886297075148e-05
0.006696581363721095,-0.0007866493577230009,-4.380299263516713e-05
0.007199419211306492,-0.000783175357579244,-4.419544881399269e-05
0.007690058953447672,-0.0007794529880380555,-4.4586105900397016e-05
0.008166928728930262,-0.000775488741117461,-4.497484133268589e-05
0.008628533353657954,-0.0007712898755968139,-4.536153598686446e-05
0.009073460242506597,-0.0007668643771977727,-4.57460745500631e-05
0.009500384803454694,-0.0007622209159362824,-4.6128345873346615e-05
0.009908075291584394,-0.0007573688009125226,-4.6508243302558814e-05
0.010295397101377427,-0.0007523179328142822,-4.688566498599052e-05
0.01066131647133225,-0.0007470787544211048,-4.726051415779936e-05
0.011004903576964717,-0.0007416621994090305,-4.76326993962569e-05
0.011325334994932466,-0.0007360796397660563,-4.800213485605067e-05
0.011621895530749419,-0.0007303428321346358,-4.836874047402584e-05
0.011893979414327802,-0.0007244638633983664,-4.873244214790909e-05
0.01214109087917511,-0.0007184550958249907,-4.909317188771493e-05
0.012362844146343099,-0.0007123291120686112,-4.945086793968833e-05
0.012558962828178886,-0.0007060986603249806,-4.980547488278673e-05
0.01272927875257436,-0.0006997765999297923,-5.015694369785042e-05
0.012873730196217818,-0.0006933758476925943,-5.0505231809756014e-05
0.012992359514124361,-0.0006869093252650087,-5.085030310299542e-05
0.013085310162896347,-0.0006803899078457535,-5.1192127911273106e-05
0.013152823129772452,-0.0006738303745225864,-5.153068298186519e-05
0.013195232792749966,-0.0006672433605419558,-5.186595141563133e-05
0.013212962248602321,-0.0006606413117816177,-5.219792258371222e-05
0.013206518156868002,-0.0006540364416802501,-5.252659202207769e-05
0.013176485158466018,-0.0006474406908514165,-5.2851961305210604e-05
0.013123519938403098,-0.0006408656895771993,-5.317403790031776e-05
0.013048345014096144,-0.0006343227233390745,-5.349283500354683e-05
0.012951742341854163,-0.000627822701500087,-5.380837135975662e-05
0.01283454683980475,-0.0006213761292046722,-5.4120671067432814e-05
0.012697639923343284,-0.0006149930825138852,-5.442976337036245e-05
0.012541943137127289,-0.0006086831867487677,-5.4735682437678115e-05
0.01236841194450523,-0.0006024555979783595,-5.50384671338599e-05
0.012178029703333608,-0.0005963189875663998,-5.533816078024609e-05
0.011971801822998129,-0.0005902815296848169,-5.563481090955889e-05
0.011750750070959872,-0.0005843508917113274,-5.592846901490793e-05
0.011515906987561992,-0.0005785342274466969,-5.621919029469744e-05
0.011268310379441163,-0.0005728381731049462,-5.650703339483535e-05
0.011008997889134618,-0.0005672688460378022,-5.679206014962104e-05
0.01073900166889547,-0.0005618318461482947,-5.707433532266756e-05
0.010459343209016474,-0.0005565322599288167,-5.7353926349186836e-05
0.010171028382719034,-0.0005513746670308829,-5.763090308092676e-05
0.009875042776243865,-0.0005463631492411421,-5.790533753499477e-05
0.009572347380519722,-0.0005415013017019512,-5.8177303647730544e-05
0.009263874729859338,-0.0005367922461743564,-5.844687703469962e-05
0.008950525577784864,-0.0005322386460974454,-5.8714134757767574e-05
0.00863316619319223,-0.0005278427231547011,-5.897915510008061e-05
0.008312626339819686,-0.0005236062750214481,-5.9242017349624646e-05
0.007989697973031841,-0.0005195306939432353,-5.9502801591865815e-05
0.007665134656181749,-0.0005156169857859318,-5.9761588511798104e-05
0.007339651668730497,-0.0005118657892047038,-6.001845920554576e-05
0.007013926751685072,-0.0005082773945995999,-6.0273495001496834e-05
0.006688601413666266,-0.000504851762558262,-6.05267772907863e-05
0.00636428270594381,-0.0005015885415283596,-6.0778387366807955e-05
0.006041545369682841,-0.0004984870845094529,-6.102840627331741e-05
0.0057209342629899506,-0.0004955464646012847,-6.12769146605951e-05
0.005402966985560315,-0.0004927654892891471,-6.152399264906771e-05
0.0050881366314579615,-0.0004901427133848926,-6.176971969973622e-05
0.004776914611692874,-0.00048767645057410487,-6.201417449072597e-05
0.004469753495006212,-0.0004853647835474301,-6.225743479925634e-05
0.0041670898191036535,-0.0004832055727189026,-6.249957738832293e-05
0.003869346827602514,-0.00048119646355722606,-6.274067789739196e-05
0.003576937087151012,-0.00047933489257853765,-6.298081073642591e-05
0.003290264929615479,-0.00047761809207434605,-6.322004898258912e-05
0.0030097286477190083,-0.0004760430936800124,-6.345846427902771e-05
0.0027357223582595244,-0.0004746067309285178,-6.369612673517984e-05
0.002468637442709583,-0.0004733056409782755,-6.393310482815654e-05
0.0022088634800150283,-0.00047213626574759435,-6.416946530483801e-05
0.0019567885966783644,-0.000471094852728421,-6.440527308445702e-05
0.0017127991755271274,-0.00047017745578536963,-6.464059116158547e-05
0.0014772788916291065,-0.0004693799362685806,-6.487548050959895e-05
0.0012506070811309522,-0.00046869796477539056,-6.510999998485995e-05
0.0010331564878541732,-0.00046812702388314425,-6.534420623202458e-05
0.0008252904630396342,-0.0004676624121454208,-6.557815359103173e-05
0.0006273597107647894,-0.0004672992496019697,-6.581189400646857e-05
0.00043969867709094015,-0.00046703248500500576,-6.604547694012031e-05
0.0002626216801135972,-0.00046685690491570463,-6.627894928760049e-05
9.641887409799727e-05,-0.00046676714477715173,-6.65123553000237e-05
-5.864786534607446e-05,-0.00046675770202496376,-6.674573651172423e-05
-0.0002023490577254583,-0.00046682295125573167,-6.697913167504441e-05
-0.00033449167263609067,-0.00046695716143832207,-6.721257670321793e-05
-0.0004549230786334668,-0.00046715451512613945,-6.744610462235904e-05
-0.0005635348594236234,-0.0004674091296106537,-6.767974553354324e-05
-0.0006602664803326523,-0.0004677150799455928,-6.79135265859323e-05
-0.000745108782008406,-0.00046806642376117806,-6.8147471961859e-05
-0.0008181072571981448,-0.0004684572277709797,-6.838160287474204e-05
-0.0008793650396306203,-0.00046888159584518687,-6.861593758064608e-05
-0.0009290455124926039,-0.00046933369848321766,-6.885049140422817e-05
-0.0009673744332369951,-0.00046980780346965006,-6.90852767797164e-05
-0.0009946414748654845,-0.00047029830744667566,-6.932030330744548e-05
-0.00101120110330835,-0.00047079976809121914,-6.955557782632995e-05
-0.0010174727406268816,-0.00047130693655220293,-6.97911045024908e-05
-0.001013940192505639,-0.00047181478978548607,-7.002688493407522e-05
-0.0010011503373420557,-0.000472318562417948,-7.026291827212608e-05
-0.0009797110851290309,-0.00047281377777356575,-7.049920135717395e-05
-0.0009502886231055853,-0.00047329627770062443,-7.073572887104251e-05
-0.0009136039752542381,-0.0004737622508502144,-7.097249350318021e-05
-0.0008704289149332375,-0.00047420825907276123,-7.120948613066096e-05
-0.0008215812833771307,-0.0004746312616223388,-7.144669601083473e-05
-0.0007679197792905432,-0.0004750286368880057,-7.168411098546232e-05
-0.0007103382954559524,-0.00047539820140669235,-7.192171769503599e-05
-0.0006497598864704677,-0.000475738225952174,-7.21595018018757e-05
-0.000587130454753714,-0.00047604744853748,-7.239744822049812e-05
-0.0005234122399427923,-0.00047632508421115415,-7.263554135368528e-05
-0.00045957719419604387,-0.00047657083156968887,-7.287376533263049e-05
-0.0003966003258575761,-0.00047678487594970227,-7.311210425951034e-05
-0.00033545309679216515,-0.0004769678893053647,-7.335054245082411e-05
-0.00027709696303432904,-0.00047712102682032136,-7.358906467985552e-05
-0.00022247714937781915,-0.00047724592034842437,-7.38276564166477e-05
-0.0001725167378643379,-0.0004773446688202349,-7.406630406393987e-05
-0.00012811112851491494,-0.00047741982578682974,-7.430499518759164e-05
-9.012290975958196e-05,-0.00047747438429639834,-7.454371874011244e-05
-5.937716535212363e-05,-0.00047751175931517624,-7.478246527601534e-05
-3.665724103693975e-05,-0.0004775357679167735,-7.502122715782333e-05
-2.2700986999077974e-05,-0.00047755060747378247,-7.525999875167096e-05
-1.8197474319056293e-05,-0.000477560832089112,-7.549877661156168e-05
-2.378415935904353e-05,-0.0004775713274975315,-7.573755965145834e-05
-4.0044452788420925e-05,-0.0004775872846505684,-7.597634930449537e-05
-6.750565027711255e-05,-0.0004776141721763348,-7.621514966870209e-05
-0.00010663719659053336,-0.0004776577078880517,-7.645396763871818e-05
-0.0001578492728487165,-0.0004777238295054115,-7.669281302306654e-05
-0.00022149171188608677,-0.0004778186647515952,-7.69316986466308e-05
-0.0002978532570922438,-0.0004779485009938398,-7.717064043806716e-05
-0.0003871611826670695,-0.00047811975460377963,-7.740965750196656e-05
-0.0004895812847160076,-0.0004783389402206254,-7.764877217567266e-05
-0.0006052182364179849,-0.0004786126401009089,-7.788801007075304e-05
-0.0007341162842908263,-0.0004789474737310861,-7.812740009921104e-05
-0.0008762602521593276,-0.0004793500678651987,-7.836697448461011e-05
-0.001031576813130638,-0.00047982702713152115,-7.86067687583593e-05
-0.0011999359824405975,-0.000480384905330414,-7.884682174147478e-05
-0.0013811527783948235,-0.00048103017752062284,-7.908717551218753e-05
