frame_number,force
0,512.4904800000277
1,512.2124050379488
2,511.94642001690596
3,511.70325730068856
4,511.49119530148596
5,511.31539369956977
6,511.17769830368917
7,511.07684392335204
8,511.00893207366767
9,510.9680629163635
10,510.94703550637183
11,510.9380701367258
12,510.9335245768509
13,510.9265654260901
14,510.9117376374173
15,510.8853708119191
16,510.84576974166407
17,510.7931528917904
18,510.729333417152
19,510.65719130635307
20,510.5800472770825
21,510.50108036505645
22,510.42290311525613
23,510.347335105867
24,510.2753450436585
25,510.20710559549485
26,510.1421272191793
27,510.07947070616075
28,510.0180402790343
29,509.95692661804827
30,509.89573773532965
31,509.8348530939617
32,509.7755555297949
33,509.72001567949513
34,509.67112125172974
35,509.63216929926074
36,509.60647286346557
37,509.5969557650047
38,509.605806982806
39,509.6342438468535
40,509.68240561784245
41,509.7493750398516
42,509.8333047230574
43,509.93160645154217
44,510.04115194980176
45,510.1584433163524
46,510.2797382818325
47,510.4011442422352
48,510.51870991379315
49,510.6285373644677
50,510.72691420808314
51,510.8104430384655
52,510.87614269065523
53,510.92151729975376
54,510.9446187630241
55,510.94414367926316
56,510.91958951705544
57,510.8714477579454
58,510.8013617946871
59,510.7121602968897
60,510.60770919365604
61,510.4925950353697
62,510.37172211261696
63,510.2499320598007
64,510.13172372053384
65,510.02109457384694
66,509.92148646714696
67,509.83580476106476
68,509.7664672713189
69,509.71542238299327
70,509.6840821855911
71,509.6731634025292
72,509.68248801788536
73,509.7108213233725
74,509.7558065545497
75,509.8140195160681
76,509.8811413834425
77,509.9522403266747
78,510.02215361136825
79,510.0859570045732
80,510.1394904928049
81,510.17988302499185
82,510.20599332418885
83,510.21866849782344
84,510.22073095560035
85,510.2166506330131
86,510.21193814957877
87,510.2123691203015
88,510.22317860299256
89,510.24834280100634
90,510.2900273903683
91,510.34825716663715
92,510.42084450607774
93,510.50358613775416
94,510.59069749254763
95,510.67541659630945
96,510.75068986625115
97,510.80985227120647
98,510.8472255295538
99,510.8585746933882
100,510.84138636229835
101,510.7949582037493
102,510.7203133315596
103,510.6199709780348
104,510.49761617595095
105,510.3577207000352
106,510.20517833032943
107,510.04501494276064
108,509.8822020110042
109,509.72155598315345
110,509.56767964108303
111,509.42490611569514
112,509.2972244266685
113,509.1881812938472
114,509.10076561581207
115,509.0372881443842
116,508.99926504478384
117,508.9873051582709
118,509.00100161502866
119,509.0388450650374
120,509.0981960911515
121,509.1753609742075
122,509.2657995890012
123,509.3644586841903
124,509.46617931898294
125,509.56609628899736
126,509.6599530038333
127,509.7442962244313
128,509.8165610951669
129,509.8750794951988
130,509.91904201552177
131,509.94843122706305
132,509.9639344741954
133,509.96684219012417
134,509.95894024000046
135,509.9424062822739
136,509.9197130112738
137,509.8935244923421
138,509.8665595602068
139,509.84140372269206
140,509.8202754015049
141,509.8047776464854
142,509.7956790499517
143,509.7927626688702
144,509.794767102308
145,509.79943494181515
146,509.803684001857
147,509.803909622587
148,509.7963992511339
149,509.77780681985223
150,509.7456164472328
151,509.69852514983734
152,509.636683830661
153,509.56175851180643
154,509.476815807532
155,509.38608155913437
156,509.2946378454143
157,509.20809910356894
158,509.1322644290696
159,509.0727131851276
160,509.03431462499697
161,509.02066312780937
162,509.033514655929
163,509.0723500464709
164,509.13419091493887
165,509.21374487235516
166,509.3038837850913
167,509.3963792212651
168,509.48275234259637
169,509.5550758377779
170,509.6066072996638
171,509.6322071452773
172,509.6285592288707
173,509.59424859527
174,509.52975271351966
175,509.43737297495295
176,509.321094104274
177,509.1863433684405
178,509.0396403520198
179,508.8881583115624
180,508.7392310946166
181,508.5998348377654
182,508.47607259360115
183,508.3727012471289
184,508.29274959850477
185,508.2372729063735
186,508.2052735768157
187,508.19379226826095
188,508.19814752301653
189,508.21229554411985
190,508.2292995832406
191,508.24191380343194
192,508.2432739138798
193,508.2276544457291
194,508.191222976547
195,508.13269794036086
196,508.0537905982827
197,507.95929679212804
198,507.8567339190443
199,507.75550706565986
200,507.6657060059354
201,507.59673063311976
202,507.555980939547
203,507.5478276823237
204,507.5730246856073
205,507.62865276111256
206,507.708598505501
207,507.8044692605483
208,507.90675414525333
209,508.00599957642044
210,508.093794542087
211,508.16343957709864
212,508.2102672775757
213,508.231659275288
214,508.2268506309408
215,508.1966243255004
216,508.14297877813846
217,508.0688173984184
218,507.97768483323534
219,507.8735643260934
220,507.76073891159973
221,507.6436962788937
222,507.52703203586816
223,507.4152968265186
224,507.3127527048943
225,507.22305185504206
226,507.1489043425215
227,507.0918264301743
228,507.05203541025924
229,507.0284986240842
230,507.0190981287093
231,507.0208624554468
232,507.0302292929015
233,507.0433190296789
234,507.0562162488827
235,507.0652700954122
236,507.0674198654664
237,507.0605239556605
238,507.04363603607953
239,507.0171578945689
240,506.98281694174705
241,506.9434591893329
242,506.90269233425045
243,506.8644394954301
244,506.8324710262743
245,506.80997971295955
246,506.79925833749286
247,506.8015228875052
248,506.81689686299717
249,506.844541953321
250,506.88290079671356
251,506.93000910015996
252,506.9838296895455
253,507.04256131430424
254,507.1048851443324
255,507.17012333412146
256,507.2382865252936
257,507.30999136599803
258,507.3862531305554
259,507.4681992202959
260,507.55678250242863
261,507.65257643880113
262,507.7557053117993
263,507.86592035758343
264,507.98279165845565
265,508.105950585404
266,508.2352958171063
267,508.37108266500235
268,508.513857461108
269,508.66425983807335
270,508.82276260617937
271,508.9894279280582
272,509.1637335194093
273,509.34448412085777
274,509.52979204420194
275,509.7171015801131
276,509.9032476269128
277,510.08456306262735
278,510.25706005841903
279,510.41669498106205
280,510.559689986264
281,510.6828523928766
282,510.78383334127705
283,510.8613001985103
284,510.9150341548498
285,510.9459773170081
286,510.95623471097707
287,510.94900182005387
288,510.9283688119141
289,510.8989722178455
290,510.86551897721665
291,510.8322672654427
292,510.8025823038487
293,510.7786782110982
294,510.76161037219913
295,510.7515123986185
296,510.7480065538057
297,510.7506811436299
298,510.75952085029337
299,510.77518075281483
300,510.7990140496462
301,510.8328137411381
302,510.8783085530085
303,510.93653308883773
304,511.0072341751947
305,511.0884633678364
306,511.1764515393572
307,511.26578985450675
308,511.34987852128444
309,511.42157326287924
310,511.47395888249787
311,511.5011802186519
312,511.4992412681629
313,511.4666569730694
314,511.40484012582067
315,511.3181447933054
316,511.21355623005877
317,511.10008444577426
318,510.98796063674774
319,510.88775032769064
320,510.809488932506
321,510.7619175028537
322,510.751861574915
323,510.78377540029186
324,510.859474083011
325,510.9780793155267
326,511.13618858268586
327,511.32824225804427
328,511.5470279374986
329,511.78424543609805
330,512.0310608779423
331,512.2785965316381
332,512.5183335704866
333,512.7424463316208
334,512.9441175075885
335,513.1178745522204
336,513.2599370182103
337,513.3685082633177
338,513.4439219825231
339,513.4885762758843
340,513.5066475097119
341,513.5036518902695
342,513.4859695945241
343,513.4604257909976
344,513.4339546988073
345,513.4133139336132
346,513.4047946518632
347,513.4138822364462
348,513.4448562279423
349,513.5003695281486
350,513.5810940653779
351,513.6855389485557
352,513.8101249744434
353,513.9495399737059
354,514.0973258665917
355,514.2465911540341
356,514.390719911238
357,514.5239631917381
358,514.6418447411384
359,514.7413673501204
360,514.8210358090278
361,514.8807067455315
362,514.9212632971004
363,514.9441303394796
364,514.9506961074215
365,514.9417540370317
366,514.9170923284538
367,514.8753370350861
368,514.8141135824249
369,514.7305380430564
370,514.62197888685
371,514.4869486345923
372,514.3259253336666
373,514.1419049587852
374,513.9405521379477
375,513.7299126771634
376,513.5197410861006
377,513.320564601227
378,513.1426417732165
379,512.994968431863
380,512.8844466250014
381,512.815289779951
382,512.7887044661678
383,512.8028610237595
384,512.8531352447268
385,512.932570891736
386,513.0324870653349
387,513.1431541910977
388,513.2544927737505
389,513.3567810290066
390,513.4413584919997
391,513.501286243647
392,513.5318982348668
393,513.53117215583
394,513.4998653482562
395,513.441390761057
396,513.361435443108
397,513.2673470529018
398,513.1673409784453
399,513.0696123035177
400,512.9814574620923
401,512.9085069001704
402,512.8541504649003
403,512.8192187040827
404,512.8019671944961
405,512.798384790557
406,512.8028039289842
407,512.8087402412689
408,512.8098464457443
409,512.80084425762
410,512.7782995892533
411,512.7411305072071
412,512.6907851718171
413,512.6310840966974
414,512.5677599620152
415,512.507741979793
416,512.458246367847
417,512.4257710990248
418,512.4151360419723
419,512.42872477563
420,512.4660553222469
421,512.5237422036032
422,512.5958333096548
423,512.6744420233564
424,512.7505726661013
425,512.8150497221518
426,512.8594771376125
427,512.8771555014135
428,512.8638783773229
429,512.8185202594651
430,512.7433215959554
431,512.6437893821229
432,512.5281821630481
433,512.4066259162847
434,512.2899819266108
435,512.1886329483975
436,512.1113597913528
437,512.0644543107705
438,512.0511698271958
439,512.0715508672765
440,512.1226151257566
441,512.198804629812
442,512.2926063961903
443,512.3952600683081
444,512.4974916999961
445,512.5902233953692
446,512.6652115784021
447,512.7155670393904
448,512.7361145786639
449,512.7235706151687
450,512.6765532992697
451,512.5954753236446
452,512.4823911044721
453,512.3408729151953
454,512.175967417593
455,511.99422641042025
456,511.80372943003
457,511.61396660776836
458,511.43546408843537
459,511.2791037721606
460,511.1551783211518
461,511.07230145951945
462,511.0363481197256
463,511.0496199543426
464,511.110408447118
465,511.2130548800279
466,511.3485003843518
467,511.50521923598814
468,511.67036936938484
469,511.8309840587392
470,511.975055274106
471,512.0924083307762
472,512.1753279963477
473,512.2189483586783
474,512.2214388272234
475,512.1840066183181
476,512.1107181097237
477,512.0081358180258
478,511.8847731804172
479,511.75038765931754
480,511.61516655705776
481,511.48888990732587
482,511.38015611122177
483,511.29573231121145
484,511.2400668337362
485,511.21499036957596
486,511.219634307308
487,511.25059627104986
488,511.30236782589776
489,511.3680000979416
490,511.43993070281454
491,511.51085199143955
492,511.57448507371856
493,511.62614379932205
494,511.66302336253506
495,511.6842137793997
496,511.6904933920249
497,511.683978149727
498,511.66768913619455
499,511.6450823845198
500,511.6195884739958
501,511.5942276348673
502,511.57136643852215
503,511.5526467049038
504,511.53906450307176
505,511.53113837201744
506,511.5290906372517
507,511.5329672265367
508,511.54264462690907
509,511.5577260559831
510,511.57739326289254
511,511.6003132152883
512,511.62467488817515
513,511.64836599478986
514,511.66923458385116
515,511.68535200292746
516,511.69520808822585
517,511.6978054168407
518,511.6926554885253
519,511.67970858613234
520,511.6592644689641
521,511.63190300279757
522,511.59844628734766
523,511.5599400003414
524,511.5176414362238
525,511.47301640756274
526,511.42774822673425
527,511.38374119003635
528,511.34308456467136
529,511.307956044953
530,511.28047892431675
531,511.2625756497017
532,511.2558584129542
533,511.26156601160073
534,511.28051953544457
535,511.31305523398294
536,511.35891435554004
537,511.4171166566089
538,511.48588356033713
539,511.5626751691544
540,511.6443597966876
541,511.7274737079787
542,511.8084867502525
543,511.8839900182892
544,511.9507693619893
545,512.005801058811
546,512.0462575589343
547,512.0696030482687
548,512.073796815077
549,512.0575562965759
550,512.0206046891605
551,511.963839839539
552,511.8893830969495
553,511.8004815977835
554,511.7012529435075
555,511.5962904060668
556,511.49018536707104
557,511.3870535335721
558,511.2901607867889
559,511.2017316967189
560,511.12298563377874
561,511.05438186831134
562,510.9959861340273
563,510.947833897398
564,510.9101838742325
565,510.88361434223845
566,510.86897404066883
567,510.8672314374302
568,510.87927262524914
569,510.9056922177685
570,510.9466103770589
571,511.0015358662849
572,511.0692847262617
573,511.1479570334258
574,511.2349644617689
575,511.3270929556995
576,511.4205935304214
577,511.5113199513181
578,511.59494731689495
579,511.66728878393167
580,511.724690493924
581,511.7644533230192
582,511.78521541775274
583,511.7872266793278
584,511.7724500119834
585,511.74443658409734
586,511.70795375802237
587,511.6684026952027
588,511.6311324340073
589,511.6007996231735
590,511.5809121012918
591,511.5736381095316
592,511.57988478558946
593,511.59957588323414
594,511.6320186895571
595,511.67625917907526
596,511.7313648220288
597,511.79660953605946
598,511.87154582326156
599,511.955950963458
600,512.049653122809
601,512.1522784680552
602,512.2629873573397
603,512.3802702378972
604,512.5018550790829
605,512.6247492609904
606,512.7454124293287
607,512.8600425101233
608,512.9649506395787
609,513.056984388238
610,513.1339284059036
611,513.1947954334736
612,513.2399436240812
613,513.2710025996425
614,513.2906301250185
615,513.3021479575817
616,513.3091252874115
617,513.3149846469721
618,513.3226882856759
619,513.3345266884671
620,513.3519946726012
621,513.3757269274446
622,513.4054802643664
623,513.4401761236606
624,513.4780268489693
625,513.5167511118925
626,513.5538508427941
627,513.5868995298458
628,513.6137959195689
629,513.6329613888593
630,513.6434802155046
631,513.6451836859928
632,513.6386698910744
633,513.6252512267378
634,513.6068371381397
635,513.5857766067054
636,513.5646870685674
637,513.5462847929841
638,513.5332219455765
639,513.5279367570425
640,513.5325286405103
641,513.5486708030462
642,513.577568087026
643,513.619958442248
644,513.6761414609907
645,513.7460005685665
646,513.8289778444952
647,513.9239712563387
648,514.0291522189476
649,514.1417393318401
650,514.257803060661
651,514.3722005859177
652,514.4787308438285
653,514.570551894512
654,514.6408311665809
655,514.683528387106
656,514.6941671049718
657,514.6704506187635
658,514.6126167160776
659,514.5234821485868
660,514.408184868108
661,514.273680310679
662,514.1280800223011
663,513.9799309064323
664,513.8375213697863
665,513.7082749173265
666,513.5982648912143
667,513.5118659966331
668,513.4515513631075
669,513.4178396538214
670,513.4093849478473
671,513.4231890979393
672,513.4549170186594
673,513.4993052429041
674,513.5506505172027
675,513.6033379974089
676,513.6523340527455
677,513.6935550402034
678,513.7240454651939
679,513.7419463485326
680,513.7462857279767
681,513.7366624904348
682,513.7129140664111
683,513.6748545644731
684,513.6221453294066
685,513.5543228621403
686,513.4709723495845
687,513.3720110223961
688,513.2580335807959
689,513.1306600093949
690,512.9928121735935
691,512.8488429239962
692,512.7044587961069
693,512.5664111086554
694,512.441975093338
695,512.3382862461339
696,512.2616411658446
697,512.2168767607147
698,512.2069109014192
699,512.2324746096006
700,512.2920165849163
701,512.3817379494808
702,512.4957303131014
703,512.626234346311
704,512.7640714294639
705,512.8992861931807
706,513.0219722986243
707,513.1231822748259
708,513.1957875228068
709,513.2351626254156
710,513.2395992145958
711,513.2103932774027
712,513.1515966631508
713,513.0694791493627
714,512.971793696684
715,512.866953026197
716,512.7632129836966
717,512.6679406293333
718,512.5870376121084
719,512.5245815544549
720,512.4827198665193
721,512.4618005437616
722,512.4606738183921
723,512.4770720511929
724,512.5079872067907
725,512.550004716365
726,512.5995846786308
727,512.6532839384846
728,512.7079021251874
729,512.7605385095151
730,512.8085671297381
731,512.8495605466256
732,512.8812081090874
733,512.9012799847978
734,512.9076818610035
735,512.898623816633
736,512.8728879771946
737,512.8301346473309
738,512.7711626655932
739,512.698051857421
740,512.6141465801794
741,512.5238631912787
742,512.432321137235
743,512.3448296913623
744,512.2663152841985
745,512.2008158937011
746,512.1511593616545
747,512.1188790715273
748,512.1043419570071
749,512.1070114878717
750,512.1257549141878
751,512.1591199441237
752,512.2055359126771
753,512.2634219405074
754,512.3311955088177
755,512.4071731981875
756,512.4893673720503
757,512.5752247354443
758,512.6613995663943
759,512.743661314934
760,512.8169910120281
761,512.8758576155811
762,512.9146265551179
763,512.9280471616086
764,512.9117706970172
765,512.8628478965647
766,512.7801463210174
767,512.6646216960202
768,512.5193804753433
769,512.3494919140244
770,512.1615512888037
771,511.96305158904914
772,511.7616672769509
773,511.56456869325814
774,511.3778630624768
775,511.2062144706843
776,511.05265597659974
777,510.91858470956487
778,510.8039205935092
779,510.70740031100337
780,510.62696326021194
781,510.560166689735
782,510.5045541997086
783,510.45791036932576
784,510.41836860399735
785,510.38438575840246
786,510.3546337422744
787,510.3278729880076
788,510.30286894277884
789,510.278395632424
790,510.25333863803286
791,510.2268704360088
792,510.1986437022323
793,510.16894447846687
794,510.1387568421357
795,510.10970001659206
796,510.08381300252614
797,510.06319460375033
798,510.04955290685433
799,510.0437547975094
800,510.045476666238
801,510.0530417168289
802,510.0634935162943
803,510.0729062172921
804,510.07687804082326
805,510.0711100439051
806,510.0519549137324
807,510.0168413593966
808,509.96452464143385
809,509.89515176505876
810,509.81015172384343
811,509.7119883336814
812,509.60385311324103
813,509.48939940812187
814,509.3725955714522
815,509.2577067787053
816,509.14933834059315
817,509.0524354468879
818,508.9721583122285
819,508.91361654755605
820,508.8815075157183
821,508.8797310612797
822,508.9110459172462
823,508.9768038032283
824,509.0767627852962
825,509.2089635911587
826,509.3696665316981
827,509.55338229190596
828,509.75305551208015
829,509.960452343329
830,510.16676464499426
831,510.3633905081189
832,510.54279544135454
833,510.6993107371272
834,510.82970603960126
835,510.93340684121523
836,511.01231369938694
837,511.07028204007497
838,511.11239579343726
839,511.14419061391504
840,511.1709527559706
841,511.1971583911147
842,511.2260584463005
843,511.25938455106086
844,511.29716079510484
845,511.33763690199004
846,511.3773810652432
847,511.4115666430911
848,511.43446020038664
849,511.44007932440155
850,511.42294360265043
851,511.37880789784487
852,511.3052672095711
853,511.202154017246
854,511.0716830657455
855,510.9183228224257
856,510.7484008367297
857,510.56948981056416
858,510.3896623329773
859,510.216726907263
860,510.0575498471781
861,509.9175271053409
862,509.8002197777984
863,509.70713560703797
864,509.6376422213896
865,509.5890284856638
866,509.556756329669
867,509.5349316011656
868,509.5169619113667
869,509.4962963888215
870,509.46710965298644
871,509.4248253475335
872,509.36644813689924
873,509.2907374918005
874,509.1982754598493
875,509.09145063718154
876,508.9743325432091
877,508.85238694879337
878,508.7320041330905
879,508.61986558935627
880,508.5222282093032
881,508.4442306204356
882,508.3893186522885
883,508.3588615600579
884,508.3520041548714
885,508.3657738775201
886,508.3954296552922
887,508.43500439761164
888,508.4779694678712
889,508.5179451194813
890,508.5493877113148
891,508.5681899274841
892,508.5721314269218
893,508.5611235547516
894,508.53721293332893
895,508.50434366737795
896,508.46791629956107
897,508.4342124258537
898,508.40976556836904
899,508.40074474939377
900,508.412389179399
901,508.4485174722478
902,508.5111456178186
903,508.6002661777555
904,508.71383685756155
