frame_number,force
0,620.4899900000324
1,620.3347587155763
2,620.1844382307415
3,620.0433908448322
4,619.914938670184
5,619.8009894033902
6,619.7018321693789
7,619.6161324317804
8,619.5411297543307
9,619.4730232854574
10,619.4075071121406
11,619.3403823273945
12,619.2681405916409
13,619.1884153321369
14,619.1002389445471
15,619.0041006206608
16,618.9018385831605
17,618.7964131546689
18,618.6916030149822
19,618.5916582363608
20,618.500930754283
21,618.4234825881675
22,618.3626575833853
23,618.3206190828932
24,618.2979106738794
25,618.2931581934702
26,618.303045321627
27,618.3226344362771
28,618.3459961947933
29,618.3670152720962
30,618.3801999143238
31,618.3813444399457
32,618.3679516366589
33,618.3393828480075
34,618.2967471134007
35,618.2425670348821
36,618.1802756049427
37,618.1136113004023
38,618.0459957304153
39,617.9799976347057
40,617.9169894063862
41,617.8570682860081
42,617.7992471825759
43,617.7418432732537
44,617.6829370089458
45,617.620763985425
46,617.5539414933436
47,617.4815036903577
48,617.4027925383177
49,617.3172905501668
50,617.2244721697242
51,617.1237135422323
52,617.0142673214409
53,616.8952970013047
54,616.7659722351196
55,616.625638550139
56,616.4740739984011
57,616.3118215892166
58,616.1405455229191
59,615.9633227199388
60,615.78477372635
61,615.6109649840131
62,615.4490600552258
63,615.3067417307086
64,615.1914650975797
65,615.1096320628977
66,615.0657950880703
67,615.0620002013898
68,615.0973679070958
69,615.1679831926076
70,615.2671231611695
71,615.3858026124481
72,615.5135758752324
73,615.6395044862933
74,615.7531886862207
75,615.8457673350075
76,615.9108077847337
77,615.9450150208758
78,615.9486773631838
79,615.9257534799553
80,615.8835255901516
81,615.8318101983476
82,615.781814105379
83,615.744813148539
84,615.7308742083261
85,615.7478173283234
86,615.8005412993521
87,615.8907548134036
88,616.0170964711327
89,616.1755900857781
90,616.3603539113335
91,616.5644577898418
92,616.7808026135747
93,617.0028900073463
94,617.2253705911281
95,617.4443151277923
96,617.6572310197006
97,617.8629107439382
98,618.0612160368134
99,618.252872796958
100,618.4393076597001
101,618.6225248272032
102,618.8050027816722
103,618.9895781790776
104,619.1792864996536
105,619.3771553421203
106,619.585980205689
107,619.8081262635311
108,620.0453877102454
109,620.2989143080489
110,620.5691965008529
111,620.8560898802473
112,621.1588533754484
113,621.4761703598891
114,621.8061250457956
115,622.1461279392714
116,622.492818581209
117,622.8420016461831
118,623.188678479491
119,623.5272187275965
120,623.851680927287
121,624.1562467368906
122,624.4357007888522
123,624.6858852988881
124,624.9040806573568
125,625.0892855111009
126,625.2423765737594
127,625.3661267469143
128,625.4650658052705
129,625.5451862959877
130,625.613518446688
131,625.6776093815994
132,625.744946515547
133,625.8223745171007
134,625.9155687969239
135,626.0286317849627
136,626.1638621443068
137,626.3217162758533
138,626.5009510346212
139,626.698921472234
140,626.9120070521565
141,627.1361359188987
142,627.3673556596472
143,627.6023704244568
144,627.8389517055506
145,628.0761465479669
146,628.3142472663515
147,628.5545381516279
148,628.7988825128035
149,629.0492379726245
150,629.3071777324875
151,629.5734667553792
152,629.8477236471497
153,630.1281987817911
154,630.4116999238568
155,630.6936887050763
156,630.96856545195
157,631.2301581297926
158,631.4724103340178
159,631.6902072383788
160,631.8802093158315
161,632.0415244721229
162,632.1760665408373
163,632.288515010653
164,632.3858773658839
165,632.4767331268292
166,632.5702939543156
167,632.6754397876708
168,632.7998796072326
169,632.9495370863203
170,633.1281919405104
171,633.33734835393
172,633.5762812216128
173,633.8422276446267
174,634.1307132898755
175,634.4360051723282
176,634.7516676720561
177,635.0711816117896
178,635.388570215399
179,635.6989578656668
180,635.9989750658984
181,636.2869341151599
182,636.5627441160685
183,636.8275957362717
184,637.0834977413687
185,637.3327717332697
186,637.5776086300265
187,637.8197658863593
188,638.060440110779
189,638.3002902196303
190,638.5395334422101
191,638.7780219233506
192,639.0152430122405
193,639.2502478619593
194,639.4815602141664
195,639.7071274176441
196,639.9243575983412
197,640.1302621778939
198,640.321704181404
199,640.4957397515024
200,640.6500261781746
201,640.7832497316887
202,640.8955057537237
203,640.9885519591821
204,641.0658567866467
205,641.1323799805969
206,641.1940657396443
207,641.2571058639488
208,641.3271123149358
209,641.4083767727391
210,641.5033665567973
211,641.6125323793901
212,641.7344235509603
213,641.8660490988417
214,642.0033976628407
215,642.1420294094482
216,642.2776639010349
217,642.4066934862706
218,642.5265527944538
219,642.6358848781889
220,642.7344731902159
221,642.8229562261394
222,642.902399807484
223,642.973848921747
224,643.0379901337143
225,643.0950183403168
226,643.1447329423178
227,643.1868109966822
228,643.2211455516712
229,643.2481260195319
230,643.2687797737543
231,643.2847564389784
232,643.2981787920512
233,643.3113977202727
234,643.326689102668
235,643.3459329095133
236,643.3703216084047
237,643.4001487143729
238,643.4347219773107
239,643.4724296093983
240,643.51096464455
241,643.5476819587105
242,643.5800308098662
243,643.6059885112622
244,643.6244281275305
245,643.6353773992346
246,643.6401469889066
247,643.6413080916024
248,643.6424921750772
249,643.6479987149178
250,643.6622432433052
251,643.6891351075864
252,643.7315091602679
253,643.7907318345539
254,643.8665584530459
255,643.9572472409578
256,644.0598668937928
257,644.1707025110506
258,644.2856775381703
259,644.400742686519
260,644.5122041960464
261,644.6169642896726
262,644.712644755371
263,644.7975796747446
264,644.8706958226551
265,644.9313359920031
266,644.979103666271
267,645.0138009892771
268,645.03549239111
269,645.0446670884181
270,645.0424210162516
271,645.0305623493746
272,645.0115772104257
273,644.9884513788494
274,644.9643903107833
275,644.9424931705632
276,644.9254272614589
277,644.9151371864446
278,644.9126180452201
279,644.9177855327458
280,644.9294824504443
281,644.9456529525337
282,644.9636792501229
283,644.9808246413512
284,644.9946907797004
285,645.0035919860708
286,645.0067739041594
287,645.0044474121978
288,644.9976556682439
289,644.9880298849076
290,644.9775144438814
291,644.9681487803485
292,644.9619673257708
293,644.9610179918233
294,644.9674348233682
295,644.9834707657392
296,645.0114140671243
297,645.0533592398208
298,645.1108556104707
299,645.1844964828344
300,645.2735334835421
301,645.3756029826591
302,645.4866333372282
303,645.6009650515804
304,645.7116771497239
305,645.8110916238794
306,645.8914182174802
307,645.9454811041727
308,645.9674361710565
309,645.9533691703068
310,645.901679628957
311,645.8131963462101
312,645.6910236332955
313,645.5401711342188
314,645.3670539500698
315,645.1789447681026
316,644.983422109216
317,644.787820019498
318,644.598674691901
319,644.4211898038312
320,644.2587879470086
321,644.1128494515218
322,643.9827289632547
323,643.8660731101565
324,643.7593707905838
325,643.6586014758059
326,643.559832453277
327,643.4596495259811
328,643.3553734745085
329,643.2450925846742
330,643.1275944257383
331,643.0022859427085
332,642.8691594358063
333,642.7288191759229
334,642.5825504229022
335,642.4323970982136
336,642.281208973317
337,642.1326134725609
338,641.990865277375
339,641.8605448420823
340,641.7461197695499
341,641.6514333587089
342,641.579217333811
343,641.530727781639
344,641.5055768447378
345,641.5017885649016
346,641.5160583719212
347,641.5441524463929
348,641.5813567362253
349,641.6228887615433
350,641.6642206245294
351,641.7013117260767
352,641.7307882150687
353,641.7501140456508
354,641.7577727359668
355,641.753433330026
356,641.7380349432043
357,641.7137170328288
358,641.6835535492861
359,641.6511024014075
360,641.6198338607115
361,641.5925364131706
362,641.5708119094658
363,641.5547686521317
364,641.5430028878645
365,641.5329131134387
366,641.5213076586429
367,641.5051700368286
368,641.482390635935
369,641.4522850498423
370,641.4157838722074
371,641.3752670358813
372,641.334102404947
373,641.2960088298074
374,641.2643813724728
375,641.2416950959597
376,641.2290659972426
377,641.2260152607678
378,641.2304640152031
379,641.2389732505758
380,641.2472222019379
381,641.2506771615846
382,641.2453461141519
383,641.228465718979
384,641.198956971629
385,641.1575319614989
386,641.1064232876868
387,641.0488036999077
388,640.9880333537263
389,640.9269009065475
390,640.8670117054174
391,640.8084315267824
392,640.749638688728
393,640.6877873983701
394,640.6192405271457
395,640.5402880787213
396,640.4479334912045
397,640.3406061735914
398,640.2186520224454
399,640.0844849967748
400,639.9423597999505
401,639.797818668772
402,639.6569357696754
403,639.5255169752807
404,639.4084108724704
405,639.3090466246438
406,639.229245529637
407,639.1692846034649
408,639.1281456425978
409,639.103863016078
410,639.0938822992997
411,639.0953600548102
412,639.1053677221587
413,639.1209954963844
414,639.1393752381282
415,639.1576543418743
416,639.1729567426395
417,639.1823641809442
418,639.1829441176434
419,639.1718442962303
420,639.1464667406079
421,639.1047193844116
422,639.045318194848
423,638.9680849032534
424,638.8741703376882
425,638.7661384611785
426,638.6478683450698
427,638.5242650061058
428,638.4008093364286
429,638.2830123953306
430,638.1758610879627
431,638.0833466125937
432,638.0081511680219
433,637.9515322046306
434,637.9133959038213
435,637.8925063097197
436,637.8867451490889
437,637.8933319540871
438,637.9089443897363
439,637.9297384322149
440,637.9513310424824
441,637.9688399692901
442,637.9770568465334
443,637.9707761486488
444,637.9452502011869
445,637.8967079319098
446,637.8228540316768
447,637.7232496456584
448,637.5994783452543
449,637.4550347957048
450,637.2949330335684
451,637.1250982524748
452,636.9516592513693
453,636.780279341915
454,636.6156425615771
455,636.4611574055491
456,636.3188739028026
457,636.1895573843431
458,636.0728436833573
459,635.9674205401925
460,635.8712200797838
461,635.7816366135345
462,635.6957881248588
463,635.6108282913648
464,635.5243007928466
465,635.4345079322537
466,635.340838144272
467,635.2439724686044
468,635.1458885045779
469,635.0496124232628
470,634.958727745667
471,634.8767135329155
472,634.8062320483111
473,634.7485025692807
474,634.7028826474995
475,634.6667408933617
476,634.635658481364
477,634.6039428180645
478,634.5653758285188
479,634.5140660342462
480,634.4452522836744
481,634.3559262666745
482,634.2451903615797
483,634.1143304717089
484,633.9666388481251
485,633.8070464889388
486,633.6416167753708
487,633.4769390048214
488,633.3194692646892
489,633.1748950758939
490,633.0476241280952
491,632.9404860349719
492,632.8546786138489
493,632.7899168549408
494,632.7447046075222
495,632.716664698107
496,632.7029000756053
497,632.700371880334
498,632.706259713118
499,632.7182431329877
500,632.7346432765275
501,632.7543948393169
502,632.776864261645
503,632.8015683722516
504,632.8278643660949
505,632.8546758964194
506,632.8803050654049
507,632.9023697765082
508,632.9178961208327
509,632.9235717664203
510,632.9161281635949
511,632.8927841961314
512,632.8516657445047
513,632.7921127287498
514,632.7147947716437
515,632.6215888335241
516,632.5152325891698
517,632.3988331643517
518,632.2753462340374
519,632.1471325674647
520,632.0156637215352
521,631.8814051014091
522,631.7438614480833
523,631.6017369577042
524,631.4531576782471
525,631.2959304254276
526,631.1278445080676
527,630.9470316963304
528,630.7523802893019
529,630.5439637832268
530,630.3234131871158
531,630.0941493095412
532,629.8613990769791
533,629.6319455131387
534,629.4136052179277
535,629.2144833074766
536,629.0421073325659
537,628.902576899823
538,628.799877365716
539,628.7354825008748
540,628.7083098332141
541,628.7150147618796
542,628.7505436665896
543,628.8088251414632
544,628.8834650040086
545,628.9683286172582
546,629.0579423111803
547,629.1477075891449
548,629.2339692518216
549,629.3139935902268
550,629.3859020823397
551,629.4485888114873
552,629.501635871317
553,629.5452267173055
554,629.5800399846406
555,629.6070953185382
556,629.6275342244238
557,629.642354966008
558,629.6521598359758
559,629.6569906090119
560,629.6563188771901
561,629.6492322810541
562,629.6348203739441
563,629.6127162819871
564,629.583702660291
565,629.5502557969376
566,629.5168848875389
567,629.4901298911351
568,629.4781253420236
569,629.4897255521477
570,629.5332983094634
571,629.6153897143389
572,629.7395065237512
573,629.9052396731662
574,630.1078784115953
575,630.3385741336223
576,630.585031695476
577,630.8326347329773
578,631.0658495237949
579,631.2697124757685
580,631.4312050425827
581,631.5403607969033
582,631.5910170149338
583,631.5811873053749
584,631.5130721117309
585,631.3927440159449
586,631.2295571381736
587,631.0353389099456
588,630.8234287019051
589,630.6076354660572
590,630.4011950669315
591,630.2158066128455
592,630.060812528975
593,629.9425744736316
594,629.8640992528337
595,629.8249755508725
596,629.8216709327937
597,629.8481957940654
598,629.8970722573837
599,629.9604731558632
600,630.0313471823023
601,630.1043436372852
602,630.1763992228119
603,630.2469284937257
604,630.317632419446
605,630.391985606761
606,630.4744883342028
607,630.5697871705916
608,630.6817806964298
609,630.8128330665107
610,630.963215795406
611,631.1308780766371
612,631.311593891189
613,631.4994534808845
614,631.6875905825466
615,631.8690001356102
616,632.0373080973117
617,632.1873873405514
618,632.3157562255966
619,632.4207397758537
620,632.5024092087032
621,632.5623416391903
622,632.6032600260935
623,632.628623595957
624,632.6422398277043
625,632.6479583158273
626,632.6494795021391
627,632.6502706975497
628,632.6535469154497
629,632.662261881817
630,632.6790642690204
631,632.7061954017195
632,632.7453290477141
633,632.7973763028514
634,632.8622985981092
635,632.9389885738096
636,633.0252785989073
637,633.1181051264105
638,633.2138057197369
639,633.3084879921672
640,633.3984021780841
641,633.4802581593958
642,633.5514398592309
643,633.6100914279579
644,633.6550885000703
645,633.6859486579995
646,633.7027481856376
647,633.7060860432924
648,633.6970920818729
649,633.6774447977982
650,633.6493573461203
651,633.615506665859
652,633.5789084354547
653,633.5427599422429
654,633.5102695284262
655,633.4844765441419
656,633.4680632691994
657,633.463174879838
658,633.4712764305434
659,633.4930653187474
660,633.5284248070964
661,633.576380646233
662,633.6350391817846
663,633.7015314354078
664,633.7720257377905
665,633.841878262341
666,633.9059651325719
667,633.9591865689285
668,633.9970660886225
669,634.0163160177535
670,634.0152351426979
671,633.9938504762466
672,633.9537900894759
673,633.8979463049163
674,633.8300345833154
675,633.7541634214485
676,633.6745064466194
677,633.5951168364397
678,633.5198619152949
679,633.4524108968025
680,633.3962041279668
681,633.3543618132629
682,633.3295277451006
683,633.3236697456605
684,633.3378703422625
685,633.3721427238638
686,633.4253030853026
687,633.4949259860365
688,633.5774055394489
689,633.6681365146875
690,633.761811500791
691,633.8528106060065
692,633.935648781662
693,634.0054384985655
694,634.0583137799297
695,634.0917553730404
696,634.1047727651222
697,634.097931342475
698,634.0732402944245
699,634.0339265447267
700,633.9841131476014
701,633.9284072229735
702,633.8714039096769
703,633.8171437420698
704,633.7686042839113
705,633.7273294853974
706,633.6932882500978
707,633.6650126608707
708,633.6400020034315
709,633.6153043523475
710,633.5881340908795
711,633.5563787740624
712,633.5188943329098
713,633.4755658850064
714,633.4271914311934
715,633.3752890310748
716,633.3219139785887
717,633.269518574379
718,633.2208330366492
719,633.1787219789829
720,633.1459823153181
721,633.1250819681762
722,633.1178752410334
723,633.125355511172
724,633.1475084665319
725,633.183301583825
726,633.2307955091636
727,633.2873210375359
728,633.3496604425604
729,633.414202373045
730,633.4770787626859
731,633.534314576148
732,633.582018742213
733,633.6166255881706
734,633.6351712883721
735,633.6355644633392
736,633.6167901414872
737,633.578982374109
738,633.5233207937839
739,633.4517499839735
740,633.366577399375
741,633.2700531563422
742,633.1640449314433
743,633.0498832987836
744,632.9283922645484
745,632.800074490253
746,632.6654006941079
747,632.5251376916088
748,632.3806305947456
749,632.2339565646512
750,632.087911032377
751,631.9458486748227
752,631.8114369972669
753,631.6883777571753
754,631.5801314209831
755,631.4896627543554
756,631.4192174963696
757,631.3701411953533
758,631.3427611635987
759,631.3363616355012
760,631.3492684987461
761,631.3790131405243
762,631.4224987288751
763,631.4761033182594
764,631.5357296905961
765,631.5968854740181
766,631.6548826119159
767,631.7051859873067
768,631.7438639045744
769,631.768034447108
770,631.7761827169822
771,631.7682563582947
772,631.7455165158705
773,631.7101932627079
774,631.665040486636
775,631.6128952330838
776,631.5563244434021
777,631.4974046268309
778,631.4376467561584
779,631.3780558332618
780,631.3192974015852
781,631.2619292910878
782,631.2066482797098
783,631.1545020516653
784,631.1070301731353
785,631.0663189774415
786,631.0349677419491
787,631.0159561486045
788,631.0123927792008
789,631.0271448323417
790,631.0624042587676
791,631.1192924933159
792,631.1976012732575
793,631.2957156924222
794,631.4107107267049
795,631.5385830508286
796,631.6745687262975
797,631.8134912121279
798,631.9500891685988
799,632.079294042365
800,632.1964501357752
801,632.2974849162533
802,632.3790470281552
803,632.4386300754579
804,632.474684593224
805,632.4867000791314
806,632.4752373063579
807,632.4419133888149
808,632.389363541901
809,632.3211960825979
810,632.2419237881226
811,632.1568286467731
812,632.0717225001071
813,631.9925928534733
814,631.9251505237725
815,631.8743218872514
816,631.8437602274442
817,631.8354774591157
818,631.8496877302738
819,631.8848874193407
820,631.9381033739842
821,632.0051944766197
822,632.0811275373486
823,632.1602253437126
824,632.2364304815911
825,632.3036166509535
826,632.355943457751
827,632.3882324323017
828,632.3963400781881
829,632.3774927694386
830,632.3305285079527
831,632.255987308846
832,632.1560178267548
833,632.0341127916987
834,631.8947352897067
835,631.7429335389681
836,631.5840355377829
837,631.4234579911268
838,631.2665942448265
839,631.1187134039492
840,630.9848187450744
841,630.8694554481699
842,630.77649846266
843,630.7089686088261
844,630.668907122434
845,630.6573000489933
846,630.674021149731
847,630.7177781460491
848,630.7860829890208
849,630.8752862001977
850,630.9807085440532
851,631.0968873275895
852,631.217940354239
853,631.3380301207366
854,631.4518756202682
855,631.5552192541423
856,631.645140022625
857,631.7201359529059
858,631.7799724390366
859,631.825368721699
860,631.8576323174077
861,631.8783429914282
862,631.8891490425589
863,631.891687010048
864,631.887592245759
865,631.8785536705916
866,631.8663840831904
867,631.8531031985365
868,631.8410346346441
869,631.8328956128854
870,631.8318311919007
871,631.8413373047497
872,631.8650379583545
873,631.9063247604563
874,631.967910426025
875,632.0513715397735
876,632.1567572526673
877,632.2823297885344
878,632.4244856648376
879,632.5778845201664
880,632.7357872752524
881,632.8905783616252
882,633.0344180911582
883,633.1599444717467
884,633.2609270341673
885,633.3327761153976
886,633.3728338325734
887,633.3804181668835
888,633.3566488091137
889,633.3041300372977
890,633.226582807757
891,633.1285017870108
892,633.0148729615131
893,632.8909439635721
894,632.7620129689923
895,632.6331997328649
896,632.5091809433089
897,632.3939054895959
898,632.2903353872795
899,632.2002609772303
900,632.1242138182865
901,632.061473195024
902,632.0101516623487
903,631.9673479949424
904,631.9293635743873
905,631.8919851881905
906,631.8508316992296
907,631.8017380878017
908,631.7411289407657
909,631.6663398706934
910,631.5758692997454
911,631.4695522845614
912,631.3486357564011
913,631.2157250948159
914,631.0745826518726
915,630.9297804640064
916,630.786229453331
917,630.6486302576089
