frame_number,force
0,538.2882600057455
1,538.3194612338971
2,538.3505824389624
3,538.381544388617
4,538.4122694212115
5,538.4426822039197
6,538.4727104585306
7,538.5022856451667
8,538.5313435955169
9,538.559825088727
10,538.5876763647968
11,538.6148495717871
12,538.6413031437778
13,538.6670021061415
14,538.6919183039299
15,538.7160305491873
16,538.7393246845841
17,538.761793563616
18,538.7834369507017
19,538.8042613470851
20,538.8242797503217
21,538.8435113563776
22,538.8619812141525
23,538.8797198426664
24,538.8967628212372
25,538.9131503625147
26,538.9289268770607
27,538.944140536367
28,538.9588428391637
29,538.9730881840482
30,538.986933450295
31,539.0004375882786
32,539.0136612207868
33,539.0266662560352
34,539.0395155121644
35,539.0522723516035
36,539.0650003222839
37,539.0777628018941
38,539.0906226418092
39,539.1036418089782
40,539.116881026025
41,539.1303994111558
42,539.1442541198251
43,539.1584999898238
44,539.1731891913233
45,539.1883708840954
46,539.2040908853389
47,539.2203913522349
48,539.237310483031
49,539.2548822395363
50,539.2731360929998
51,539.2920967946121
52,539.3117841710076
53,539.3322129438434
54,539.3533925709951
55,539.3753271059079
56,539.3980150718348
57,539.4214493492145
58,539.4456170769505
59,539.4704995709694
60,539.4960722650926
61,539.5223046795936
62,539.5491604225052
63,539.5765972286806
64,539.6045670419828
65,539.6330161462311
66,539.6618853500868
67,539.6911102299606
68,539.7206214336636
69,539.7503450462177
70,539.7802030181822
71,539.8101136562593
72,539.8399921756416
73,539.8697513129786
74,539.8993019975381
75,539.9285540761347
76,539.9574170849293
77,539.9858010586192
78,540.0136173654568
79,540.0407795554196
80,540.067204208405
81,540.0928117689114
82,540.1175273532842
83,540.1412815157961
84,540.1640109609538
85,540.185659191194
86,540.2061770810072
87,540.2255233702546
88,540.2436650709864
89,540.2605777835056
90,540.2762459189668
91,540.2906628277574
92,540.3038308351644
93,540.3157611878647
94,540.326473916184
95,540.3359976179491
96,540.344369170296
97,540.3516333759001
98,540.3578425497344
99,540.363056051949
100,540.3673397723312
101,540.370765572239
102,540.3734106904612
103,540.3753571196123
104,540.3766909594848
105,540.3775017536316
106,540.377881815224
107,540.3779255474956
108,540.3777287628396
109,540.3773880034921
110,540.3769998662333
111,540.3766603336142
112,540.3764641145636
113,540.3765039977189
114,540.3768702213629
115,540.3776498641934
116,540.3789262611433
117,540.3807784483545
118,540.3832806415274
119,540.3865017523474
120,540.3905049484396
121,540.3953472632592
122,540.401079263243
123,540.4077447799475
124,540.4153807141811
125,540.4240169171212
126,540.4336761504984
127,540.4443741248683
128,540.4561196124636
129,540.4689146295696
130,540.4827546829536
131,540.4976290753214
132,540.5135212655613
133,540.5304092801109
134,540.548266171926
135,540.5670605232207
136,540.586756987193
137,540.6073168621881
138,540.6286986897726
139,540.650858867054
140,540.6737522635941
141,540.697332833792
142,540.7215542161184
143,540.7463703113111
144,540.7717358328883
145,540.7976068248737
146,540.8239411429199
147,540.8506988958596
148,540.8778428451627
149,540.9053387599456
150,540.9331557253405
151,540.9612664025922
152,540.989647240057
153,541.0182786347692
154,541.0471450442709
155,541.0762350484245
156,541.1055413612347
157,541.1350607930773
158,541.1647941637115
159,541.1947461660145
160,541.2249251800275
161,541.2553430372649
162,541.2860147364124
163,541.3169581130071
164,541.3481934669782
165,541.3797431530314
166,541.4116311399683
167,541.4438825460483
168,541.4765231582417
169,541.5095789436944
170,541.5430755620936
171,541.5770378879979
172,541.6114895524508
173,541.6464525130908
174,541.6819466614743
175,541.7179894757683
176,541.7545957263501
177,541.7917772407618
178,541.8295427326514
179,541.867897697058
180,541.9068443721643
181,541.946381765935
182,541.9865057450396
183,542.0272091827493
184,542.0684821615604
185,542.1103122249161
186,542.1526846707662
187,542.1955828782927
188,542.238988658467
189,542.2828826195447
190,542.3272445401863
191,542.3720537450466
192,542.4172894793306
193,542.4629312792067
194,542.5089593345268
195,542.5553548399404
196,542.602100330613
197,542.6491799990843
198,542.6965799900495
199,542.7442886700736
200,542.7922968696575
201,542.8405980958358
202,542.8891887144699
203,542.9380681022658
204,542.9872387690205
205,543.0367064507092
206,543.0864801738016
207,543.1365722905447
208,543.1869984840264
209,543.2377777412285
210,543.2889322925173
211,543.3404875169145
212,543.3924718134008
213,543.4449164391826
214,543.4978553165355
215,543.551324810688
216,543.6053634820978
217,543.6600118170466
218,543.715311940437
219,543.7713073140135
220,543.8280424224579
221,543.8855624494504
222,543.9439129458025
223,544.0031394917562
224,544.063287355274
225,544.124401147662
226,544.1865244771701
227,544.249699600317
228,544.3139670698214
229,544.3793653775266
230,544.4459305907853
231,544.5136959815641
232,544.582691648859
233,544.6529441364755
234,544.7244760495175
235,544.7973056740476
236,544.8714466050824
237,544.9469073879615
238,545.02369117713
239,545.1017954150674
240,545.181211533088
241,545.2619246752168
242,545.343913446234
243,545.4271496853875
244,545.5115982682137
245,545.5972169397431
246,545.6839561822857
247,545.7717591199474
248,545.8605614608903
249,545.9502914777885
250,546.0408700268755
251,546.1322106059138
252,546.224219451295
253,546.3167956746557
254,546.4098314399611
255,546.5032121824264
256,546.5968168703946
257,546.6905183105748
258,546.7841834965672
259,546.8776740007335
260,546.9708464100008
261,547.0635528066313
262,547.1556412950567
263,547.2469565754866
264,547.3373405640945
265,547.4266330580901
266,547.5146724419299
267,547.6012964285442
268,547.6863428271449
269,547.7696503275267
270,547.8510592904715
271,547.9304125348411
272,548.0075561133116
273,548.0823400697357
274,548.1546191719409
275,548.22425361464
276,548.2911096878814
277,548.3550604070235
278,548.4159861008326
279,548.4737749550021
280,548.5283235087757
281,548.5795371022094
282,548.6273302711666
283,548.6716270867165
284,548.7123614353628
285,548.749477236555
286,548.7829285942621
287,548.8126798797875
288,548.8387057433246
289,548.8609910523325
290,548.8795307560508
291,548.8943296771769
292,548.905402233319
293,548.9127720921999
294,548.9164717662355
295,548.9165421544495
296,548.9130320423137
297,548.9059975720877
298,548.8955016967384
299,548.8816136295841
300,548.8644083002396
301,548.8439658258084
302,548.820371004342
303,548.7937128349829
304,548.7640840662347
305,548.7315807713577
306,548.6963019488725
307,548.65834914671
308,548.6178261099774
309,548.5748384535569
310,548.5294933611858
311,548.481899312006
312,548.4321658336802
313,548.3804032784964
314,548.3267226166629
315,548.2712352403335
316,548.2140527728178
317,548.1552868791771
318,548.0950490763561
319,548.0334505427581
320,547.9706019283695
321,547.9066131672251
322,547.8415932945516
323,547.7756502713552
324,547.7088908191362
325,547.6414202667974
326,547.5733424112414
327,547.504759393104
328,547.4357715894765
329,547.3664775256598
330,547.2969738071773
331,547.2273550713508
332,547.157713955563
333,547.0881410778455
334,547.0187250249046
335,546.9495523430155
336,546.8807075280937
337,546.8122730123665
338,546.7443291462239
339,546.67695417516
340,546.6102242133172
341,546.5442132166058
342,546.4789929590601
343,546.4146330157761
344,546.3512007550038
345,546.2887613414404
346,546.2273777525048
347,546.1671108088221
348,546.108019219075
349,546.0501596381579
350,545.9935867366556
351,545.9383532790587
352,545.8845102074534
353,545.8321067264772
354,545.7811903843456
355,545.7318071443267
356,545.6840014415947
357,545.6378162219179
358,545.5932929607611
359,545.5504716637176
360,545.5093908512189
361,545.4700875316562
362,545.4325971672426
363,545.3969536362729
364,545.3631891940263
365,545.3313344327504
366,545.3014182397181
367,545.2734677519447
368,545.2475083066408
369,545.2235633871525
370,545.2016545647184
371,545.1818014373321
372,545.1640215686133
373,545.1483304312193
374,545.1347413601115
375,545.1232655206848
376,545.1139118954139
377,545.1066872904659
378,545.1015963613788
379,545.0986416556101
380,545.097823670024
381,545.0991409225333
382,545.1025900378324
383,545.1081658467613
384,545.1158614974275
385,545.1256685743123
386,545.1375772197193
387,545.1515762506988
388,545.1676532642936
389,545.185794724518
390,545.2059860255447
391,545.2282115268839
392,545.2524545576046
393,545.2786973875894
394,545.3069211644313
395,545.3371058152425
396,545.3692299136768
397,545.4032705138213
398,545.4392029539822
399,545.4770006345606
400,545.5166347751147
401,545.5580741561259
402,545.6012848506515
403,545.646229950232
404,545.6928692887219
405,545.7411591672208
406,545.7910520828592
407,545.8424964642661
408,545.8954364178305
409,545.9498114911524
410,546.0055564622296
411,546.0626011639797
412,546.1208703534373
413,546.18028363377
414,546.2407554357881
415,546.3021950644015
416,546.3645068144999
417,546.4275901594264
418,546.4913400132148
419,546.5556470654897
420,546.620398186144
421,546.6854768957548
422,546.750763896653
423,546.8161376579811
424,546.8814750457501
425,546.9466519864525
426,547.0115441510875
427,547.0760276458009
428,547.139979695524
429,547.2032793077589
430,547.2658079049869
431,547.3274499159826
432,547.388093318287
433,547.4476301257815
434,547.5059568165477
435,547.5629746973456
436,547.618590202717
437,547.672715129435
438,547.7252668106522
439,547.7761682376859
440,547.8253481396504
441,547.8727410315485
442,547.9182872404231
443,547.9619329176604
444,548.0036300442679
445,548.043336435179
446,548.0810157479517
447,548.1166375001162
448,548.150177097996
449,548.181615878523
450,548.2109411643878
451,548.2381463316341
452,548.2632308877337
453,548.2862005576138
454,548.3070673749057
455,548.3258497754389
456,548.3425726894889
457,548.3572676285255
458,548.3699727614277
459,548.3807329746963
460,548.3895999113493
461,548.3966319837946
462,548.4018943566762
463,548.4054588961259
464,548.4074040821365
465,548.4078148812594
466,548.40678257773
467,548.4044045622084
468,548.4007840781236
469,548.3960299258681
470,548.3902561249698
471,548.3835815344646
472,548.3761294325019
473,548.3680270577789
474,548.3594051171591
475,548.3503972650882
476,548.341139560816
477,548.3317699089432
478,548.3224274876587
479,548.3132521676462
480,548.3043839233502
481,548.2959622371869
482,548.2881254966317
483,548.2810103844298
484,548.2747512635989
485,548.2694795608962
486,548.265323154292
487,548.2624057712444
488,548.2608464049918
489,548.2607587554849
490,548.2622506999991
491,548.2654237962965
492,548.2703728190381
493,548.2771853282682
494,548.2859412674162
495,548.2967125878848
496,548.3095628982298
497,548.3245471375213
498,548.3417112735367
499,548.3610920265705
500,548.382716619347
501,548.4066025535229
502,548.4327574139755
503,548.4611787032727
504,548.4918537099243
505,548.5247594151086
506,548.5598624438907
507,548.597119068359
508,548.6364752708967
509,548.6778668757129
510,548.7212197562906
511,548.7664501257376
512,548.813464915721
513,548.8621622475457
514,548.9124319964591
515,548.9641564477806
516,549.0172110409883
517,549.0714651955024
518,549.1267832096623
519,549.183025222284
520,549.2400482244369
521,549.2977071079989
522,549.3558557368872
523,549.4143480261101
524,549.4730390130272
525,549.5317859051205
526,549.5904490894216
527,549.6488930900642
528,549.7069874618071
529,549.764607608789
530,549.8216355195042
531,549.8779604111286
532,549.9334792787627
533,549.9880973476145
534,550.0417284284991
535,550.0942951792357
536,550.1457292765065
537,550.1959715043292
538,550.2449717662847
539,550.2926890289385
540,550.339091203784
541,550.384154975095
542,550.4278655814473
543,550.4702165586186
544,550.5112094503304
545,550.5508534910372
546,550.5891652626083
547,550.6261683250112
548,550.6618928201669
549,550.6963750479862
550,550.7296570141972
551,550.7617859505958
552,550.7928138091881
553,550.8227967321614
554,550.8517945002551
555,550.8798699633699
556,550.907088458715
557,550.9335172225711
558,550.959224801354
559,550.9842804665689
560,551.0087536374226
561,551.0327133149765
562,551.0562275326122
563,551.0793628284406
564,551.1021837453087
565,551.1247523630415
566,551.1471278659993
567,551.169366147682
568,551.1915194534107
569,551.2136360620767
570,551.2357600082674
571,551.2579308462766
572,551.2801834572615
573,551.3025479004696
574,551.3250493097083
575,551.3477078371822
576,551.3705386477217
577,551.3935519664903
578,551.41675318229
579,551.4401430068843
580,551.4637176886355
581,551.4874692766705
582,551.5113859302824
583,551.5354522673865
584,551.5596497452415
585,551.583957066144
586,551.6083506007097
587,551.6328048216882
588,551.6572927417881
589,551.6817863496617
590,551.7062570391939
591,551.7306760283876
592,551.7550147649259
593,551.779245315613
594,551.8033407364206
595,551.8272754189887
596,551.8510254084356
597,551.8745686865212
598,551.8978854136163
599,551.9209581224195
600,551.9437718561895
601,551.9663142450859
602,551.9885755163589
603,552.0105484371257
604,552.0322281915496
605,552.0536121970318
606,552.0746998666109
607,552.0954923272251
608,552.1159921057936
609,552.1362027970958
610,552.1561287289317
611,552.1757746404153
612,552.1951453879432
613,552.2142456906362
614,552.2330799240235
615,552.2516519682515
616,552.2699651148437
617,552.2880220332282
618,552.305824794967
619,552.3233749508357
620,552.3406736541388
621,552.3577218224281
622,552.3745203286984
623,552.3910702124948
624,552.4073729016441
625,552.4234304361504
626,552.4392456865378
627,552.454822559476
628,552.4701661841001
629,552.4852830729155
630,552.5001812514838
631,552.5148703517499
632,552.5293616655509
633,552.5436681570719
634,552.5578044344664
635,552.5717866810688
636,552.5856325465156
637,552.5993609986217
638,552.6129921379076
639,552.6265469777392
640,552.6400471940084
641,552.653514849291
642,552.666972097362
643,552.6804408744941
644,552.6939425838663
645,552.7074977787386
646,552.7211258494019
647,552.73484471906
648,552.7486705549503
649,552.7626175022444
650,552.7766974484525
651,552.7909198248965
652,552.8052914498253
653,552.8198164154269
654,552.8344960188409
655,552.8493287361168
656,552.8643102383812
657,552.8794334506715
658,552.8946886548214
659,552.9100636376895
660,552.9255438848355
661,552.941112818158
662,552.9567520749298
663,552.9724418251144
664,552.9881611230563
665,553.0038882884414
666,553.0196013105402
667,553.0352782695368
668,553.0508977686187
669,553.0664393699055
670,553.0818840264226
671,553.0972145016863
672,553.1124157682433
673,553.1274753767655
674,553.1423837881819
675,553.1571346627951
676,553.1717251018125
677,553.1861558375117
678,553.2004313683201
679,553.2145600352408
680,553.2285540370333
681,553.2424293830836
682,553.256205784164
683,553.2699064821062
684,553.2835580202208
685,553.297189957312
686,553.3108345292637
687,553.3245262634239
688,553.3383015524367
689,553.3521981955648
690,553.3662549166256
691,553.3805108683521
692,553.3950051331225
693,553.409776229525
694,553.4248616335062
695,553.4402973225666
696,553.4561173518141
697,553.4723534710226
698,553.4890347910167
699,553.5061875050184
700,553.5238346667086
701,553.5419960233579
702,553.5606879006677
703,553.5799231356195
704,553.5997110536215
705,553.6200574860493
706,553.6409648241677
707,553.6624321056694
708,553.6844551303776
709,553.7070266014342
710,553.7301362873728
711,553.7537711993215
712,553.7779157768191
713,553.80255207557
714,553.8276599507376
715,553.8532172298937
716,553.8791998704945
717,553.9055820978277
718,553.932336520792
719,553.9594342244308
720,553.9868448396774
721,554.0145365921197
722,554.042476332494
723,554.070629551633
724,554.0989603817043
725,554.1274315844405
726,554.1560045264763
727,554.1846391419548
728,554.2132938830324
729,554.2419256598447
730,554.270489773084
731,554.2989398442927
732,554.3272277505589
733,554.355303570963
734,554.383115551959
735,554.4106100982298
736,554.437731794348
737,554.4644234607127
738,554.4906262452799
739,554.5162797512945
740,554.541322200508
741,554.5656906307103
742,554.5893211255978
743,554.612149074083
744,554.6341094549946
745,554.6551371416715
746,554.6751672196523
747,554.6941353101852
748,554.7119778928916
749,554.7286326223533
750,554.744038635232
751,554.7581368465181
752,554.7708702356555
753,554.7821841253486
754,554.792026457064
755,554.8003480670428
756,554.8071029654076
757,554.8122486192392
758,554.8157462385468
759,554.8175610619701
760,554.8176626372169
761,554.8160250900555
762,554.8126273752379
763,554.8074535029834
764,554.800492735602
765,554.7917397506068
766,554.781194769146
767,554.7688636511152
768,554.7547579600223
769,554.7388950011037
770,554.7212978354322
771,554.7019952711545
772,554.6810218309103
773,554.6584176925443
774,554.6342285992438
775,554.6085057354925
776,554.5813055661185
777,554.5526896364022
778,554.5227243314156
779,554.4914805928191
780,554.4590335918188
781,554.4254623581762
782,554.3908493666773
783,554.3552800836154
784,554.31884247641
785,554.2816264897174
786,554.2437234916516
787,554.2052256941865
788,554.1662255523099
789,554.1268151467734
790,554.0870855552887
791,554.0471262169978
792,554.0070242948813
793,553.966864039825
794,553.9267261582689
795,553.8866871840462
796,553.8468188556612
797,553.8071875026162
798,553.7678534468861
799,553.7288704272822
800,553.6902850554811
801,553.6521363132318
802,553.6144551003094
803,553.5772638416881
804,553.5405761603538
805,553.5043966199426
806,553.4687205397183
807,553.4335338833797
808,553.398813222481
809,553.3645257746739
810,553.3306295167021
811,553.297073372283
812,553.2637974753826
813,553.2307335091836
814,553.197805119958
815,553.1649284034642
816,553.1320124599418
817,553.0989600124472
818,553.0656680819457
819,553.0320287112909
820,552.9979297293586
821,552.9632555465358
822,552.9278879731725
823,552.8917070530997
824,552.8545919047116
825,552.8164215620743
826,552.7770758077464
827,552.7364359877682
828,552.6943857985299
829,552.650812035695
830,552.6056052971852
831,552.5586606350208
832,552.5098781538227
833,552.4591635561117
834,552.4064286356081
835,552.3515917195584
836,552.2945780604038
837,552.2353201766614
838,552.1737581429903
839,552.1098398296356
840,552.0435210912957
841,551.9747659049124
842,551.9035464553557
843,551.8298431678921
844,551.7536446869799
845,551.6749478023968
846,551.5937573256084
847,551.5100859210236
848,551.4239538978875
849,551.3353889691491
850,551.2444259842734
851,551.1511066440481
852,551.0554792066074
853,550.9575981939829
854,550.8575241062707
855,550.7553231460838
856,550.6510669511837
857,550.5448323302033
858,550.4367009959227
859,550.3267592919058
860,550.2150979102666
861,550.1018115997808
862,549.9869988636801
863,549.8707616452389
864,549.7532049976761
865,549.634436734206
866,549.5145670548787
867,549.3937081490021
868,549.2719737746553
869,549.149478819084
870,549.0263388449576
871,548.9026696275548
872,548.7785866871352
873,548.6542048192862
874,548.529637624626
875,548.4049970389839
876,548.2803928664007
877,548.1559323190735
878,548.0317195694511
879,547.9078553198492
880,547.7844363949048
881,547.6615553625711
882,547.5393001900793
883,547.417753941727
884,547.2969945249425
885,547.1770944899508
886,547.0581208871532
887,546.940135185376
888,546.823193253014
889,546.7073454020613
890,546.5926364922212
891,546.4791060899445
892,546.366788676464
893,546.25571389978
894,546.1459068673614
895,546.0373884781216
896,545.9301757931337
897,545.8242824442495
898,545.7197190786516
899,545.6164938360919
900,545.514612854426
901,545.4140807979078
902,545.3149014015632
903,545.2170780240417
904,545.1206142006505
905,545.0255141876147
906,544.9317834881556
907,544.8394293511456
908,544.7484612338093
909,544.6588912205762
910,544.5707343902919
911,544.4840091238308
912,544.3987373445814
913,544.314944685959
914,544.2326605827786
915,544.151918286151
916,544.072754803694
917,543.9952107678741
