frame_number,force
0,490.33041400289056
1,490.36022844147755
2,490.38994215594886
3,490.41945541514946
4,490.44867045472444
5,490.4774924149328
6,490.505830228581
7,490.5335974476093
8,490.56071299836594
9,490.5871018569712
10,490.61269563797185
11,490.637433091637
12,490.66126050730793
13,490.6841320218905
14,490.70600983403256
15,490.72686432604854
16,490.74667409700515
17,490.7654259111426
18,490.78311456616916
19,490.7997426866096
20,490.8153204486171
21,490.8298652440716
22,490.8434012926929
23,490.8559592109254
24,490.86757554561706
25,490.87829227948623
26,490.88815631444766
27,490.89721893792586
28,490.9055352758353
29,490.9131637339427
30,490.92016542767493
31,490.926603599902
32,490.93254302673904
33,490.9380494124029
34,490.9431887753873
35,490.9480268296515
36,490.95262836577155
37,490.9570566375901
38,490.96137275997677
39,490.9656351233376
40,490.96989883048036
41,490.9742151610431
42,490.97863106813844
43,490.9831887117178
44,490.9879250334661
45,490.9928713781878
46,490.9980531662605
47,491.00348962115305
48,491.0091935558577
49,491.01517122265966
50,491.02142223156056
51,491.02793954296413
52,491.0347095393115
53,491.0417121785992
54,491.0489212310988
55,491.0563045997403
56,491.0638247244512
57,491.07143907058713
58,491.0791007006069
59,491.08675892588786
60,491.09436003222464
61,491.1018480686544
62,491.10916568549675
63,491.11625500455716
64,491.1230585028883
65,491.1295198915347
66,491.13558497199807
67,491.14120245517455
68,491.1463247298688
69,491.15090857050365
70,491.1549157759597
71,491.15831373296464
72,491.16107589780347
73,491.1631821898999
74,491.1646192910556
75,491.1653808454715
76,491.16546755815216
77,491.1648871925759
78,491.16365447181425
79,491.1617908896281
80,491.1593244391221
81,491.1562892667946
82,491.15272525969823
83,491.14867757294707
84,491.1441961042757
85,491.13933492256
86,491.13415165854974
87,491.12870686775136
88,491.1230633759749
89,491.11728561666916
90,491.1114389662123
91,491.1055890801083
92,491.0998012311903
93,491.09413965145654
94,491.08866688154546
95,491.0834431342972
96,491.07852567993035
97,491.07396826023853
98,491.0698205390122
99,491.06612759616496
100,491.0629294732052
101,491.0602607770481
102,491.05815034788736
103,491.0566209955019
104,491.0556893071549
105,491.0553655289422
106,491.0556535206313
107,491.0565507813339
108,491.05804854004367
109,491.06013190222245
110,491.06278004217
111,491.06596643090523
112,491.06965909020016
113,491.0738208649139
114,491.07840970779046
115,491.08337897339464
116,491.0886777206978
117,491.09425102635015
118,491.100040311881
119,491.1059836873674
120,491.11201631191267
121,491.1180707686643
122,491.12407745040207
123,491.12996495193687
124,491.13566046761883
125,491.1410901948367
126,491.14617974608825
127,491.1508545727559
128,491.15504040372895
129,491.1586637016353
130,491.1616521382597
131,491.1639350887073
132,491.16544414161746
133,491.16611362067823
134,491.1658811107138
135,491.1646879794792
136,491.1624798842628
137,491.1592072511602
138,491.15482571488764
139,491.1492965080926
140,491.1425867909787
141,491.13466991444943
142,491.1255256123053
143,491.1151401196129
144,491.10350621517046
145,491.0906231866726
146,491.0764967183514
147,491.0611387027615
148,491.04456698077445
149,491.02680501614805
150,491.00788151254386
151,490.9878299814305
152,490.9666882695593
153,490.944498055443
154,490.92130432563505
155,490.8971548428732
156,490.87209961854694
157,490.84619040142235
158,490.81948019339086
159,490.7920228013075
160,490.7638724318277
161,490.7350833339413
162,490.7057094920986
163,490.6758043714585
164,490.64542071563113
165,490.61461039634537
166,490.5834243139357
167,490.5519123471269
168,490.52012334952997
169,490.48810518816884
170,490.4559048168279
171,490.42356837501745
172,490.3911413023734
173,490.3586684581296
174,490.3261942355869
175,490.2937626622238
176,490.2614174773909
177,490.22920218145595
178,490.1971600527063
179,490.1653341309094
180,490.13376716856607
181,490.1025015522851
182,490.07157919768065
183,490.041041421915
184,490.01092879810113
185,489.9812809950672
186,489.95213660499417
187,489.92353296079983
188,489.89550594499144
189,489.86808979179847
190,489.8413168844286
191,489.81521754911284
192,489.7898198473506
193,489.76514936773924
194,489.7412290192258
195,489.718078828636
196,489.69571574671073
197,489.67415346794644
198,489.65340226958824
199,489.633468874118
200,489.61435633823686
201,489.5960639703682
202,489.57858727828636
203,489.5619179483984
204,489.5460438582175
205,489.5309491234527
206,489.5166141807935
207,489.5030159070178
208,489.49012777476406
209,489.4779200452289
210,489.4663599976693
211,489.45541219436416
212,489.44503877789583
213,489.43519979637045
214,489.425853552302
215,489.41695697173174
216,489.4084659903902
217,489.4003359529515
218,489.3925220205785
219,489.3849795817043
220,489.3776646610419
221,489.37053432166573
222,489.3635470546554
223,489.35666315031824
224,489.3498450443805
225,489.34305763204577
226,489.3362685429933
227,489.3294483714331
228,489.3225708572027
229,489.3156130165088
230,489.3085552239029
231,489.3013812496193
232,489.29407825784125
233,489.28663677179463
234,489.2790506111887
235,489.2713168067823
236,489.26343549600585
237,489.25540980296523
238,489.2472457061193
239,489.238951897477
240,489.2305396378157
241,489.2220226124884
242,489.21341679144734
243,489.20474029539
244,489.196013268143
245,489.18725775407114
246,489.17849757837905
247,489.16975822740176
248,489.1610667255329
249,489.1524515058397
250,489.1439422728446
251,489.13556985806434
252,489.1273660711765
253,489.11936355155467
254,489.11159562568696
255,489.1040961754791
256,489.09689952115315
257,489.09004032081657
258,489.0835534869689
259,489.07747411858713
260,489.0718374464628
261,489.0666787892377
262,489.0620335178652
263,489.0579370266101
264,489.0544247087655
265,489.0515319348036
266,489.04929402992366
267,489.0477462474978
268,489.0469237352589
269,489.0468614922213
270,489.04759431572927
271,489.04915673914854
272,489.05158296154127
273,489.05490677154455
274,489.05916146857476
275,489.06437978453266
276,489.0705938075496
277,489.0778349064048
278,489.0861336516246
279,489.0955197283405
280,489.10602183684733
281,489.11766757837347
282,489.1304833246087
283,489.1444940696746
284,489.1597232630515
285,489.1761926222436
286,489.1939219248409
287,489.21292878064435
288,489.2332283852137
289,489.2548332567505
290,489.27775295912124
291,489.3019938150703
292,489.3275586149925
293,489.3544463279132
294,489.3826518225405
295,489.4121656069294
296,489.4429735945739
297,489.47505690227786
298,489.5083916819533
299,489.5429489861341
300,489.5786946661799
301,489.6155893025033
302,489.6535881671066
303,489.69264121986816
304,489.73269314112315
305,489.7736834039656
306,489.81554639009084
307,489.85821155261226
308,489.9016036282842
309,489.94564290066285
310,489.99024551561996
311,490.0353238512183
312,490.08078694434346
313,490.12654097558556
314,490.172489811386
315,490.218535599191
316,490.2645794085483
317,490.3105219094757
318,490.3562640788846
319,490.4017079257101
320,490.4467572251531
321,490.4913182519423
322,490.53530050187646
323,490.57861739001754
324,490.62118691278454
325,490.6629322603997
326,490.7037823665601
327,490.7436723842581
328,490.7825440798801
329,490.82034614106834
330,490.8570343965017
331,490.8925719476281
332,490.9269292139709
333,490.9600838953063
334,490.9920208555823
335,491.0227319346208
336,491.05221569435537
337,491.08047710678954
338,491.10752719133615
339,491.13338260993044
340,491.1580652290251
341,491.18160165760895
342,491.2040227693256
343,491.2253632149027
344,491.24566092928075
345,491.26495663681715
346,491.2832933578259
347,491.3007159199648
348,491.31727047803105
349,491.33300404545093
350,491.34796404038207
351,491.3621978490101
352,491.3757524080444
353,491.38867380738293
354,491.40100691268213
355,491.4127950067281
356,491.4240794484436
357,491.43489934906745
358,491.4452912663569
359,491.4552889193825
360,491.46492292826804
361,491.4742205844695
362,491.4832056572639
363,491.4918982407492
364,491.5003146431387
365,491.5084673173864
366,491.51636483047355
367,491.5240118686846
368,491.53140927730806
369,491.5385541343613
370,491.5454398587239
371,491.5520563534139
372,491.5583901844232
373,491.5644247943941
374,491.5701407487941
375,491.57551601068957
376,491.5805262391884
377,491.5851451064936
378,491.58934462927317
379,491.5930955111895
380,491.5963674942957
381,491.5991297172156
382,491.60135107768394
383,491.60300059667804
384,491.60404778161825
385,491.60446298689624
386,491.60421777061805
387,491.6032852462341
388,491.601640426452
389,491.5992605549338
390,491.596125419706
391,491.5922176416105
392,491.58752293144113
393,491.58203031036606
394,491.5757322898012
395,491.5686250090483
396,491.5607083311195
397,491.5519858982087
398,491.54246514775207
399,491.5321572886346
400,491.5210772361202
401,491.50924350433775
402,491.4966780565554
403,491.48340611534894
404,491.4694559365997
405,491.4548585529709
406,491.43964749410475
407,491.4238584920397
408,491.4075291810166
409,491.39069880083366
410,491.37340791219634
411,491.35569813112465
412,491.33761188762446
413,491.3191922118391
414,491.3004825491457
415,491.2815266043507
416,491.26236821404257
417,491.2430512449923
418,491.22361951549306
419,491.2041167362963
420,491.18458646846886
421,491.16507209655714
422,491.1456168162359
423,491.12626363580915
424,491.1070553905669
425,491.0880347683024
426,491.0692443434309
427,491.05072661620744
428,491.03252405271513
429,491.01467912086014
430,490.9972343177084
431,490.9802321840294
432,490.9637153024454
433,490.9477262756214
434,490.93230768058555
435,490.9175019952978
436,490.9033514944788
437,490.8898981131943
438,490.87718327822125
439,490.86524770852833
440,490.85413118721954
441,490.84387230799797
442,490.8345081996305
443,490.82607423190524
444,490.8186037059775
445,490.8121275310855
446,490.80667388920807
447,490.8022678899109
448,490.7989312192532
449,490.79668178869315
450,490.7955333917853
451,490.7954953774126
452,490.7965723480296
453,490.7987638901773
454,490.80206434304074
455,490.8064626096906
456,490.8119420149903
457,490.81848021352823
458,490.8260491501477
459,490.8346150749477
460,490.8441386141528
461,490.8545748978038
462,490.8658737446262
463,490.87797990374486
464,490.89083335244715
465,490.90436964921645
466,490.9185203411716
467,490.933213423681
468,490.9483738469178
469,490.96392406052394
470,490.9797845846107
471,490.9958745936215
472,491.0121124992633
473,491.0284165197085
474,491.0447052243734
475,491.0608980465867
476,491.0769157599779
477,491.09268091750226
478,491.10811825390726
479,491.1231550533568
480,491.13772148460464
481,491.1517509066681
482,491.1651801478537
483,491.17794975991774
484,491.19000424757274
485,491.20129227231723
486,491.21176682906923
487,491.22138539393274
488,491.2301100411887
489,491.2379075275848
490,491.2447493428627
491,491.25061172709434
492,491.25547565691943
493,491.2593268036717
494,491.26215546682204
495,491.26395648628187
496,491.26472913678066
497,491.26447700685196
498,491.2632078643733
499,491.26093351037235
500,491.2576696224887
501,491.25343558846015
502,491.24825432870585
503,491.24215210689584
504,491.2351583289294
505,491.22730533287796
506,491.2186281736538
507,491.20916440612524
508,491.19895386984126
509,491.18803847797795
510,491.1764620124472
511,491.16426992620404
512,491.1515091528628
513,491.13822792288164
514,491.1244755848273
515,491.11030242999817
516,491.09575951935153
517,491.08089851269966
518,491.0657715004357
519,491.0504308371942
520,491.03492897537797
521,491.0193182951552
522,491.00365092680914
523,490.98797856120945
524,490.9723522442978
525,490.9568221515619
526,490.94143733873653
527,490.9262454658468
528,490.9112924933782
529,490.8966223517669
530,490.8822765882825
531,490.8682939981034
532,490.8547102482694
533,490.8415575039745
534,490.82886406654444
535,490.8166540318653
536,490.80494697760616
537,490.7937576876284
538,490.7830959220515
539,490.7729662406746
540,490.7633678856267
541,490.7542947269992
542,490.7457352738531
543,490.73767275255926
544,490.73008525382636
545,490.7229459477071
546,490.71622336241245
547,490.70988171932646
548,490.7038813146697
549,490.6981789381215
550,490.69272831961285
551,490.6874805964616
552,490.6823847937328
553,490.67738831159687
554,490.67243741488915
555,490.6674777215715
556,490.6624546874946
557,490.657314084558
558,490.6520024687789
559,490.6464676346211
560,490.640659052105
561,490.63452828308084
562,490.62802937238376
563,490.6211192089218
564,490.6137578517496
565,490.60590881709294
566,490.59753932399457
567,490.58862049843515
568,490.5791275379251
569,490.5690398400663
570,490.5583410991713
571,490.5470193748414
572,490.53506713565315
573,490.52248127975736
574,490.5092631324598
575,490.49541841963054
576,490.48095721595905
577,490.46589386851485
578,490.4502468977376
579,490.4340388788718
580,490.4172963067285
581,490.4000494460124
582,490.3823321688939
583,490.36418178105237
584,490.34563883661275
585,490.3267469410025
586,490.3075525392544
587,490.2881046864284
588,490.26845479672215
589,490.24865636805936
590,490.2287646794782
591,490.2088364598074
592,490.1889295278796
593,490.1691024066138
594,490.1494139155833
595,490.1299227489118
596,490.1106870469923
597,490.0917639714394
598,490.0732092931404
599,490.0550770034579
600,490.03741895824874
601,490.02028456294244
602,490.0037205043376
603,489.9877705315891
604,489.97247528615634
605,489.95787217901153
606,489.9439953128926
607,489.93087544695464
608,489.91854000037983
609,489.90701309069203
610,489.89631560237564
611,489.8864652821384
612,489.8774768582494
613,489.86936218198866
614,489.86213038901917
615,489.85578807779194
616,489.85033950149517
617,489.845786769842
618,489.84213005701673
619,489.83936781217017
620,489.8374969691352
621,489.83651315276825
622,489.8364108803037
623,489.8371837568711
624,489.83882466451206
625,489.8413259433942
626,489.84467956253405
627,489.84887727592695
628,489.85391075946427
629,489.85977172461736
630,489.8664520060941
631,489.87394362208784
632,489.88223880736547
633,489.89133002133656
634,489.90120993506156
635,489.91187140241846
636,489.9233074212492
637,489.93551109053817
638,489.9484755696716
639,489.962194045302
640,489.9766597098342
641,489.9918657529807
642,490.0078053647112
643,490.0244717450971
644,490.04185811476987
645,490.0599577193448
646,490.0787638218398
647,490.0982696779167
648,490.1184684892078
649,490.13935333042787
650,490.1609170468369
651,490.1831521197623
652,490.2060504991105
653,490.22960340341785
654,490.25380109037644
655,490.27863260358333
656,490.3040855035921
657,490.3301455927046
658,490.356796643605
659,490.3840201422212
660,490.41179505488583
661,490.4400976285915
662,490.4689012310807
663,490.4981762353518
664,490.52788995128964
665,490.55800660527757
666,490.58848736654727
667,490.61929041710545
668,490.65037106109185
669,490.68168186941875
670,490.7131728558079
671,490.7447916802781
672,490.77648387583804
673,490.8081930941178
674,490.8398613663831
675,490.87142937802616
676,490.9028367569885
677,490.9340223787024
678,490.964924690889
679,490.9954820606563
680,491.02563314469893
681,491.0553172819602
682,491.0844749070867
683,491.11304798223097
684,491.1409804441882
685,491.1682186633548
686,491.19471191023933
687,491.2204128239859
688,491.24527787567064
689,491.26926781746874
690,491.2923481077704
691,491.31448930213037
692,491.3356674005037
693,491.35586414269653
694,491.3750672462103
695,491.3932705827002
696,491.4104742903151
697,491.4266848197753
698,491.4419149130627
699,491.45618351488207
700,491.4695156178952
701,491.48194204313336
702,491.49349915752634
703,491.50422853132085
704,491.5141765389347
705,491.52339390704435
706,491.5319352132247
707,491.5398583376409
708,491.54722387001243
709,491.554094474911
710,491.56053422023354
711,491.56660787579807
712,491.57238019095655
713,491.57791516162064
714,491.58327529792894
715,491.5885209037452
716,491.5937093782063
717,491.5988945478291
718,491.6041260357831
719,491.6094486734526
720,491.6149019585096
721,491.6205195630969
722,491.6263288950968
723,491.6323507148899
724,491.6385988097317
725,491.64507972797156
726,491.6517925756349
727,491.658728878185
728,491.6658725104095
729,491.67319969700833
730,491.6806790854922
731,491.68827189188784
732,491.69593211894266
733,491.7036068458718
734,491.7112365879977
735,491.71875572412335
736,491.7260929892318
737,491.7331720297994
738,491.73991201855426
739,491.74622832518486
740,491.7520332392582
741,491.75723674095553
742,491.7617473137994
743,491.7654727915411
744,491.7683212294407
745,491.77020178884845
746,491.7710256233796
747,491.7707067549193
748,491.76916292808403
749,491.76631643252347
750,491.7620948833906
751,491.75643195114606
752,491.7492680322981
753,491.740550852732
754,491.73023599526994
755,491.71828734339977
756,491.70467743404726
757,491.68938771408637
758,491.6724086977792
759,491.65374002493905
760,491.6333904220972
761,491.61137757167893
762,491.58772789719364
763,491.56247627481014
764,491.53566568236926
765,491.5073467959286
766,491.4775775423866
767,491.4464226153989
768,491.4139529606885
769,491.3802452358478
770,491.3453812491484
771,491.3094473819908
772,491.2725340001462
773,491.23473485927633
774,491.1961465100705
775,491.15686770774727
776,491.116998829723
777,491.0766413039605
778,491.03589704909393
779,490.99486792638163
780,490.95365520327164
781,490.91235902868954
782,490.8710779205162
783,490.8299082659429
784,490.78894383602363
785,490.7482753172859
786,490.7079898652389
787,490.668170685907
788,490.62889665149896
789,490.5902419552782
790,490.55227580907825
791,490.5150621850078
792,490.47865960118617
793,490.4431209502779
794,490.4084933690052
795,490.37481814641654
796,490.34213066865533
797,490.3104603985496
798,490.2798308893872
799,490.2502598335129
800,490.22175914779007
801,490.1943350991884
802,490.1679884741191
803,490.1427147942918
804,490.1185045802052
805,490.09534366164576
806,490.07321353333725
807,490.0520917533832
808,490.0319523820192
809,490.0127664576833
810,489.9945025060903
811,489.9771270761744
812,489.9606052950716
813,489.9449014330379
814,489.9299794680913
815,489.9158036388396
816,489.9023389725929
817,489.88955177522473
818,489.87741006979945
819,489.86588397252103
820,489.85494599668
821,489.8445712776882
822,489.834737714805
823,489.8254260278693
824,489.8166197304885
825,489.8083050243427
826,489.80047062175726
827,489.7931075053677
828,489.7862086352942
829,489.77976861621823
830,489.7737833386874
831,489.7682496102739
832,489.763164792709
833,489.7585264609133
834,489.7543320989567
835,489.7505788462159
836,489.74726330426904
837,489.7443814118376
838,489.7419283921831
839,489.73989877504283
840,489.7382864929135
841,489.7370850489549
842,489.7362877512688
843,489.73588800601823
844,489.73587965969875
845,489.73625737909373
846,489.73701705635943
847,489.73815622612597
848,489.739674481184
849,489.7415738732476
850,489.74385928535867
851,489.7465387623902
852,489.7496237860188
853,489.75312948157983
854,489.7570747472385
855,489.76148230039183
856,489.7663786407053
857,489.7717939326914
858,489.7777618133053
859,489.78431913206595
860,489.79150563261976
861,489.7993635851543
862,489.8079373789432
863,489.81727308417317
864,489.8274179920939
865,489.8384201416918
866,489.8503278390248
867,489.8631891726683
868,489.8770515266056
869,489.8919610910212
870,489.9079623717562
871,489.92509770030813
872,489.9434067476257
873,489.96292604585966
874,489.9836885224182
875,490.0057230504988
876,490.0290540199273
877,490.053700931283
878,490.0796780146407
879,490.1069938723157
880,490.13565114382044
881,490.1656461915534
882,490.1969688073801
883,490.22960194260526
884,490.26352146643876
885,490.2986959607877
886,490.3350865618927
887,490.37264686144897
888,490.411322880647
889,490.4510531296338
890,490.49176876258525
891,490.5333938354687
892,490.5758456697865
893,490.61903532110534
894,490.6628681466271
895,490.7072444625308
896,490.75206027985826
897,490.79720810695727
