frame_number,force
0,490.33041400976265
1,490.35760874227265
2,490.3847305480883
3,490.41170714934793
4,490.43846755398647
5,490.4649426703073
6,490.49106589046585
7,490.516773635613
8,490.5420058563636
9,490.5667064830921
10,490.5908238216591
11,490.61431089148226
12,490.6371257041334
13,490.6592314816752
14,490.6805968148545
15,490.7011957622139
16,490.72100789203034
17,490.74001826947983
18,490.7582173916821
19,490.7756010737006
20,490.7921702893506
21,490.80793097154765
22,490.8228937775116
23,490.8370738241908
24,490.8504903988646
25,490.8631666492975
26,490.8751292572932
27,490.8864080989606
28,490.897035894158
29,490.90704784642526
30,490.9164812737414
31,490.925375230144
32,490.9337701185625
33,490.94170729582487
34,490.9492286715365
35,490.95637630339337
36,490.96319199223814
37,490.969716880518
38,490.9759910578364
39,490.98205317729855
40,490.987940086314
41,490.9936864752623
42,490.9993245470734
43,491.0048837106644
44,491.01039030132773
45,491.0158673312325
46,491.02133427293757
47,491.02680687843593
48,491.03229703613164
49,491.0378126684597
50,491.043357673362
51,491.0489319129742
52,491.05453125229207
53,491.06014764950214
54,491.06576929866105
55,491.07138082486404
56,491.07696353191363
57,491.0824957023786
58,491.08795294931787
59,491.09330861757206
60,491.0985342304924
61,491.1035999756262
62,491.10847522060726
63,491.1131290487328
64,491.1175308027676
65,491.12165062553265
66,491.125459986624
67,491.1289321858187
68,491.1320428251449
69,491.13477024311175
70,491.13709590599956
71,491.13900475201615
72,491.14048548436017
73,491.14153080911944
74,491.1421376141036
75,491.14230708553646
76,491.1420447610509
77,491.1413605194268
78,491.1402685095272
79,491.1387870223227
80,491.13693831056503
81,491.13474836085425
82,491.13224662280277
83,491.1294656997507
84,491.1264410051979
85,491.1232103892708
86,491.1198137403766
87,491.11629256823767
88,491.1126895748697
89,491.1090482192564
90,491.10541227972095
91,491.10182541608407
92,491.0983307326019
93,491.0949703430066
94,491.0917849404073
95,491.08881337627776
96,491.0860922534089
97,491.08365553762826
98,491.0815341929652
99,491.0797558450959
100,491.07834447799
101,491.0773201682773
102,491.0766988610727
103,491.0764921901704
104,491.0767073447678
105,491.0773469840729
106,491.07840920003525
107,491.07988752679125
108,491.08177099340134
109,491.0840442147136
110,491.08668751428934
111,491.0896770732873
112,491.0929850997165
113,491.09658001333776
114,491.1004266426672
115,491.10448643200647
116,491.1087176580937
117,491.1130756574503
118,491.1175130661886
119,491.12198007359734
120,491.1264246894682
121,491.1307930235407
122,491.1350295743932
123,491.13907752521135
124,491.14287904508024
125,491.1463755959775
126,491.14950824664635
127,491.15221799484567
128,491.1544460994705
129,491.15613442379936
130,491.1572257904118
131,491.1576643471042
132,491.1573959417809
133,491.1563685030728
134,491.1545324222506
135,491.1518409307316
136,491.148250466267
137,491.14372102016995
138,491.13821645796577
139,491.1317048065135
140,491.12415850178763
141,491.1155545929614
142,491.1058748998535
143,491.0951061217769
144,491.0832398963377
145,491.07027280716704
146,491.0562063402992
147,491.04104679007554
148,491.0248051169181
149,491.0074967607271
150,490.98914141458937
151,490.9697627638528
152,490.9493881958015
153,490.9280484856345
154,490.9057774653051
155,490.88261168255804
156,490.8585900577678
157,490.833753545887
158,490.80814481013806
159,490.78180791308074
160,490.75478802941655
161,490.72713118358087
162,490.69888401411094
163,490.67009356597237
164,490.64080711134557
165,490.6110719988212
166,490.58093553064185
167,490.5504448673863
168,490.5196469588604
169,490.4885884987072
170,490.45731589873697
171,490.42587527778335
172,490.3943124593066
173,490.3626729718553
174,490.33100204666795
175,490.29934460712434
176,490.2677452455319
177,490.23624818387816
178,490.2048972166391
179,490.1737356352792
180,490.1428061353509
181,490.1121507079262
182,490.0818105176651
183,490.05182577024584
184,490.02223557192536
185,489.9930777835559
186,489.96438887077505
187,489.9362037516867
188,489.9085556432466
189,489.88147590759957
190,489.8549938996197
191,489.829136816776
192,489.80392955227666
193,489.7793945524126
194,489.7555516792672
195,489.7324180805535
196,489.7100080691415
197,489.68833301546084
198,489.6674012559703
199,489.6472180202645
200,489.62778537856065
201,489.6091022107036
202,489.5911641975559
203,489.57396383557307
204,489.5574904753504
205,489.54173038484
206,489.5266668377145
207,489.51228022706175
208,489.49854820440976
209,489.4854458440163
210,489.4729458321122
211,489.46101868004206
212,489.44963295915767
213,489.4387555545628
214,489.42835193486303
215,489.4183864355726
216,489.40882255396593
217,489.3996232527036
218,489.39075126904464
219,489.3821694263068
220,489.3738409442615
221,489.36572974506373
222,489.35780075110756
223,489.3500201709162
224,489.34235576880695
225,489.33477711378345
226,489.32725580321977
227,489.3197656575371
228,489.31228288320494
229,489.3047862029806
230,489.2972569541056
231,489.2896791567117
232,489.28203955557115
233,489.2743276385353
234,489.26653563479977
235,489.25865849570323
236,489.2506938602776
237,489.2426420074202
238,489.23450579656173
239,489.22629059904637
240,489.21800422285855
241,489.20965683338693
242,489.2012608723699
243,489.1928309761546
244,489.1843838933426
245,489.17593840112124
246,489.1675152190421
247,489.15913691856457
248,489.1508278264287
249,489.1426139201811
250,489.13452271504866
251,489.12658314264036
252,489.1188254233339
253,489.1112809353458
254,489.10398208395685
255,489.09696217407156
256,489.09025528852936
257,489.0838961736156
258,489.07792013214646
259,489.072362923538
260,489.0672606696972
261,489.0626497654486
262,489.0585667923842
263,489.05504843526415
264,489.05213140014064
265,489.04985233310754
266,489.04824773813124
267,489.047353892145
268,489.0472067557966
269,489.0478418789325
270,489.04929430074145
271,489.05159844515674
272,489.05478801260796
273,489.0588958697406
274,489.0639539392597
275,489.0699930920821
276,489.0770430429966
277,489.0851322492806
278,489.0942878101434
279,489.10453536429816
280,489.11589898347455
281,489.1284010606136
282,489.14206219209586
283,489.15690105342287
284,489.1729342676571
285,489.1901762660698
286,489.2086391409532
287,489.2283324911444
288,489.2492632611984
289,489.2714355754669
290,489.29485056884613
291,489.319506216686
292,489.3453971671187
293,489.3725145798093
294,489.40084597583416
295,489.43037510377314
296,489.46108182664295
297,489.49294203279266
298,489.52592757193685
299,489.56000621605847
300,489.595141644401
301,489.6312934519577
302,489.6684171814129
303,489.7064643791579
304,489.7453826766395
305,489.7851158988111
306,489.82560420166556
307,489.86678424057993
308,489.9085893705838
309,489.95094987910426
310,489.99379325165876
311,490.0370444713095
312,490.08062635291293
313,490.12445991265355
314,490.1684647718567
315,490.21255959211067
316,490.2566625370457
317,490.3006917551577
318,490.34456587774014
319,490.3882045259222
320,490.43152882066977
321,490.47446188932486
322,490.51692936188783
323,490.55885984973105
324,490.6001853987833
325,490.64084190876906
326,490.6807695103682
327,490.71991289341764
328,490.75822158123077
329,490.7956501481529
330,490.83215837910865
331,490.86771137105626
332,490.90227957725136
333,490.93583879626243
334,490.96837010866096
335,490.9998597650481
336,491.03029902953904
337,491.0596839831236
338,491.0880152916376
339,491.115297943556
340,491.1415409632739
341,491.1667571055962
342,491.190962536546
343,491.21417650450553
344,491.23642100463576
345,491.2577204389378
346,491.27810127426534
347,491.2975917007649
348,491.31622129326547
349,491.3340206779819
350,491.35102120668614
351,491.36725464030053
352,491.3827528435254
353,491.39754749148847
354,491.41166978866147
355,491.4251501997771
356,491.43801819243293
357,491.450301991478
358,491.46202834604776
359,491.473222311129
360,491.48390704658414
361,491.4941036372879
362,491.50383093804936
363,491.513105446147
364,491.5219412027653
365,491.5303497229464
366,491.53833995261795
367,491.5459182512243
368,491.5530883991235
369,491.55985162957745
370,491.56620668560095
371,491.57214990211673
372,491.5776753136387
373,491.58277478699483
374,491.587438177599
375,491.59165350681343
376,491.5954071573049
377,491.5986840831879
378,491.60146803218413
379,491.6037417776873
380,491.60548735911505
381,491.60668632904157
382,491.60732000537735
383,491.6073697266438
384,491.6068171085245
385,491.6056443003294
386,491.6038342403802
387,491.6013709091873
388,491.5982395785219
389,491.594427053346
390,491.58992190262273
391,491.5847146746691
392,491.5787980929114
393,491.5721672284801
394,491.5648196470327
395,491.55675552848817
396,491.54797775963556
397,491.5384920002165
398,491.5283067227857
399,491.51743322584036
400,491.5058856191391
401,491.4936807803064
402,491.4808382826748
403,491.46738029546367
404,491.4533314585133
405,491.43871873484306
406,491.4235712452796
407,491.40792009017855
408,491.39179816368886
409,491.3752399660268
410,491.35828141882035
411,491.340959687779
412,491.3233130158548
413,491.30538056888787
414,491.2872022947005
415,491.2688187958406
416,491.2502712155392
417,491.2316011357633
418,491.2128504856698
419,491.19406145864036
420,491.1752764364974
421,491.1565379201532
422,491.1378884664348
423,491.1193706309563
424,491.10102691670465
425,491.0828997275984
426,491.0650313257736
427,491.0474637907929
428,491.0302389784874
429,491.0133984768899
430,490.9969835567797
431,490.981035114685
432,490.9655936065103
433,490.9506989699796
434,490.93639053388216
435,490.92270691212
436,490.909685881092
437,490.89736423983163
438,490.8857776532318
439,490.8749604794642
440,490.8649455833005
441,490.85576413745525
442,490.84744541431576
443,490.8400165704131
444,490.83350242561824
445,490.82792523847843
446,490.82330447884823
447,490.8196565993501
448,490.81699480815615
449,490.81532884679797
450,490.81466477779793
451,490.8150047874631
452,490.8163470089931
453,490.81868537030107
454,490.8220094700229
455,490.82630448448623
456,490.83155110798356
457,490.8377255282962
458,490.84479943891154
459,490.8527400889298
460,490.8615103713415
461,490.87106895006394
462,490.881370425739
463,490.89236553985626
464,490.90400141646086
465,490.9162218406932
466,490.9289675733337
467,490.94217669968464
468,490.95578500930355
469,490.96972640092514
470,490.98393330513034
471,490.9983371162891
472,491.01286862510057
473,491.0274584436416
474,491.04203741609314
475,491.0565370101118
476,491.07088968592285
477,491.0850292420631
478,491.0988911378395
479,491.1124127931203
480,491.12553386649085
481,491.13819651315197
482,491.1503456238933
483,491.16192904584716
484,491.17289778480455
485,491.1832061881554
486,491.1928121072358
487,491.20167703779964
488,491.20976623721447
489,491.21704881699577
490,491.2234978098409
491,491.2290902113301
492,491.2338069974051
493,491.2376331193016
494,491.24055747790834
495,491.2425728796244
496,491.2436759756203
497,491.24386718603324
498,491.24315061030353
499,491.24153392475097
500,491.2390282683266
501,491.2356481168939
502,491.2314111456437
503,491.2263380791658
504,491.2204525296479
505,491.2137808249746
506,491.2063518292492
507,491.19819675825875
508,491.18934899209097
509,491.1798438867973
510,491.1697185866155
511,491.15901183773514
512,491.147763804052
513,491.1360158848541
514,491.1238105339466
515,491.1111910795907
516,491.0982015450351
517,491.08488647003514
518,491.07129073393094
519,491.0574593803441
520,491.0434374426623
521,491.0292697686821
522,491.015000842337
523,491.0006746003616
524,490.98633424180315
525,490.97202202832693
526,490.95777907340414
527,490.943645118977
528,490.92965829917875
529,490.9158548921087
530,490.90226906236353
531,490.888932598638
532,490.8758746518125
533,490.8631214793838
534,490.85069620199346
535,490.8386185774349
536,490.8269047972314
537,490.81556731088153
538,490.8046146828779
539,490.7940514871146
540,490.78387824217054
541,490.77409138965334
542,490.7646833169409
543,490.7556424253676
544,490.74695324450977
545,490.7385965919585
546,490.73054977586634
547,490.7227868354648
548,490.71527881356076
549,490.7079940549138
550,490.7008985249168
551,490.69395614356023
552,490.6871291300681
553,490.68037835411485
554,490.67366369037825
555,490.66694437407324
556,490.66017935552077
557,490.6533276516226
558,490.6463486917589
559,490.63920265553116
560,490.6318507998768
561,490.6242557730048
562,490.61638191221255
563,490.60819552225377
564,490.59966513094037
565,490.5907617192247
566,490.5814589240464
567,490.57173321355674
568,490.5615640356391
569,490.5509339415674
570,490.5398286870189
571,490.52823731257234
572,490.51615220539605
573,490.5035691430494
574,490.49048731930895
575,490.4769093512224
576,490.46284126672435
577,490.44829247304074
578,490.43327570713114
579,490.4178069699833
580,490.40190544651875
581,490.38559341250726
582,490.36889612957793
583,490.35184172916604
584,490.3344610857744
585,490.31678767911325
586,490.2988574438007
587,490.2807086048128
588,490.2623814968249
589,490.243918365736
590,490.2253631509949
591,490.2067612480608
592,490.1881592513945
593,490.16960467963173
594,490.1511456859667
595,490.13283075811074
596,490.11470841318413
597,490.09682689344703
598,490.07923386904565
599,490.0619761540593
600,490.0450994418932
601,490.02864806520387
602,490.0126647839852
603,489.9971906035217
604,489.9822646222851
605,489.9679239089546
606,489.95420340742083
607,489.9411358683608
608,489.92875180548197
609,489.91707947403
610,489.9061448690531
611,489.89597174134315
612,489.88658162961656
613,489.8779939078444
614,489.87022584649185
615,489.8632926859933
616,489.8572077204185
617,489.8519823891406
618,489.8476263743216
619,489.84414770206223
620,489.84155284522075
621,489.8398468263375
622,489.8390333196837
623,489.8391147519008
624,489.84009240080513
625,489.84196649154455
626,489.8447362884559
627,489.84840018012557
628,489.85295575483923
629,489.858399863969
630,489.8647286715768
631,489.8719376893663
632,489.8800217970887
633,489.88897524964995
634,489.89879167325506
635,489.9094640536868
636,489.92098472017835
637,489.9333453284839
638,489.94653684675023
639,489.960549547482
640,489.9753730079912
641,489.9909961201869
642,490.0074071086876
643,490.0245935545489
644,490.0425424208327
645,490.06124007602364
646,490.0806723117067
647,490.10082435139935
648,490.12168084768774
649,490.1432258650808
650,490.16544284651
651,490.18831456208613
652,490.21182303944994
653,490.23594947602163
654,490.2606741348778
655,490.2859762276627
656,490.3118337893316
657,490.3382235503288
658,490.36512081219166
659,490.3924993327324
660,490.42033122674843
661,490.44858688743494
662,490.47723493243103
663,490.5062421771208
664,490.5355736366777
665,490.56519255721787
666,490.595060475153
667,490.62513730267744
668,490.65538143671677
669,490.68574988865714
670,490.7161984323227
671,490.746681767621
672,490.7771536970923
673,490.80756731258003
674,490.8378751896605
675,490.86802958845647
676,490.89798266087763
677,490.9276866656058
678,490.957094192599
679,490.98615839835674
680,491.01483325221113
681,491.04307379305357
682,491.0708363952993
683,491.09807904244224
684,491.12476160622595
685,491.1508461291752
686,491.176297107799
687,491.2010817730361
688,491.2251703635165
689,491.2485363862408
690,491.27115685869535
691,491.2930125263322
692,491.31408804971335
693,491.3343721565318
694,491.35385775510474
695,491.37254200718775
696,491.39042635861824
697,491.4075165266807
698,491.4238224437281
699,491.4393581573926
700,491.4541416882538
701,491.46819484610353
702,491.4815430062889
703,491.494214848143
704,491.5062420579977
705,491.5176589994426
706,491.5285023532242
707,491.5388107287055
708,491.5486242486441
709,491.5579841095661
710,491.566932121081
711,491.5755102287483
712,491.5837600262738
713,491.5917222637063
714,491.5994363587963
715,491.6069399186421
716,491.6142682781497
717,491.6214540607872
718,491.6285267659523
719,491.63551238635245
720,491.6424330582281
721,491.6493067468448
722,491.65614696926696
723,491.6629625560504
724,491.66975745328074
725,491.676530566407
726,491.68327564744754
727,491.6899812272845
728,491.69663059479143
729,491.70320182427423
730,491.7096678520791
731,491.71599660250916
732,491.72215116266483
733,491.7280900053909
734,491.73376725905615
735,491.7391330225422
736,491.74413372363824
737,491.748712518814
738,491.75280973204013
739,491.75636333010056
740,491.75930943166605
741,491.76158284698687
742,491.763117644183
743,491.7638477368938
744,491.7637074868763
745,491.76263231434126
746,491.7605593084458
747,491.7574278303295
748,491.75318010132094
749,491.7477617694067
750,491.74112244763705
751,491.73321621866427
752,491.72400209989297
753,491.7134444637802
754,491.7015134078462
755,491.6881850691671
756,491.67344187872123
757,491.6572727520893
758,491.63967321454817
759,491.6206454602016
760,491.6001983463281
761,491.57834732580704
762,491.55511432232976
763,491.53052755457
764,491.50462131594196
765,491.4774357160511
766,491.44901638906055
767,491.41941417343946
768,491.38868476694097
769,491.35688836009814
770,491.32408925121666
771,491.2903554459538
772,491.25575824492086
773,491.22037182297976
774,491.18427280384776
775,491.1475398332962
776,491.11025315368704
777,491.07249418183926
778,491.03434509138395
779,490.9958884001541
780,490.9572065630038
781,490.91838157065405
782,490.87949455537824
783,490.8406254044719
784,490.8018523828243
785,490.7632517668251
786,490.72489749301525
787,490.68686082564705
788,490.64921004728944
789,490.6120101759673
790,490.5753227113258
791,490.53920541114377
792,490.5037120984727
793,490.46889249899857
794,490.4347921078405
795,490.40145208472416
796,490.36890917641097
797,490.33719566557164
798,490.3063393458826
799,490.2763635238477
800,490.2472870486515
801,490.2191243720435
802,490.19188564043026
803,490.1655768208059
804,490.14019986111873
805,490.1157528845928
806,490.0922304167503
807,490.0696236435483
808,490.0479206989362
809,490.02710697980416
810,490.0071654854759
811,489.9880771777772
812,489.96982135667594
813,489.95237604570343
814,489.9357183806822
815,489.91982499447647
816,489.9046723896495
817,489.89023729051974
818,489.87649696643336
819,489.86342951898445
820,489.85101412718603
821,489.83923124603785
822,489.8280627554479
823,489.81749205809365
824,489.8075041266956
825,489.7980855031067
826,489.7892242531272
827,489.7809098819679
828,489.773133216253
829,489.76588625965485
830,489.7591620304272
831,489.7529543898988
832,489.7472578713108
833,489.74206751827575
834,489.7373787416284
835,489.73318720239956
836,489.72948872703284
837,489.7262792590494
838,489.7235548496516
839,489.7213116883857
840,489.7195461736488
841,489.7182550213246
842,489.71743540835547
843,489.7170851467075
844,489.7172028819227
845,489.7177883094127
846,489.71884240102366
847,489.72036763409284
848,489.72236821505675
849,489.72485028964746
850,489.72782213178675
851,489.7312943032482
852,489.7352797761296
853,489.7397940108276
854,489.7448549840426
855,489.7504831640498
856,489.7567014331852
857,489.76353495961786
858,489.77101102203477
859,489.77915879210144
860,489.78800908041876
861,489.797594052005
862,489.8079469172637
863,489.8191016043279
864,489.8310924186115
865,489.84395369489476
866,489.85771944603516
867,489.8724230107798
868,489.8880967018817
869,489.9047714551884
870,489.92247648054126
871,489.94123891598326
872,489.9610834875802
873,489.98203217768486
874,490.0041039045677
875,490.02731421620604
876,490.05167500079364
877,490.07719421599654
878,490.1038756379609
879,490.1317186298817
880,490.1607179292029
881,490.19086345267345
882,490.2221401194277
883,490.2545276936316
884,490.2880006497563
885,490.3225280651468
886,490.358073546122
887,490.3945951950849
888,490.43204562655774
889,490.4703720394669
890,490.5095163515798
891,490.54941540010157
892,490.5900012101348
893,490.6312013299895
894,490.67293922957504
895,490.71513475596925
896,490.7577046390642
897,490.80056303971713
