frame_number,force
0,490.3304140092231
1,490.35760874180556
2,490.3847305476988
3,490.41170714904104
4,490.4384675537676
5,490.46494267018187
6,490.49106589043873
7,490.51677363568865
8,490.54200585654615
9,490.5667064833856
10,490.5908238220668
11,490.6143108920065
12,490.63712570477554
13,490.6592314824357
14,490.68059681573266
15,490.7011957632082
16,490.72100789313885
17,490.7400182707003
18,490.7582173930119
19,490.77560107513676
20,490.79217029089006
21,490.8079309731875
22,490.8228937792492
23,490.8370738260237
24,490.8504904007904
25,490.8631666513138
26,490.8751292593975
27,490.88640810115044
28,490.8970358964308
29,490.90704784877795
30,490.91648127617077
31,490.9253752326463
32,490.93377012113325
33,490.94170729845905
34,490.94922867422844
35,490.95637630613663
36,490.9631919950256
37,490.96971688334156
38,490.97599106068697
39,490.9820531801664
40,490.98794008918884
41,490.9936864781335
42,490.99932454993046
43,491.00488371349695
44,491.0103903041261
45,491.01586733398784
46,491.021334275642
47,491.02680688108256
48,491.03229703871455
49,491.037812670974
50,491.0433576758039
51,491.04893191534114
52,491.05453125458246
53,491.06014765171534
54,491.06576930079706
55,491.0713808269236
56,491.0769635338982
57,491.0824957042902
58,491.0879529511586
59,491.09330861934427
60,491.0985342321988
61,491.1035999772696
62,491.10847522219035
63,491.11312905025807
64,491.1175308042373
65,491.12165062694913
66,491.12545998798964
67,491.1289321871359
68,491.1320428264157
69,491.13477024433826
70,491.1370959071836
71,491.1390047531596
72,491.14048548546486
73,491.1415308101875
74,491.1421376151371
75,491.1423070865372
76,491.14204476202
77,491.14136052036486
78,491.1402685104339
79,491.1387870231973
80,491.13693831140665
81,491.134748361661
82,491.1322466235722
83,491.12946570048
84,491.12644100588426
85,491.12321038991126
86,491.11981374096774
87,491.1162925687757
88,491.11268957535066
89,491.1090482196763
90,491.10541228007577
91,491.1018254163698
92,491.09833073281504
93,491.09497034314415
94,491.091784940467
95,491.088813376258
96,491.08609225330827
97,491.08365553744574
98,491.0815341926999
99,491.0797558447476
100,491.0783444775592
101,491.0773201677653
102,491.07669886048126
103,491.0764921895019
104,491.07670734402535
105,491.07734698326044
106,491.07840919915736
107,491.0798875258533
108,491.08177099240885
109,491.08404421367203
110,491.08668751320374
111,491.0896770721622
112,491.09298509855637
113,491.0965800121471
114,491.1004266414502
115,491.1044864307672
116,491.1087176568362
117,491.1130756561783
118,491.1175130649062
119,491.1219800723086
120,491.1264246881774
121,491.1307930222525
122,491.1350295731121
123,491.1390775239417
124,491.14287904382627
125,491.14637559474374
126,491.1495082454371
127,491.15221799366486
128,491.15444609832144
129,491.15613442268506
130,491.1572257893351
131,491.15766434606735
132,491.15739594078553
133,491.1563685021198
134,491.15453242134055
135,491.1518409298647
136,491.1482504654431
137,491.14372101938864
138,491.1382164572262
139,491.1317048058145
140,491.1241585011279
141,491.11555459233966
142,491.10587489926877
143,491.09510612122864
144,491.0832398958257
145,491.0702728066911
146,491.05620633985916
147,491.04104678967144
148,491.02480511654966
149,491.00749676039374
150,490.9891414142904
151,490.9697627635877
152,490.9493881955695
153,490.9280484854342
154,490.90577746513446
155,490.8826116824146
156,490.8585900576488
157,490.83375354578936
158,490.8081448100581
159,490.7818079130147
160,490.75478802936044
161,490.7271311835308
162,490.6988840140631
163,490.6700935659227
164,490.64080711128986
165,490.6110719987553
166,490.5809355305618
167,490.55044486728895
168,490.5196469587429
169,490.4885884985669
170,490.4573158985715
171,490.4258752775908
172,490.3943124590858
173,490.3626729716057
174,490.3310020463896
175,490.2993446068177
176,490.26774524519794
177,490.2362481835182
178,490.2048972162549
179,490.1737356348731
180,490.14280613492605
181,490.1121507074864
182,490.0818105172145
183,490.0518257697887
184,490.0222355714661
185,489.99307778309924
186,489.9643888703253
187,489.9362037512476
188,489.9085556428212
189,489.8814759071908
190,489.85499389922956
191,489.8291368164055
192,489.80392955192633
193,489.7793945520826
194,489.75555167895686
195,489.7324180802613
196,489.7100080688657
197,489.68833301519965
198,489.66740125572255
199,489.6472180200297
200,489.62778537833844
201,489.6091022104935
202,489.59116419735756
203,489.5739638353863
204,489.557490475175
205,489.54173038467593
206,489.5266668375617
207,489.51228022692044
208,489.4985482042809
209,489.4854458439015
210,489.472945832014
211,489.4610186799639
212,489.44963295910384
213,489.43875555453803
214,489.42835193487196
215,489.41838643561954
216,489.4088225540549
217,489.39962325283784
218,489.3907512692266
219,489.3821694265379
220,489.37384094454274
221,489.3657297453956
222,489.35780075148995
223,489.3500201713485
224,489.34235576928796
225,489.3347771143113
226,489.3272558037917
227,489.31976565814944
228,489.3122828838536
229,489.30478620366114
230,489.2972569548133
231,489.2896791574422
232,489.2820395563201
233,489.27432763929846
234,489.266535635573
235,489.25865849648267
236,489.2506938610596
237,489.24264200820147
238,489.2345057973388
239,489.22629059981534
240,489.2180042236154
241,489.20965683412777
242,489.20126087309086
243,489.1928309768517
244,489.1843838940124
245,489.1759384017609
246,489.1675152196497
247,489.15913691913875
248,489.15082782696845
249,489.1426139206853
250,489.1345227155162
251,489.1265831430701
252,489.118825423725
253,489.11128093569783
254,489.1039820842696
255,489.09696217434544
256,489.0902552887654
257,489.0838961738154
258,489.077920132312
259,489.07236292367116
260,489.06726066980013
261,489.0626497655238
262,489.0585667924346
263,489.0550484352929
264,489.0521314001511
265,489.04985233310305
266,489.0482477381154
267,489.04735389212146
268,489.04720675576954
269,489.0478418789062
270,489.0492943007204
271,489.05159844514577
272,489.0547880126119
273,489.0588958697644
274,489.0639539393085
275,489.06999309216064
276,489.0770430431093
277,489.0851322494312
278,489.0942878103349
279,489.104535364533
280,489.11589898375445
281,489.1284010609395
282,489.1420621924674
283,489.1569010538386
284,489.1729342681146
285,489.19017626656535
286,489.2086391414824
287,489.2283324917024
288,489.24926326178024
289,489.27143557606735
290,489.2948505694597
291,489.31950621730687
292,489.34539716774094
293,489.3725145804269
294,489.400845976441
295,489.43037510436346
296,489.4610818272116
297,489.49294203333557
298,489.52592757245077
299,489.56000621654096
300,489.5951416448504
301,489.63129345237314
302,489.6684171817945
303,489.70646437950626
304,489.7453826769559
305,489.7851158990973
306,489.82560420192374
307,489.8667842408126
308,489.9085893707937
309,489.95094987929457
310,489.99379325183304
311,490.0370444714712
312,490.08062635306504
313,490.12445991279884
314,490.16846477199744
315,490.21255959224874
316,490.2566625371827
317,490.30069175529485
318,490.34456587787867
319,490.38820452606325
320,490.43152882081415
321,490.4744618894734
322,490.51692936204097
323,490.55885984988885
324,490.6001853989454
325,490.640841908935
326,490.6807695105373
327,490.7199128935891
328,490.75822158140335
329,490.7956501483254
330,490.8321583792803
331,490.8677113712268
332,490.90227957742087
333,490.9358387964311
334,490.9683701088291
335,490.99985976521594
336,491.0302990297069
337,491.0596839832916
338,491.08801529180596
339,491.1152979437247
340,491.1415409634429
341,491.1667571057657
342,491.1909625367169
343,491.21417650467873
344,491.2364210048125
345,491.25772043911934
346,491.27810127445287
347,491.2975917009596
348,491.3162212934684
349,491.3340206781942
350,491.3510212069087
351,491.36725464053393
352,491.3827528437697
353,491.39754749174324
354,491.4116697889257
355,491.4251502000493
356,491.4380181927118
357,491.4503019917623
358,491.46202834633607
359,491.47322231142
360,491.4839070468765
361,491.49410363758017
362,491.5038309383403
363,491.5131054464349
364,491.52194120304773
365,491.5303497232205
366,491.53833995288056
367,491.5459182514723
368,491.5530883993539
369,491.55985162978715
370,491.5662066857873
371,491.57214990227754
372,491.5776753137727
373,491.5827747871018
374,491.58743817767925
375,491.59165350686817
376,491.595407157336
377,491.59868408319784
378,491.6014680321758
379,491.6037417776638
380,491.60548735908003
381,491.606686328999
382,491.60732000533153
383,491.6073697265997
384,491.6068171084874
385,491.60564430030485
386,491.60383424037377
387,491.6013709092049
388,491.5982395785695
389,491.5944270534301
390,491.5899219027498
391,491.5847146748456
392,491.5787980931439
393,491.57216722877536
394,491.5648196473975
395,491.556755528929
396,491.5479777601588
397,491.5384920008283
398,491.5283067234916
399,491.5174332266453
400,491.5058856200475
401,491.49368078132176
402,491.4808382837997
403,491.46738029669956
404,491.45333145986086
405,491.4387187363022
406,491.42357124684935
407,491.4079200918571
408,491.3917981654736
409,491.3752399679139
410,491.3582814208046
411,491.34095968985406
412,491.3233130180135
413,491.3053805711221
414,491.28720229700133
415,491.26881879819854
416,491.2502712179443
417,491.23160113820563
418,491.2128504881397
419,491.19406146112874
420,491.17527643899604
421,491.1565379226545
422,491.13788846893203
423,491.1193706334436
424,491.10102691917683
425,491.0828997300514
426,491.0650313282047
427,491.04746379320017
428,491.03023898086946
429,491.01339847924584
430,490.99698355910874
431,490.98103511698656
432,490.96559360878365
433,490.9506989722239
434,490.93639053609655
435,490.922706914304
436,490.9096858832449
437,490.8973642419527
438,490.8857776553205
439,490.87496048152025
440,490.8649455853233
441,490.8557641394441
442,490.84744541626935
443,490.8400165723299
444,490.83350242749634
445,490.82792524031595
446,490.8233044806433
447,490.81965660110075
448,490.8169948098605
449,490.81532884845444
450,490.81466477940535
451,490.8150047890204
452,490.81634701049956
453,490.8186853717563
454,490.82200947142684
455,490.82630448583853
456,490.8315511092838
457,490.837725529544
458,490.84479944010684
459,490.8527400900727
460,490.86151037243275
461,490.8710689511051
462,490.8813704267326
463,490.8923655408056
464,490.90400141737024
465,490.91622184156756
466,490.9289675741784
467,490.9421767005054
468,490.9557850101062
469,490.9697264017155
470,490.9839333059141
471,490.99833711707197
472,491.01286862588813
473,491.0274584444392
474,491.04203741690566
475,491.05653701094354
476,491.07088968677743
477,491.08502924294373
478,491.0988911387488
479,491.1124127940604
480,491.1255338674635
481,491.13819651415866
482,491.1503456249349
483,491.16192904692383
484,491.1728977859159
485,491.18320618930034
486,491.1928121084126
487,491.20167703900614
488,491.209766238448
489,491.21704881825343
490,491.2234978111194
491,491.229090212626
492,491.23380699871467
493,491.23763312062107
494,491.24055747923387
495,491.24257288095214
496,491.24367597694663
497,491.2438671873547
498,491.24315061161684
499,491.2415339260532
500,491.23902826961535
501,491.23564811816755
502,491.23141114690134
503,491.2263380804074
504,491.220452530874
505,491.21378082618605
506,491.2063518304471
507,491.1981967594447
508,491.1893489932666
509,491.1798438879641
510,491.1697185877747
511,491.1590118388877
512,491.1477638051985
513,491.13601588599494
514,491.1238105350821
515,491.1111910807214
516,491.0982015461617
517,491.0848864711585
518,491.0712907350523
519,491.05745938146464
520,491.0434374437831
521,491.02926976980416
522,491.0150008434615
523,491.00067460148983
524,490.9863342429361
525,490.9720220294652
526,490.95777907454783
527,490.9436451201257
528,490.9296583003319
529,490.9158548932654
530,490.9022690635226
531,490.88893259979807
532,490.87587465297213
533,490.8631214805417
534,490.8506962031485
535,490.8386185785862
536,490.82690479837817
537,490.81556731202323
538,490.8046146840142
539,490.7940514882456
540,490.7838782432967
541,490.7740913907756
542,490.76468331806046
543,490.75564242648613
544,490.7469532456289
545,490.7385965930801
546,490.7305497769924
547,490.72278683659755
548,490.71527881470246
549,490.70799405606664
550,490.7008985260831
551,490.69395614474234
552,490.687129131268
553,490.6803783553343
554,490.67366369161914
555,490.66694437533727
556,490.66017935680924
557,490.6533276529363
558,490.6463486930978
559,490.6392026568945
560,490.6318508012627
561,490.6242557744105
562,490.61638191363477
563,490.60819552368855
564,490.5996651323833
565,490.5907617206708
566,490.58145892549004
567,490.57173321499175
568,490.56156403705916
569,490.5509339429661
570,490.5398286883898
571,490.52823731390924
572,490.5161522066931
573,490.5035691443013
574,490.49048732051136
575,490.47690935237176
576,490.4628412678183
577,490.4482924740777
578,490.4332757081102
579,490.4178069709046
580,490.4019054473832
581,490.3855934133168
582,490.3688961303356
583,490.35184172987573
584,490.33446108644085
585,490.31678767974194
586,490.29885744439764
587,490.28070860538395
588,490.26238149737657
589,490.2439183662744
590,490.2253631515261
591,490.20676124859085
592,490.1881592519293
593,490.16960468017703
594,490.15114568652814
595,490.13283075869356
596,490.1147084137932
597,490.0968268940869
598,490.0792338697207
599,490.0619761547735
600,490.04509944265016
601,490.0286480660067
602,490.0126647848366
603,489.99719060442374
604,489.9822646232393
605,489.9679239099621
606,489.9542034084825
607,489.9411358694773
608,489.9287518066537
609,489.91707947525697
610,489.9061448703348
611,489.8959717426786
612,489.88658163100484
613,489.8779939092843
614,489.8702258479815
615,489.86329268753025
616,489.8572077219996
617,489.8519823907619
618,489.84762637597873
619,489.84414770375014
620,489.84155284693355
621,489.8398468280689
622,489.83903332142705
623,489.83911475364926
624,489.8400924025518
625,489.8419664932825
626,489.84473629017816
627,489.84840018182507
628,489.85295575650906
629,489.85839986560217
630,489.8647286731665
631,489.87193769090595
632,489.8800217985724
633,489.8889752510724
634,489.89879167461186
635,489.9094640549739
636,489.92098472139236
637,489.93334532962206
638,489.9465368478105
639,489.96054954846267
640,489.9753730088911
641,489.99099612100497
642,490.00740710942296
643,490.0245935552005
644,490.04254242139916
645,490.06124007650334
646,490.08067231209805
647,490.1008243517006
648,490.12168084789715
649,490.14322586519654
650,490.1654428465304
651,490.1883145620095
652,490.2118230392747
653,490.2359494757467
654,490.26067413450244
655,490.2859762271867
656,490.31183378875505
657,490.33822354965196
658,490.36512081141507
659,490.39249933185715
660,490.42033122577607
661,490.44858688636765
662,490.4772349312713
663,490.5062421758716
664,490.5355736353424
665,490.56519255579997
666,490.5950604736564
667,490.62513730110635
668,490.6553814350755
669,490.68574988695053
670,490.7161984305556
671,490.7466817657983
672,490.77715369521917
673,490.8075673106621
674,490.8378751877036
675,490.8680295864674
676,490.89798265886367
677,490.92768666357483
678,490.9570941905594
679,490.98615839631736
680,491.01483325018114
681,491.0430737910421
682,491.07083639331506
683,491.0980790404933
684,491.12476160431953
685,491.15084612731744
686,491.1762971059951
687,491.2010817712904
688,491.22517036183217
689,491.24853638462025
690,491.2711568571402
691,491.2930125248436
692,491.31408804829186
693,491.3343721551776
694,491.3538577538178
695,491.37254200596755
696,491.3904263574635
697,491.40751652558964
698,491.4238224426982
699,491.43935815642084
700,491.4541416873366
701,491.4681948452368
702,491.48154300546844
703,491.4942148473644
704,491.50624205725643
705,491.51765899873385
706,491.5285023525431
707,491.53881072804654
708,491.5486242480011
709,491.5579841089324
710,491.5669321204493
711,491.57551022811117
712,491.5837600256239
713,491.5917222630367
714,491.59943635810026
715,491.6069399179136
716,491.61426827738353
717,491.6214540599792
718,491.6285267650994
719,491.6355123854525
720,491.64243305728
721,491.64930674584826
722,491.65614696822246
723,491.6629625549589
724,491.66975745214404
725,491.6765305652274
726,491.6832756462279
727,491.6899812260284
728,491.69663059350245
729,491.70320182295575
730,491.70966785073415
731,491.71599660114026
732,491.72215116127427
733,491.7280900039812
734,491.73376725762984
735,491.739133021102
736,491.74413372218703
737,491.7487125173546
738,491.7528097305756
739,491.7563633286342
740,491.7593094302015
741,491.7615828455278
742,491.76311764273345
743,491.7638477354581
744,491.76370748545924
745,491.7626323129481
746,491.7605593070826
747,491.75742782900306
748,491.7531801000387
749,491.74776176817653
750,491.7411224464672
751,491.7332162175635
752,491.72400209887024
753,491.71344446284456
754,491.70151340700653
755,491.6881850684322
756,491.6734418780996
757,491.6572727515893
758,491.63967321417766
759,491.62064545996776
760,491.60019834623705
761,491.57834732586366
762,491.5551143225382
763,491.5305275549334
764,491.50462131646276
765,491.47743571673124
766,491.44901638990115
767,491.4194141744406
768,491.38868476810165
769,491.3568883614164
770,491.3240892526896
771,491.2903554475777
772,491.2557582466913
773,491.2203718248915
774,491.1842728058945
775,491.14753983547064
776,491.110253155981
777,491.07249418424414
778,491.0343450938909
779,490.995888402754
780,490.9572065656873
781,490.91838157341164
782,490.87949455820086
783,490.84062540735084
784,490.8018523857513
785,490.76325176979265
786,490.7248974960165
787,490.6868608286762
788,490.64921005034154
789,490.6120101790381
790,490.57532271441136
791,490.53920541424054
792,490.5037121015771
793,490.46889250210717
794,490.4347921109504
795,490.4014520878329
796,490.36890917951627
797,490.33719566867103
798,490.30633934897367
799,490.2763635269282
800,490.2472870517197
801,490.21912437509815
802,490.19188564347047
803,490.16557682383103
804,490.1401998641283
805,490.11575288758615
806,490.0922304197265
807,490.06962364650593
808,490.0479207018731
809,490.0271069827179
810,490.0071654883632
811,489.9880771806342
812,489.9698213594982
813,489.95237604848586
814,489.93571838341916
815,489.9198249971623
816,489.9046723922787
817,489.8902372930872
818,489.87649696893425
819,489.86342952141524
820,489.85101412954435
821,489.83923124832216
822,489.82806275765756
823,489.81749206022937
824,489.8075041287593
825,489.7980855051012
826,489.7892242550561
827,489.7809098838353
828,489.7731332180633
829,489.76588626141285
830,489.7591620321373
831,489.7529543915655
832,489.74725787293835
833,489.74206751986844
834,489.7373787431902
835,489.7331872039341
836,489.7294887285432
837,489.72627926053826
838,489.7235548511214
839,489.72131168983856
840,489.7195461750866
841,489.718255022749
842,489.717435409768
843,489.71708514810916
844,489.7172028833139
845,489.7177883107934
846,489.71884240239314
847,489.72036763545
848,489.72236821640007
849,489.7248502909753
850,489.72782213309756
851,489.7312943045403
852,489.7352797774014
853,489.7397940120775
854,489.7448549852691
855,489.75048316525147
856,489.7567014343607
857,489.763534960766
858,489.7710110231542
859,489.7791587931906
860,489.78800908147593
861,489.7975940530283
862,489.807946918251
863,489.81910160527724
864,489.83109241952087
865,489.84395369576214
866,489.8577194468583
867,489.87242301155646
868,489.88809670260986
869,489.90477145586647
870,489.92247648116785
871,489.94123891655715
872,489.96108348810066
873,489.9820321781519
874,490.00410390498195
875,490.0273142165683
876,490.05167500110497
877,490.07719421625796
878,490.1038756381735
879,490.1317186300469
880,490.160717929323
881,490.19086345275105
882,490.2221401194656
883,490.25452769363244
884,490.28800064972285
885,490.3225280650818
886,490.3580735460288
887,490.39459519496694
888,490.43204562641904
889,490.4703720393119
890,490.50951635141377
891,490.5494153999305
892,490.5900012099653
893,490.6312013298283
894,490.67293922942906
895,490.7151347558456
896,490.7577046389699
