acceleration,velocity,displacement
0.01948105977353234,0.0,0.0
0.018908152062222038,9.597302958938594e-06,2.3993257397346486e-09
0.01833686109034861,1.8908556247081256e-05,9.52579054123961e-09
0.017768792168016925,2.793496956167264e-05,2.1236671993428085e-08
0.017205527838288173,3.6678549563248916e-05,3.7390051774658474e-08
0.01664861671227534,4.5142085700889794e-05,5.784521059069315e-08
0.016099562551466332,5.332913051682521e-05,8.24630146451219e-08
0.015559813679795677,6.124397457464071e-05,1.1110629091798838e-07
0.015030752828038505,6.889161620159926e-05,1.4364018861204835e-07
0.01451368753583879,7.627772629256858e-05,1.7993252423559032e-07
0.014009841254873659,8.34086084902467e-05,2.1985410793129414e-07
0.013520345304717199,9.029115513014441e-05,2.6327904883639194e-07
0.01304623182841898,9.693279941342845e-05,3.100850374722852e-07
0.012588427879784266,0.00010334146434047926,3.601536034107621e-07
0.012147750750770419,0.00010952550899811792,4.133703467454114e-07
0.011724904612712228,0.00011549367283898859,4.6962514220468806e-07
0.011320478498344803,0.00012125501861675285,5.288123150686234e-07
0.010934945600400684,0.00012681887464143922,5.908307883831715e-07
0.010568663819695706,0.00013219477699646332,6.555842012926471e-07
0.010221877467754959,0.00013739241231832598,7.229809986213444e-07
0.009894720012470484,0.00014242156168838235,7.929344921230215e-07
0.009587217743539331,0.0001472920461273848,8.653628940769633e-07
0.009299294227888064,0.00015201367412024164,9.401893241388699e-07
0.009030775428790924,0.00015659619153441138,1.017341790552533e-06
0.00878139537516675,0.0001610492342354008,1.0967531469949862e-06
0.00855080228143745,0.00016538228364955184,1.1783610264662244e-06
0.008338565025437773,0.00016960462547627064,1.26210775374768e-06
0.008144179891920048,0.0001737253117056101,1.3479402380431503e-06
0.007967077489812967,0.00017775312605104333,1.4358098474823136e-06
0.0078066297592669755,0.0001816965528633133,1.5256722672109027e-06
0.007662156998615361,0.00018556374955278388,1.617487342814927e-06
0.007532934854400347,0.0001893625225160378,1.7112189108321324e-06
0.007418201224296199,0.00019310030653571194,1.8068346180950697e-06
0.007317163021930103,0.0001967841475972685,1.904305731628315e-06
0.007229002747991618,0.00020042068903974893,2.0036069407875695e-06
0.007152884810985077,0.0002040161609294931,2.10471615327988e-06
0.007087961548444054,0.0002075763725193504,2.207614286642091e-06
0.007033378914300969,0.00021110670763503664,2.312285056680688e-06
0.0069882818153570525,0.00021461212281745115,2.41871476429381e-06
0.0069518190933578325,0.00021809714804462988,2.5268920820093303e-06
0.006923148157288693,0.00022156588985729151,2.6368078414848106e-06
0.006901439276962699,0.00022502203671585436,2.748454823128097e-06
0.006885879559798253,0.0002284688664250446,2.8618275489133216e-06
0.0068756766478712174,0.00023190925547696196,2.9769220793888233e-06
0.0068700621856917,0.0002353456901853527,3.093735815804402e-06
0.006868295112337463,0.00023878027950986,3.2122673082282052e-06
0.006869664817837103,0.00024221476949240362,3.3325160704787713e-06
0.006873494172823935,0.0002456505592400689,3.4544824026618894e-06
0.006879142400960017,0.0002490887183835149,3.5781672220677853e-06
0.0068860077281059934,0.0002525300059157814,3.7035719031426093e-06
0.00689352972080832,0.00025597489027801,3.830698127191057e-06
0.006901191224940421,0.0002594235705144472,3.9595477423891715e-06
0.0069085198346778,0.00026287599827935174,4.090122634587621e-06
0.006915088857708375,0.0002663319004524483,4.222424609270571e-06
0.006920517782367611,0.0002697908021124673,4.3564552849118e-06
0.006924472280282021,0.0002732520496281297,4.492215997846949e-06
0.006926663782413831,0.0002767148336438037,4.629707718664933e-06
0.006926848649821417,0.0002801782117518625,4.768930980013849e-06
0.00692482693868668,0.0002836411306489895,4.9098858156140626e-06
0.00692044074397662,0.00028710244756965535,5.052571710168724e-06
0.006913572095826909,0.00029056095077960623,5.196987559756039e-06
0.006904140373677327,0.00029401537889698227,5.343131642175187e-06
0.00689209920083232,0.0002974644387906097,5.4910015965970844e-06
0.006877432796275123,0.00030090682178988656,5.640594411742208e-06
0.006860151791459329,0.0003043412179368202,5.791906421673885e-06
0.006840288555982537,0.00030776632802368065,5.94493330816401e-06
0.006817892105935036,0.00031118087318916007,6.09967010846722e-06
0.0067930226916087895,0.000314583601888546,6.256111227236646e-06
0.006765746182909005,0.00031797329410717545,6.4142504512355765e-06
0.006736128391565309,0.000321348762750794,6.574080965450069e-06
0.00670422948529334,0.00032470885222000864,6.7355953691927694e-06
0.006670098658376185,0.00032805243425592604,6.8987856908117535e-06
0.006633769222561309,0.00033137840122616043,7.063643399682275e-06
0.006595254266700923,0.000334685657098476,7.230159414263434e-06
0.006554543005683558,0.0003379731064165721,7.398324105142196e-06
0.006511597909509152,0.00034123964164537026,7.568127292157682e-06
0.006466352676338846,0.0003444841292918323,7.739558234891982e-06
0.006418711084671603,0.00034770539523208487,7.91260561602296e-06
0.006368546727021274,0.00035090220968500807,8.087257517252233e-06
0.006315703594721546,0.00035407327226544375,8.263501387739846e-06
0.006259997456104271,0.0003572171975281502,8.441324005188245e-06
0.006201217949862681,0.00036033250137964195,8.620711429915193e-06
0.006139131301103089,0.0003634175886923834,8.8016489524332e-06
0.006073483558879314,0.000366470742407379,8.984121035208139e-06
0.006004004253891457,0.0003694901143605717,9.168111249400126e-06
0.005930410386852408,0.00037247371802075766,9.353602207495459e-06
0.005852410681209327,0.0003754194232877731,9.540575492822591e-06
0.005769710061784408,0.0003783249534735215,9.729011587012916e-06
0.005682014343384474,0.00038118788457481374,9.918889796525e-06
0.005589035124340681,0.00038400564694174506,1.011018817940414e-05
0.005490494881630027,0.00038677552944323774,1.0302883473500385e-05
0.005386132262869989,0.00038949468622936277,1.0496951027418535e-05
0.005275707567100026,0.0003921601461868553,1.0692364735522589e-05
0.005159008395786815,0.00039476882517757697,1.0889096978363698e-05
0.005035855435713162,0.000397317541135452,1.1087118569941955e-05
0.004906108311429297,0.0003998030320722376,1.1286398713243877e-05
0.004769671421675044,0.0004022219770055137,1.1486904965513315e-05
0.004626499649373432,0.0004045710197732758,1.1688603214708012e-05
0.004476603807753612,0.00040684679563755756,1.189145766856072e-05
0.004320055664404687,0.0004090459605055971,1.2095430857596508e-05
0.004156992382157871,0.0004111652225172378,1.2300483653352217e-05
0.003987620234306921,0.000413201375671354,1.2506575302899365e-05
0.0038122174866530314,0.000415151335101594,1.2713663480592602e-05
0.0036311363812983853,0.00041701217356858184,1.2921704357760145e-05
0.003444804197710487,0.00041878115871333405,1.3130652690830624e-05
0.003253723397595091,0.00042045579061216045,1.3340461928161997e-05
0.003058470879212319,0.0004220338391813623,1.3551084335610377e-05
0.0028596963772134503,0.0004235133809954687,1.3762471140654584e-05
0.002658120050784897,0.0004248928351024683,1.3974572694679069e-05
0.002454529306101571,0.0004261709974416899,1.4187338652815109e-05
0.0022497748971886406,0.0004273470734925125,1.440071817054866e-05
0.002044766345575281,0.00042842070880320346,1.4614660116122589e-05
0.0018404667228286312,0.00042939201707030444,1.4829113297590966e-05
0.0016378868568348462,0.0004302616054652203,1.5044026703224847e-05
0.0014380790474403664,0.0004310305969412891,1.5259349753826474e-05
0.0012421303954892903,0.0004317006493020215,1.54750325653873e-05
0.0010511558489087198,0.000432273970863121,1.5691026220428585e-05
0.0008662910491047174,0.0004327533325876244,1.590728304629127e-05
0.0006886850288516734,0.0004331420766071135,1.6123756898589955e-05
0.0005194927793297932,0.0004334441210591589,1.6340403448006522e-05
0.0003598676784927867,0.00043366396117361453,1.6557180468564715e-05
0.00021095376491090724,0.00043380666653446544,1.6774048125491736e-05
7.387785565499918e-05,0.0004338778744396069,1.6990969260735253e-05
-5.0258460159737265e-05,0.00043388377928848073,1.7207909674167275e-05
-0.00016038687928730233,0.00043383111795361896,1.74248383984778e-05
-0.0002554803839315554,0.00043372715113781425,1.7641727965750657e-05
-0.0003345610509175127,0.000433579640779102,1.7858554663729887e-05
-0.0003967075348619156,0.00043339682363265715,1.8075298779832827e-05
-0.0004410620994543183,0.0004331873812240781,1.829194483104701e-05
-0.0004668370826552056,0.00043296040642855073,1.8508481777960167e-05
-0.00047332068924278985,0.0004327253669855762,1.87249032213137e-05
-0.00045988200931918003,0.0004324920663109357,1.8941207579637826e-05
-0.0004259751671363136,0.00043227060201682187,1.9157398246719764e-05
-0.00037114251057383,0.00043207132259739434,1.9373483727873318e-05
-0.0002950167581620117,0.0004319047827802104,1.958947775421772e-05
-0.0001973220334365531,0.0004317816980823107,1.980539937443335e-05
-7.787374487199268e-05,0.00043171289913773356,2.002127302373836e-05
6.342268390988702e-05,0.00043170928637249306,2.0237128570115915e-05
0.00022657417499219798,0.0004317817855872186,2.0453001338105844e-05
0.00041150334403973026,0.00043194130496697656,2.0668932110744393e-05
0.0006180527025918228,0.00043219869397863444,2.0884967110480795e-05
0.0008459895663156234,0.0004325647045458613,2.110115796011192e-05
0.0010950115090178798,0.00043304995481469467,2.131756162495206e-05
0.001364752191346349,0.00043366489573978573,2.153424033759068e-05
0.001654787387352967,0.00043441978063446057,2.1751261506684243e-05
0.001964641039313508,0.00043532463774112717,2.196869761127814e-05
0.002293791196501453,0.0004363892458000809,2.218662608216344e-05
0.0026416757341978917,0.00043762311253275573,2.240512917174665e-05
0.0030076977935388207,0.0004390354559146899,2.262429381385851e-05
0.003391230916884523,0.00044063518809229574,2.2844211474860257e-05
0.0037916238713635035,0.00044243090178935776,2.306497799733067e-05
0.004208205161099944,0.0004444308590474736,2.328669343753988e-05
0.004640287236999065,0.00044664298214699836,2.3509461897838498e-05
0.005087170424200475,0.0004490748465622982,2.3733391355015822e-05
0.005548146594006209,0.0004517336758168499,2.3958593485610608e-05
0.006022502603274552,0.0004546263381161701,2.4185183489093863e-05
0.0065095235133126724,0.0004577593446453169,2.4413279909784236e-05
0.007008495590646294,0.00046113884942130666,2.4643004458300893e-05
0.007518709088042356,0.0004647706505909788,2.4874481833303965e-05
0.008039460804311777,0.0004686601930640673,2.5107839544217727e-05
0.008570056421405538,0.0004728125723704966,2.534320773557637e-05
0.009109812613807024,0.00047723253962929976,2.5580719013576318e-05
0.009658058916876653,0.00048192450751197066,2.5820508275361636e-05
0.010214139328998482,0.00048689255707343946,2.6062712541507987e-05
0.0107774136105182,0.0004921404453083186,2.6307470792103426e-05
0.011347258233755653,0.0004976716132693871,2.6554923806747852e-05
0.011923066934439027,0.0005034891945614357,2.6805214008705558e-05
0.01250425081860018,0.0005095960239996955,2.705848531334584e-05
0.013090237994805316,0.0005159946462030469,2.7314882980896526e-05
0.013680472731201277,0.0005226873238845485,2.7574553473418424e-05
0.014274414175641934,0.0005296760456112593,2.7837644315792375e-05
0.014871534715613312,0.0005369625328340732,2.810430396040371e-05
0.015471318084416326,0.0005445482460340806,2.8374681655120746e-05
0.016073257337163915,0.0005524343898894757,2.8648927314101636e-05
0.016676852823872487,0.0005606219174297348,2.892719139093144e-05
0.017281610276197776,0.0005691115332047523,2.9209624753590063e-05
0.017887039100265265,0.0005779036955488681,2.949637856077847e-05
0.01849265093856887,0.0005869986180585767,2.978760413918033e-05
0.019097958539526196,0.0005963962704281005,3.0083452861302e-05
0.019702474958605318,0.0006060963788026333,3.0384076023609682e-05
0.020305713107588958,0.0006160984258191819,3.0689624724765135e-05
0.0209071856631654,0.0006264016505118706,3.10002497438479e-05
0.021506405336118563,0.0006370050482616916,3.1316101418541286e-05
0.022102885481860086,0.0006479073709661862,3.163732952334825e-05
0.022696141003090125,0.0006591071275874238,3.196408314798666e-05
0.02328568946734381,0.0006706025852050323,3.2296510576184776e-05
0.023871052346940886,0.0006823917706586034,3.2634759165150685e-05
0.02445175628873257,0.0006944724728175218,3.297897522601972e-05
0.025027334331636928,0.0007068422454726142,3.332930390559225e-05
0.025597327006897683,0.0007194984108072479,3.368588906966222e-05
0.026161283274307043,0.0007324380633775491,3.4048873188208415e-05
0.02671876126215836,0.0007456580745116655,3.441839722268072e-05
0.027269328787407135,0.0007591550970240568,3.479460051556465e-05
0.027812563637623605,0.0007729255701303145,3.5177620682353244e-05
0.02834805360118484,0.0007869657244400167,3.556759350599583e-05
0.02887539623916693,0.0008012715869001047,3.596465283383086e-05
0.02939419840070781,0.0008158389855600734,3.636893047694591e-05
0.029904075490602606,0.000830663554032901,3.678055611184415e-05
0.03040465050191863,0.0008457407355310313,3.719965718423513e-05
0.030895552829218124,0.0008610657863638155,3.762635881470884e-05
0.031376416882148685,0.0008766337787916572,3.806078370599771e-05
0.03184688052564514,0.0008924396031436057,3.850305205148153e-05
0.032306583381726886,0.0009084779691204487,3.895328144454754e-05
0.032755165040600324,0.0009247434062260305,3.9411586788384165e-05
0.03319226324539553,0.0009412302632975294,3.987808020576506e-05
0.033617512130949864,0.0009579327071416158,4.0352870948374845e-05
0.03403054060687379,0.0009748447203260717,4.0836065305241764e-05
0.03443097097760199,0.0009919600982221906,4.132776650987883e-05
0.03481841788896494,0.0010092724454388324,4.182807464579408e-05
0.035192487682142296,0.0010267751718316092,4.2337086550111694e-05
0.03555277821993969,0.0010444614883071298,4.2854895715146375e-05
0.03589887922718373,0.0010623244026689107,4.338159218789038e-05
0.03623037315882294,0.0010803567157654124,4.391726246749896e-05
0.03654683657831582,0.001098551018199697,4.446198940099024e-05
0.0368478419987508,0.0011168996878439638,4.5015852077501156e-05
0.03713296011594958,0.001135394888372639,4.557892572155531e-05
0.03740176234841899,0.0011540285689887312,4.615128158589565e-05
0.03765382358665619,0.0011727924654725,4.673298684451096e-05
0.03788872503980241,0.0011916781026291147,4.732410448653636e-05
0.03810605705964493,0.0012106767981539764,4.7924693211732134e-05
0.0383054218348452,0.001229779667877599,4.8534807328240026e-05
0.038486435886236445,0.0012489776323078693,4.915449665328639e-05
0.0386487323450748,0.0012682614243656972,4.9783806417454786e-05
0.03879196303854909,0.0012876215982116032,5.042277717309911e-05
0.03891580042485779,0.0013070485390774549,5.107144470742137e-05
0.0390199394150054,0.0013265324740374207,5.1729839960700094e-05
0.03910409910433889,0.0013460634836672568,5.2397988950126265e-05
0.03916802442670682,0.0013656315145500182,5.3075912699680586e-05
0.039211487742273364,0.0013852263925922632,5.376362717646616e-05
0.03923429037414641,0.0014048378371213682,5.4461143233894566e-05
0.03923626411304158,0.0014244554757431652,5.51684665621107e-05
0.03921727270677446,0.0014440688599481192,5.5885597646033524e-05
0.039177213340816947,0.0014636674814600171,5.661253173138556e-05
0.039116018103612406,0.0014832407893211246,5.734925879908084e-05
0.039033655422214,0.0015027782077025812,5.8095763548336766e-05
0.03893013144861096,0.0015222691544202875,5.885202538886748e-05
0.03880549136986987,0.0015417030601249076,5.961801844250378e-05
0.03865982060737061,0.0015610693881192178,6.039371155456481e-05
0.03849324586766688,0.001580357654737977,6.117906831527911e-05
0.0383059360099362,0.0015995574502073778,6.197404709151545e-05
0.03809810269715632,0.001618658459884151,6.277860106903833e-05
0.03787000079885383,0.0016376504857581536,6.359267830544892e-05
0.037621928515825444,0.0016565234680868234,6.441622179391016e-05
0.03735422720459025,0.0016752675070169274,6.52491695376861e-05
0.03706728089158655,0.0016938728840409716,6.609145463545057e-05
0.03676151548190375,0.0017123300831343442,6.69430053772444e-05
0.03643739767907036,0.0017306298114245877,6.780374535088414e-05
0.03609543363716954,0.0017487630192536477,6.867359355855369e-05
0.03573616736422321,0.0017667209195039958,6.955246454324311e-05
0.03536017888918148,0.001784495006067347,7.044026852463594e-05
0.034968082197542376,0.001802077071339028,7.133691154398753e-05
0.03456052293728443,0.0018194592226227348,7.224229561747797e-05
0.03413817590055024,0.0018366338973321934,7.31563188974667e-05
0.03370174229529028,0.0018535938768811536,7.407887584102003e-05
0.03325194682949872,0.0018703322991623509,7.50098573850309e-05
0.032789534634155335,0.0018868426695282643,7.594915112720355e-05
0.03231526804882102,0.0019031188701990084,7.689664151213537e-05
0.03182992328865034,0.0019191551680333764,7.785221002169346e-05
0.03133428700914653,0.0019349462206078255,7.881573536885377e-05
0.03082915278842031,0.0019504870805572172,7.978709369414503e-05
0.030315317552886387,0.001965773198142544,8.076615876381997e-05
0.029793577977535166,0.0019808004220251496,8.175280216886189e-05
0.029264726898308384,0.0019955649982441107,8.274689352392921e-05
0.028729549783427667,0.0020100635674145445,8.374830066534387e-05
0.028188821314682963,0.002024293160189072,8.475688984724477e-05
0.027643302119496296,0.002038251191047617,8.577252593505395e-05
0.027093735674680586,0.002051935450496161,8.67950725954399e-05
0.026540845389167067,0.0020653440957621233,8.782439248200448e-05
0.02598533187320917,0.002078475640077717,8.886034741596443e-05
0.02542787040827215,0.0020913289406480876,8.990279856114589e-05
0.024869108637212596,0.002103903185409459,9.095160659266027e-05
0.02430966449962667,0.002116197878693669,9.200663185868606e-05
0.023750124444343653,0.0021282128259296615,9.30677345348419e-05
0.0231910419550034,0.0021399481175294983,9.413477477070669e-05
0.022632936417654452,0.0021514041121226627,9.520761282811972e-05
0.022076292338105836,0.0021625814193116026,9.628610921097829e-05
0.021521558886494888,0.0021734808821177527,9.737012478633563e-05
0.020969149717229837,0.002184103559268684,9.845952089668223e-05
0.02041944299452876,0.0021944507074466236,9.955415946336106e-05
0.019872781551663665,0.002204523763583172,0.0001006539030811185
0.019329473123136907,0.002214324327251872,0.00010175861510382726
0.018789790606358717,0.002223854143184246,0.00010286815972143629
0.018253972327049388,0.002233115083917598,0.00010398240202821175
0.017722222298618796,0.002242109132574015,0.00010510120808233466
0.017194710481351568,0.0022508383657690078,0.00010622444495692041
0.016671573058886082,0.002259304936654067,0.00010735198078252618
0.01615291275124906,0.002267511058106601,0.00010848368478121635
0.01563879917705874,0.002275458986088678,0.00010961942729226516
0.015129269272965882,0.002283151003201184,0.00011075907978958763
0.014624327781050094,0.002290589402464688,0.0001119025148910041
0.014123947819187327,0.0022977764713647472,0.00011304960635946146
0.013628071546651323,0.002304714476206207,0.00011420022909635419
0.01313661092729954,0.002311405646824695,0.00011535425912711192
0.0126494485827338,0.0023178521617022033,0.00011651157357924364
0.012166438725779348,0.0023240561335293314,0.00011767205065305153
0.011687408173177994,0.002330019595254071,0.00011883556958524739
0.01121215745186963,0.002335744486660333,0.00012000201060572598
0.010740462026717572,0.0023412326415299797,0.00012117125488777356
0.010272073679339272,0.002346485775456494,0.00012234318449202018
0.009806722055067876,0.0023515054743900956,0.0001235176823044818
0.009344116375809794,0.002356293183997815,0.00012469463196907878
0.008883947301908581,0.0023608501999172445,0.00012587391781505755
0.008425888921444491,0.0023651776589730827,0.00012705542477978014
0.007969600847894552,0.0023692765314154173,0.00012823903832737726
0.007514730408569354,0.0023731476142295335,0.0001294246443637885
0.007060914900235563,0.002376791525556735,0.00013061212914873508
