acceleration,velocity,displacement
-0.0698791832249168,0.0,0.0
-0.0619105954870538,-6.589488935598532e-05,-3.294744467799266e-08
-0.05421785218287258,-0.00012395911319094851,-1.2787444595145959e-07
-0.0470467201515155,-0.00017459139935814257,-2.7714970222600517e-07
-0.040588486479464676,-0.00021840900267363267,-4.736499032418928e-07
-0.03496512522223375,-0.0002561858085244819,-7.109473088409501e-07
-0.030225351510178345,-0.00028878104689068795,-9.83430736548535e-07
-0.026350557364142307,-0.00031706900132784827,-1.2863557606578032e-06
-0.023267994267610517,-0.0003418782771437247,-1.6158293998935896e-06
-0.020867718201107287,-0.0003639461333780836,-1.9687416051544937e-06
-0.019019861218504356,-0.00038388992308788943,-2.3426596333874803e-06
-0.01758969592868498,-0.0004021947016614841,-2.735701945762167e-06
-0.016449225270560683,-0.00041921416226110695,-3.1464063777234625e-06
-0.01548504227891637,-0.00043518129603584545,-3.5736041068719385e-06
-0.014602736387788508,-0.00045022518536919786,-4.01630734757446e-06
-0.013728379769354392,-0.0004643907434477693,-4.473615311982944e-06
-0.012807895093963833,-0.00047765888087942843,-4.944640124146542e-06
-0.011805428712004642,-0.0004899655427824126,-5.428452335977463e-06
-0.010701956288250127,-0.00050121923528254,-5.924044725009939e-06
-0.009494876033495796,-0.000511317651443413,-6.430313168372915e-06
-0.008198318781248035,-0.0005201642488507849,-6.946054118520014e-06
-0.006842924141048042,-0.0005276848703119329,-7.469978678101373e-06
-0.005473616257494051,-0.000533843140511204,-8.000742683512941e-06
-0.004144617041182532,-0.0005386522571605424,-8.536990382348815e-06
-0.0029120516394679076,-0.0005421805915008676,-9.07740680667952e-06
-0.0018253794492320754,-0.0005445493070452176,-9.620771755952564e-06
-0.0009192362631968755,-0.0005459216149014321,-1.0166007216925888e-05
-0.00020721545829594624,-0.0005464848407621785,-1.0712210444757693e-05
0.00032116447918645145,-0.0005464278662517333,-1.1258666798264649e-05
0.0006995805001209544,-0.0005459174937620795,-1.1804839478271556e-05
0.0009802477239825272,-0.0005450775796500278,-1.235033701497761e-05
0.0012266474605054313,-0.0005439741320577838,-1.2894862870831515e-05
0.001505547006220664,-0.0005426080348244208,-1.3438153954272618e-05
0.0018802973365407369,-0.0005409151126530401,-1.397991552801135e-05
0.0024067675188231327,-0.0005387715802253582,-1.4519758874450548e-05
0.003132181166341718,-0.0005360021058827757,-1.5057145717504615e-05
0.004095953499830456,-0.0005323880385496895,-1.559134078972085e-05
0.005330854489466745,-0.0005276746345550409,-1.6121372126273213e-05
0.006862825651861493,-0.0005215777944843768,-1.6645998340792923e-05
0.00870854661349893,-0.0005137921083516965,-1.716368329221096e-05
0.010870884622106208,-0.0005040023927338939,-1.7672580542753755e-05
0.013333116116379082,-0.0004919003923646513,-1.8170531935303026e-05
0.01605317696375412,-0.00047720724582458465,-1.8655085754397646e-05
0.018959375260404733,-0.00045970096971250523,-1.912353986216619e-05
0.021949052367322832,-0.00043924675589864144,-1.9573013724971765e-05
0.024891486475184132,-0.00041582648647738794,-2.000055034615978e-05
0.027635790432118647,-0.00038956284802373655,-2.0403245013410342e-05
0.030023625113153252,-0.0003607331402511006,-2.077839300754776e-05
0.031905343837838614,-0.0003297686557756047,-2.112364390556111e-05
0.03315710321539332,-0.0002972374322489887,-2.143714694957341e-05
0.03369604487727535,-0.0002638108582026544,-2.171767109479923e-05
0.03349106402183262,-0.00023021730375310043,-2.196468517577711e-05
0.03256764815884996,-0.00019718794766275915,-2.217838780148504e-05
0.031006359932529544,-0.0001654009436170694,-2.2359682247124955e-05
0.028935501383173814,-0.0001354300129592177,-2.25100977254131e-05
0.02651924352924073,-0.00010770264050301043,-2.2631664052144213e-05
0.023942914920721595,-8.247156127802927e-05,-2.2726751153034733e-05
0.021397109204723354,-5.980154921530679e-05,-2.27978877082814e-05
0.019061906015503727,-3.957204160519325e-05,-2.284757450369165e-05
0.0170920563667157,-2.1495060414083536e-05,-2.287810805470129e-05
0.015603656832932324,-5.147203814259523e-06,-2.289142918681546e-05
0.014662808478995542,9.98602884170441e-06,-2.2889009774301737e-05
0.014277193868828314,2.445603001561634e-05,-2.2871788744873077e-05
0.014392250654054736,3.879075227705787e-05,-2.284016535372674e-05
0.014894046992808618,5.343390110048954e-05,-2.2794053027037963e-05
0.015620370758375673,6.869110997608169e-05,-2.2732990521499676e-05
0.01637979670864224,8.469119370959065e-05,-2.265629936965684e-05
0.016976286309859062,0.00010136923521884131,-2.2563269155192624e-05
0.01723524674908339,0.00011847500174831253,-2.245334703670905e-05
0.017026589345585364,0.00013560591979564691,-2.2326306575937067e-05
0.016281183098710583,0.0001522598060177949,-2.2182373713030345e-05
0.01499868432753685,0.0001678997397309186,-2.202229394015599e-05
0.013246337785260002,0.00018202225078731705,-2.184733294489687e-05
0.011149570610156378,0.00019422020498502523,-2.16592117170107e-05
0.008876097830129935,0.0002042330392051684,-2.1459985094915605e-05
0.006615964565369607,0.00021197907040291817,-2.1251879040111562e-05
0.0045603394189271,0.00021756722239506653,-2.103710589371257e-05
0.002881777395143327,0.00022128828080210174,-2.0817678142113984e-05
0.0017181159163509455,0.00022358822745784888,-2.0595239887984008e-05
0.0011612957339706311,0.00022502793328300967,-2.037093180761358e-05
0.0012514464863368536,0.00022623430439316341,-2.0145300688775492e-05
0.00197585429330849,0.0002278479547829861,-1.9918259559187418e-05
0.0032720924035559355,0.0002304719281314183,-1.9689099617730217e-05
0.005034596437786616,0.00023462527255208956,-1.9456551017388464e-05
0.00712414350019982,0.00024070464252108278,-1.9218886059851878e-05
0.009379730820686235,0.0002489565796815258,-1.8974055448750573e-05
0.011631979337897896,0.00025946243476081786,-1.8719845941529403e-05
0.013716638142681759,0.0002721367435011077,-1.845404635239844e-05
0.015486599578656647,0.0002867383623617769,-1.8174608799466998e-05
0.016821289872164878,0.0003028923070871877,-1.7879793464742514e-05
0.017633094781811437,0.0003201194994141758,-1.7568287561491832e-05
0.0178711778050385,0.00033787163570760077,-1.7239291993930945e-05
0.017523327294409044,0.00035556888825732453,-1.6892571731948484e-05
0.016616248507408934,0.0003726386761582335,-1.6528467949740706e-05
0.015214269465707713,0.0003885539351447918,-1.6147871644089192e-05
0.013416102564272902,0.0004028691211597821,-1.5752160115936905e-05
0.011349147893472801,0.000415251746388655,-1.5343099682162686e-05
0.009160817964536827,0.0004255067293176598,-1.4922720444309528e-05
0.007006712341350198,0.0004335904944706033,-1.4493171832415396e-05
0.0050362806880111625,0.00043961199098528403,-1.4056570589687453e-05
0.0033775743304663465,0.0004438189184945228,-1.361485513494755e-05
0.002123354670967329,0.00044656938299523965,-1.316966098420267e-05
0.0013209479082134862,0.00044829153428483005,-1.2722230525562634e-05
0.0009677251128432594,0.00044943587079535844,-1.227336682302254e-05
0.0010130172417157528,0.0004504262419726379,-1.1823435766638541e-05
0.001365985384122292,0.00045161574328555696,-1.1372414774009444e-05
0.0019079654882455956,0.0004532527187217409,-1.0919980543005794e-05
0.0025074199047074126,0.0004554604114182174,-1.0465623977935816e-05
0.0030357436079339207,0.0004582319931745381,-1.0008777775639439e-05
0.003382356827869946,0.00046144104339244,-9.54894125735595e-06
0.0034674329991334018,0.0004648659383059417,-9.08578776650676e-06
0.003250387461277585,0.0004682248485361472,-8.619242373085715e-06
0.002732390618633407,0.0004712162375761027,-8.149521830029589e-06
0.0019520434986275168,0.0004735584546347332,-7.677134483924171e-06
0.0009748203711667147,0.0004750218865696303,-7.202844313321989e-06
-0.00012157537894254531,0.0004754485090657424,-6.727609115504303e-06
-0.0012627042619995773,0.00047475636924527135,-6.252506676348796e-06
-0.0023902666222622966,0.0004729298838031404,-5.77866354982459e-06
-0.0034697320724107706,0.00046999988445580387,-5.307198665695118e-06
-0.0044916672190777615,0.0004660191848100596,-4.8391891310621864e-06
-0.005467251849407997,0.00046103972527581673,-4.375659676019248e-06
-0.006419481157662053,0.0004550963587722817,-3.9175916339951985e-06
-0.007372085328048508,0.0004482005755294264,-3.4659431668443443e-06
-0.008338441981670188,0.00044034531187456705,-3.0216702231423476e-06
-0.009312713216337396,0.00043151973427556326,-2.5857377000672824e-06
-0.01026509075693561,0.00042173083228892673,-2.1591124167850373e-06
-0.011142347499201942,0.00041102711316085797,-1.7427334440601449e-06
-0.011873758569415548,0.00039951906012654923,-1.3374603574164412e-06
-0.012381024064804217,0.00038739166880943937,-9.440049929484468e-07
-0.01258974360026816,0.0003749062849769032,-5.628560160552755e-07
-0.012439860007431783,0.0003623914831730532,-1.942071319802973e-07
-0.011893211836181092,0.0003502249472512468,1.6210108323185273e-07
-0.010937307526864268,0.0003388096875697241,5.066184006423382e-07
-0.009585238333100385,0.00032854841463974177,8.402974517470712e-07
-0.007872268202993951,0.0003198196613716946,1.1644814897527894e-06
-0.005850150910102082,0.0003129584518151466,1.48087054634621e-06
-0.0035805661736010457,0.00030824309327329505,1.791471318890431e-06
-0.0011290974525445714,0.0003058882614602222,2.0985369962571895e-06
0.00143920065619787,0.00030604331306204887,2.404502783518325e-06
0.004062289045366133,0.0003087940579128309,2.711921469005765e-06
0.006682010094007283,0.0003141662074825176,3.023401601703439e-06
0.009244012981711153,0.0003221292190203768,3.3415493149548866e-06
0.011697429021991794,0.0003325999400222283,3.668913894476189e-06
0.013994842713796675,0.00034544607589012254,4.007936902432364e-06
0.016092887622072338,0.000360489941058057,4.360904910906454e-06
0.01795345288400228,0.00037751311131109435,4.72990643709103e-06
0.019545104996373693,0.00039626239025128233,5.116794187872219e-06
0.020844212463104184,0.0004164570489810213,5.523153907488371e-06
0.021835521072708478,0.0004377969157489276,5.950280889853345e-06
0.022512286273289658,0.00045997081942192666,6.399164757438772e-06
0.02287625160671956,0.0004826650883619313,6.870482711330701e-06
0.0229377847192797,0.0005055721065249309,7.364601308774133e-06
0.022716409969802853,0.0005283992038694722,7.881586963971335e-06
0.022241723295491286,0.0005508782705021193,8.421225701157131e-06
0.021554220111563816,0.0005727762422056468,8.983052957511015e-06
0.020705176206956267,0.0005939059403649069,9.566394048796291e-06
0.019754736801204122,0.0006141358968689871,1.0170414967413238e-05
0.018767812760820055,0.0006333971716499992,1.0794181501672731e-05
0.017807971867615905,0.0006516850639642171,1.1436722619479838e-05
0.016930053322552575,0.0006690540765593013,1.2097092189741597e-05
0.016172739531175036,0.0006856054729861651,1.277442196451433e-05
0.015552697576309442,0.0007014681915399074,1.3467958796777367e-05
0.015061828903058232,0.0007167754547795913,1.4177080619937116e-05
0.014668469194033688,0.0007316406038281372,1.490128864924098e-05
0.014322388801990521,0.0007461360328261494,1.5640176967568125e-05
0.013962668723890355,0.0007602785615890898,1.6393384264775744e-05
0.01352712709311955,0.0007740234594975947,1.7160535275319086e-05
0.012961873833798541,0.0007872679599610537,1.794118098504841e-05
0.012229821099886334,0.0007998638074278962,1.8734746868742884e-05
0.01131746299908041,0.0008116374494773796,1.954049749719552e-05
0.010239499999626972,0.0008224159309767333,2.035752418742258e-05
0.009040700969441411,0.0008320560314612675,2.1184760168641578e-05
0.007794154757651227,0.0008404734593248138,2.202102491403462e-05
0.0065952405116633545,0.000847668156959471,2.2865095722176762e-05
0.005551318558751172,0.0008537414364946783,2.3715800518903836e-05
0.004768100400132224,0.00085890114597412,2.4572121810138234e-05
0.00433459108810971,0.0008634524917182409,2.5433298628984414e-05
0.004309034126848238,0.0008677743043257199,2.6298912027006395e-05
0.004708173839567564,0.0008722829083089278,2.716894063332372e-05
0.005501497182021479,0.0008773877438197223,2.8043775959388045e-05
0.006611265775702592,0.0008834441252985843,2.8924191893947197e-05
0.007918339674822597,0.0008907089280238468,2.9811268420608412e-05
0.009273124572899024,0.0008993046601477076,3.070627521469419e-05
0.010510477763257175,0.0009091964613157857,3.1610525775425934e-05
0.011467018433083101,0.0009201852094139559,3.2525216610790805e-05
0.011998898715338402,0.0009319181679881667,3.3451268299491865e-05
0.011997797150552394,0.0009439165159211121,3.43891856414465e-05
0.01140301501830949,0.000955616922005543,3.533895236040983e-05
0.010208235890352314,0.000966422547459874,3.629997209514254e-05
0.00846244912348246,0.0009757578899667914,3.7271062313855874e-05
0.0062653270081661,0.0009831217780326158,3.825050214785558e-05
0.0037578687930885906,0.000988133375933243,3.9236129724838505e-05
0.0011094437680547956,0.0009905670322138147,4.0225479928912037e-05
-0.0014975021432367024,0.0009903730030262237,4.121594994653206e-05
-0.003883795620267549,0.0009876823541444715,4.220497762511741e-05
-0.005889612872463575,0.0009827956498981059,4.31902166271387e-05
-0.00738884252527565,0.0009761564221992362,4.416969266318737e-05
-0.008300226849449357,0.0009683118875118737,4.5141926818042926e-05
-0.008593893375687665,0.0009598648273993052,4.6106015175498515e-05
-0.00829232648483067,0.000951421717469046,4.706165844793269e-05
-0.007465666904033719,0.0009435427207746138,4.8009140667054516e-05
-0.006222289641089625,0.0009366987425020522,4.894926139869285e-05
-0.004696413005184975,0.0009312393911789148,4.988323046553333e-05
-0.0030346282610560077,0.0009273738705457943,5.0812537096395686e-05
-0.0013828088117047853,0.0009251651520094139,5.173880660767329e-05
0.00012564455006535023,0.0009245365698785942,5.2663657468617296e-05
0.0013794705276962138,0.0009252891274174749,5.3588570317265333e-05
0.002296358107537113,0.0009271270417350916,5.4514778401841614e-05
0.0028262251080727026,0.0009296883333428966,5.544318608938061e-05
0.002950683384457751,0.0009325767875891618,5.637431864984664e-05
0.00267901750864201,0.0009353916380357117,5.730830286265908e-05
0.0020416109061714917,0.0009377519522431184,5.824487465779849e-05
0.0010822031946434683,0.0009393138592935259,5.918340756356682e-05
-0.00014945487700128578,0.000939780233452347,6.012295460993975e-05
-0.0016031718943587488,0.0009389039200666669,6.106229668669926e-05
-0.0032313064673552116,0.0009364866808858099,6.19999919871755e-05
-0.004989157270762415,0.0009323764490167511,6.293442355212678e-05
-0.006833426315168808,0.0009264651572237855,6.386384435524705e-05
-0.008719740374704316,0.000918688573878849,6.478642122079837e-05
-0.010600070057869532,0.0009090286686625622,6.570027984206907e-05
-0.012420560924537694,0.0008975183531713585,6.660355335298603e-05
-0.014120136944192186,0.0008842480042369936,6.74944365316902e-05
-0.015630272216480463,0.0008693727996566573,6.837124693363703e-05
-0.01687637554211693,0.0008531194757773585,6.923249307135404e-05
-0.017781283726040778,0.0008357906461432797,7.007694813231436e-05
-0.0182713766851621,0.0008177643159376783,7.090372561335484e-05
-0.01828547024151341,0.0007994858924743405,7.171235071756085e-05
-0.017785677132410686,0.0007814503187873784,7.250281882319171e-05
-0.016768222814184882,0.0007641733688140806,7.327563066699244e-05
-0.015271477903734364,0.000748153518455121,7.403179411062705e-05
-0.013378660260119473,0.000733828449373194,7.477278509454121e-05
-0.011213690065243767,0.0007215322742105124,7.550046545633307e-05
-0.008930170668284934,0.000711460343843748,7.62169617653602e-05
-0.006694975153294785,0.0007036477709329582,7.692451582274855e-05
-0.004669045765891213,0.0006979657604733652,7.762532258845171e-05
-0.0029884788051717454,0.0006941369981878338,7.83213739677823e-05
-0.001748701661691871,0.000691768407954402,7.901432667085343e-05
-0.0009937526925894247,0.0006903971807772614,7.970540946521926e-05
-0.0007117323123810056,0.0006895444382747761,8.039538027474528e-05
-0.0008366945217833624,0.0006887702248576939,8.108453760631152e-05
-0.0012565820761511587,0.0006877235865587266,8.177278451201972e-05
-0.0018261207176945686,0.0006861822351618038,8.245973742287998e-05
-0.002382890770371156,0.0006840777294177709,8.314486740516976e-05
-0.0027643192951759235,0.0006815041243849974,8.382765833207114e-05
-0.0028233136460372194,0.0006787103079143908,8.450776554822084e-05
-0.0024407358187765243,0.0006760782831819839,8.518515984376903e-05
-0.0015337301425403435,0.0006740910502013254,8.586024451046069e-05
-5.973998679955292e-05,0.0006732943151366555,8.653393719312968e-05
0.0019833977046574795,0.0006742561439955845,8.72077124226958e-05
0.004560615171224343,0.0006775281504335254,8.788360456991035e-05
0.007605207703662458,0.0006836110618709688,8.85641741760626e-05
0.011025956814121744,0.000692926644129861,8.925244302906301e-05
0.014714987698091942,0.0007057971163859678,8.995180490932092e-05
0.01855582794807714,0.0007224325242090523,9.066591972961843e-05
0.022431356074743496,0.0007429261162204626,9.139859904983318e-05
0.026231310792616685,0.0007672574496541427,9.215369083277049e-05
0.02985875016458592,0.000795302480132744,9.293497079766394e-05
0.033234579071780256,0.0008268491447509271,9.374604661010577e-05
0.036299427831682496,0.0008616161482026585,9.459027925658257e-05
0.03901286415321859,0.000899272294195109,9.547072347778145e-05
0.041350727826457115,0.0009394540901849469,9.639008666997147e-05
0.04330176081932006,0.0009817803345078355,9.735070388231786e-05
0.04486453839074271,0.0010258634841128669,9.835452579162821e-05
0.0460452595640708,0.0010713183830902736,9.940311672522978e-05
0.04685652376272506,0.0011177692747536716,0.00010049766055415175
0.047316916390305885,0.0011648559948301872,0.00010163897318894368
0.04745103994981002,0.0012122399730002452,0.0001028275211728589
0.04728953771885365,0.001259610261834577,0.00010406344629027631
0.04686868500570477,0.0013066893731968562,0.00010534659610779202
0.04622929716662921,0.0013532383642830231,0.00010667655997653196
0.04541497883128815,0.0013990605022819818,0.00010805270940981446
0.04447000964826744,0.0014440029965217596,0.00010947424115921634
0.04343731166479609,0.0014879566571782913,0.00011094022098606637
0.042356858666597844,0.0015308537423439884,0.00011244962618582751
0.041264569811069005,0.0015726644565828218,0.00011400138528529092
0.040191405647560165,0.0016133924443121363,0.0001155944137357384
0.039162352044824544,0.0016530693231583287,0.00011722764461947363
0.038195304659975914,0.001691748151510729,0.00011890005335680815
0.03730026011527763,0.0017294959338983557,0.0001206106753995127
0.036479243148963336,0.0017663856855304762,0.0001223586162092271
0.03572699103206291,0.0018024888026209893,0.00012414305345330283
0.035032071298573324,0.0018378683337863075,0.00012596323202150649
0.03437821355805862,0.0018725734762146235,0.00012781845292650696
0.03374590143979017,0.0019066355337135478,0.00012970805743147104
0.03311421989533188,0.001940065594381109,0.00013163140799551837
0.03246263819153961,0.001972854023424545,0.00013358786780442118
0.03177225458384834,0.002004971469812239,0.00013557678055103957
0.03102623840453524,0.002036370716306431,0.0001375974516440989
0.030209607036927946,0.0020669886390271624,0.0001396491313217657
0.02930878874650872,0.002096747836918881,0.00014173099955973873
0.028311481882066447,0.0021255579722331687,0.00014384215246431476
0.027207098855469767,0.002153317262601937,0.0001459815900817323
0.025987659806023963,0.0021799146419326835,0.0001481482060339996
0.024648569837953962,0.0022052327567546725,0.0001503407797333433
0.02318854589151495,0.002229151314619407,0.00015255797176903034
0.021608259238685864,0.0022515497171845074,0.0001547983222849323
0.01990796317031805,0.002272307828389009,0.00015706025105771904
0.01808507314776823,0.0022913043465480525,0.00015934205714518757
0.016132900771647682,0.0023084133335077605,0.00016164191598521549
0.014041435156014458,0.0023235005014715917,0.00016395787290270517
0.011800449963136209,0.002336421444031167,0.00016628783387545655
