frame_number,force
0,579.0083100000393
1,578.6704026876341
2,578.3552345251734
3,578.0832099018377
4,577.870407595993
5,577.7271864889802
6,577.657511816865
7,577.6590137194003
8,577.7237083795031
9,577.8392486894717
10,577.9905220398302
11,578.1613909669779
12,578.3363830841018
13,578.5021623613311
14,578.6486399483001
15,578.7696187941963
16,578.8629254294369
17,578.9300576182371
18,578.9754467444562
19,579.0054766607733
20,579.0274044573935
21,579.0483050358004
22,579.0741409458179
23,579.1090552153994
24,579.154974918739
25,579.2115705168617
26,579.2765496687647
27,579.3462061334712
28,579.4161103460016
29,579.4818132900872
30,579.539439481776
31,579.5860782999764
32,579.6199435924216
33,579.640336458635
34,579.6474846813225
35,579.6423271501649
36,579.6262800050891
37,579.6010054383236
38,579.5682231677181
39,579.5296297654354
40,579.4869798702681
41,579.4423227333898
42,579.3983025594673
43,579.3583681909645
44,579.3267397798002
45,579.3080601552967
46,579.3067840836766
47,579.326463777683
48,579.3691162938809
49,579.4348015625859
50,579.5214484901378
51,579.6249023218103
52,579.7391502742736
53,579.8566904938477
54,579.9690164108716
55,580.067194313464
56,580.1425185108183
57,580.1872235510506
58,580.1952117397443
59,580.1627291680186
60,580.0889054934744
61,579.9760657377477
62,579.8297332537348
63,579.6582791480325
64,579.4722338306472
65,579.2833464253822
66,579.1035278476381
67,578.9438154336976
68,578.8134560674854
69,578.7191617628105
70,578.6645795665133
71,578.6500232242604
72,578.6725015924344
73,578.7260411125563
74,578.8022614578257
75,578.8911450066122
76,578.9819411190311
77,579.0641500333486
78,579.1285214042252
79,579.1679759252959
80,579.1783299273699
81,579.158695108264
82,579.1114619864572
83,579.0418638015968
84,578.9572256346687
85,578.866072202137
86,578.7772604379429
87,578.6992378060645
88,578.6394549158124
89,578.6039172517395
90,578.596849417232
91,578.6204570425772
92,578.674797041616
93,578.7577881551271
94,578.8653885284943
95,578.9919349056836
96,579.1306040322241
97,579.2739409305227
98,579.414397377179
99,579.5448298383462
100,579.6589235711339
101,579.7515390374082
102,579.8190020522098
103,579.8593610045621
104,579.8726084646706
105,579.8608238073989
106,579.8281641558478
107,579.7806377868835
108,579.7256360226027
109,579.6712461897251
110,579.6253995198336
111,579.5949400796303
112,579.5847465319705
113,579.5970660567452
114,579.6311868149005
115,579.6834868221898
116,579.7478063129842
117,579.8160511592863
118,579.8789541915518
119,579.9269571796325
120,579.9511819862018
121,579.9444269112078
122,579.9020810929641
123,579.8228276464558
124,579.7090166449404
125,579.5666263272791
126,579.4047884600627
127,579.2349225268699
128,579.0695843105267
129,578.9211740313037
130,578.8006687392497
131,578.7165412331029
132,578.6739962594099
133,578.6746028555693
134,578.7163474623961
135,578.794077054585
136,578.9002401935064
137,579.0257835231422
138,579.1610501346748
139,579.2965624668581
140,579.423633159015
141,579.5347961103095
142,579.6240686365954
143,579.6870592741254
144,579.7209489227804
145,579.7243953308946
146,579.6974188114469
147,579.6413043042056
148,579.5585126495229
149,579.4525618999933
150,579.327839520775
151,579.1893335888306
152,579.0423018964642
153,578.8919159762565
154,578.742924824551
155,578.5993845143142
156,578.4644892135755
157,578.3405149128807
158,578.2288613875278
159,578.1301615799011
160,578.044420815261
161,577.9711518027807
162,577.9094909361742
163,577.8583097183553
164,577.816349083582
165,577.7823940821343
166,577.7554876505344
167,577.735168188472
168,577.7216981796179
169,577.7162250851163
170,577.7208001875204
171,577.7381951584446
172,577.7714946922197
173,577.8234936521623
174,577.8959853416104
175,577.9890831374013
176,578.1007415487179
177,578.226610909344
178,578.3602816506719
179,578.4938850690484
180,578.6189465771546
181,578.7273421876557
182,578.8121946906181
183,578.8685721670591
184,578.8939091277468
185,578.8881310036111
186,578.8535074731294
187,578.7942913318109
188,578.7162229490482
189,578.6259937009202
190,578.5307561548732
191,578.43773554148
192,578.3539438276988
193,578.2859527200267
194,578.239668190274
195,578.220064680203
196,578.2308684816365
197,578.274214631604
198,578.350327729652
199,578.4572909407838
200,578.5909749354919
201,578.745191148135
202,578.9120916343595
203,579.0827673426968
204,579.2479366021424
205,579.3986030765154
206,579.5266045700221
207,579.625043001023
208,579.6886385890173
209,579.7140629574563
210,579.7002784915597
211,579.6488593282315
212,579.5642134382817
213,579.4535904073304
214,579.3267667502936
215,579.1953599875984
216,579.0718222452285
217,578.968260230252
218,578.8952703424266
219,578.8609530286415
220,578.8702125552805
221,578.9243958302761
222,579.0212865896407
223,579.1554362671639
224,579.318773874489
225,579.5014097122869
226,579.692547308995
227,579.8814312584935
228,580.0582585781426
229,580.2149660847808
230,580.3458004850771
231,580.4476023019
232,580.5197880568674
233,580.5640739618574
234,580.5840218671793
235,580.5844962404365
236,580.5711088620873
237,580.549706968693
238,580.5259383390515
239,580.5049090428562
240,580.4909415667145
241,580.4874430944009
242,580.4968914268192
243,580.5209212590933
244,580.5604557190396
245,580.6158124367525
246,580.6867373023883
247,580.7723609826239
248,580.8711006946588
249,580.9805327294708
250,581.0972583629368
251,581.2168012464714
252,581.3336047654174
253,581.441210336791
254,581.5326699488133
255,581.6011911061189
256,581.6409504795025
257,581.6479512948368
258,581.6207534360412
259,581.5609027586527
260,581.4729376676829
261,581.363937737481
262,581.2426757476211
263,581.1185193795961
264,581.0002794128033
265,580.8952029203372
266,580.808265009319
267,580.7418347740203
268,580.6957052857097
269,580.6674191626859
270,580.6528083089485
271,580.6466766574541
272,580.6435542461146
273,580.6384338678901
274,580.6273908963744
275,580.6080060111948
276,580.5795578885508
277,580.5430011760277
278,580.5007655115049
279,580.4564021571607
280,580.4140946918786
281,580.3780661708554
282,580.3519487549692
283,580.3382006074236
284,580.3376446001928
285,580.3491813291752
286,580.369714016396
287,580.3943107003305
288,580.4166062998161
289,580.4294144468395
290,580.4254865839966
291,580.3983300504079
292,580.3429832222038
293,580.2566486813017
294,580.1390989931895
295,579.9927880912685
296,579.8226368314066
297,579.6355271698616
298,579.4396156008191
299,579.2436161287633
300,579.0561748065849
301,578.8853744296609
302,578.7383191574124
303,578.62071110458
304,578.5363708298719
305,578.4867442290067
306,578.4705159292864
307,578.4834670325984
308,578.5186746066794
309,578.5670809038372
310,578.6183884081507
311,578.6621771274001
312,578.6890975189132
313,578.6919692443659
314,578.6666217757485
315,578.6123532478556
316,578.5319481785896
317,578.4312619395487
318,578.3184359064276
319,578.2028512979081
320,578.093966959818
321,578.0002140477094
322,577.9281209923556
323,577.8817971631931
324,577.8628212557458
325,577.8704940654565
326,577.9023525957173
327,577.954808283043
328,578.02376381793
329,578.1050863035032
330,578.1948723239072
331,578.2895105112739
332,578.3855925859745
333,578.4797357763235
334,578.5683830084887
335,578.6476568664399
336,578.7133440209553
337,578.7610622778924
338,578.786613528732
339,578.7864652411188
340,578.7582532321625
341,578.7011852178492
342,578.61625492162
343,578.5062329013584
344,578.3754617824386
345,578.2295333295906
346,578.0749399433428
347,577.9187579948564
348,577.7683556494501
349,577.6310741064398
350,577.5138414470863
351,577.4227272835611
352,577.3624937340927
353,577.3362196842636
354,577.3450720678713
355,577.3882780577318
356,577.463318936181
357,577.5663229080043
358,577.6925892242499
359,577.8371447008353
360,577.9952282966722
361,578.1626198972997
362,578.335766171752
363,578.5117011180661
364,578.6878071417369
365,578.861504829972
366,579.0299805268655
367,579.1900503579826
368,579.3382215163563
369,579.4709595607503
370,579.5851161003151
371,579.6784226902828
372,579.7499263686966
373,579.8002508000267
374,579.8316227884657
375,579.847675497011
376,579.8530789292597
377,579.853047206791
378,579.8527651053323
379,579.8567869502433
380,579.8684806692312
381,579.8895996750502
382,579.920054717252
383,579.9579287832977
384,579.9997398509602
385,580.040911589756
386,580.0763604309408
387,580.1010701014455
388,580.1105410253721
389,580.1010794436961
390,580.069978185329
391,580.0156718076231
392,579.9379086985136
393,579.8379164056457
394,579.7184953584838
395,579.5839750542322
396,579.4399918076343
397,579.2930821525912
398,579.1501219136092
399,579.0176730097245
400,578.9013234598643
401,578.8051177830034
402,578.7311756692085
403,578.6795811520375
404,578.6485790827072
405,578.6350413539398
406,578.6350919164946
407,578.6447454550004
408,578.6604342792455
409,578.679351864356
410,578.6995941872098
411,578.7201124385899
412,578.7405118048257
413,578.7607561901467
414,578.7808658001427
415,578.8007048959777
416,578.8199322299371
417,578.8381249017407
418,578.8550117898367
419,578.8707053296915
420,578.8858292530489
421,578.9015001096798
422,578.9191945309929
423,578.9405801011834
424,578.9673850245943
425,579.0013348554666
426,579.0441198184072
427,579.0973180195413
428,579.1622194659087
429,579.2395585178976
430,579.3292212800471
431,579.4300143253631
432,579.5395621496136
433,579.6543670514561
434,579.7700349347823
435,579.8816391599072
436,579.9841564592099
437,580.0728842865443
438,580.143762619518
439,580.1935691464195
440,580.2200075265049
441,580.2217422109564
442,580.1984376863116
443,580.1508321430863
444,580.0808310053764
445,579.991574194191
446,579.8874332688586
447,579.7739212388867
448,579.6575171407136
449,579.5454016458058
450,579.4450868447744
451,579.3639333203981
452,579.3085837244435
453,579.284376966408
454,579.2948195980936
455,579.341185038573
456,579.4222973815455
457,579.5345379570324
458,579.6720895652414
459,579.827401677408
460,579.9918183661264
461,580.1562735259829
462,580.3119469337234
463,580.4507974275713
464,580.565935891658
465,580.6518522763836
466,580.7045457962346
467,580.7216104496412
468,580.7023038169077
469,580.6475961520396
470,580.5601748298936
471,580.4443683871651
472,580.3059514827969
473,580.1517992257399
474,579.9893869559879
475,579.8261817784593
476,579.6690188175039
477,579.5235651732887
478,579.3939490211263
479,579.2825991061821
480,579.190314114391
481,579.1165485662043
482,579.0598556272342
483,579.018389360675
484,578.9903646772548
485,578.9743993473584
486,578.9696952426586
487,578.9760424893707
488,578.9936558505336
489,579.0228825298814
490,579.0638493819927
491,579.1161356988069
492,579.1785541485776
493,579.2490903114427
494,579.3250038531381
495,579.4030552403377
496,579.479796759592
497,579.5518527945208
498,579.6161249432921
499,579.6699008423473
500,579.7108982282452
501,579.7373044107632
502,579.7478620762822
503,579.7420105576215
504,579.7200374130874
505,579.683161184749
506,579.633476498691
507,579.5737398285855
508,579.5070304568785
509,579.4363639606963
510,579.3643538136595
511,579.2930033426088
512,579.2236640400566
513,579.1571330168244
514,579.0938154969381
515,579.0338743194797
516,578.9773223165444
517,578.9240545300621
518,578.8738389155158
519,578.8262855749724
520,578.780814098852
521,578.7366466973051
522,578.6928614341068
523,578.6485319629915
524,578.6029571854808
525,578.5559526326213
526,578.5081413869301
527,578.4611563182348
528,578.4176634771684
529,578.3811513070762
530,578.3554987109883
531,578.3444100110931
532,578.3508450300352
533,578.3765560132739
534,578.42178933632
535,578.4851570907351
536,578.5636566201791
537,578.6528186197856
538,578.7469816206965
539,578.8396979263377
540,578.9242607906056
541,578.9943147852454
542,579.0444862370174
543,579.0709545775984
544,579.0718827800548
545,579.0476420546756
546,579.0008024055384
547,578.935905699123
548,578.8590726694453
549,578.7775040745788
550,578.6989239875379
551,578.6310005580555
552,578.5807759540121
553,578.5541339920971
554,578.5553252431763
555,578.5865648809258
556,578.6477301547379
557,578.7362076621145
558,578.846957948378
559,578.9728586696359
560,579.1053450864608
561,579.2352920205786
562,579.3540063836081
563,579.4541636819848
564,579.5305385604803
565,579.5804310614079
566,579.6037537012552
567,579.6028043546787
568,579.5817937363472
569,579.5462166906862
570,579.5021586654292
571,579.4556199086102
572,579.4119205572923
573,579.3752262197581
574,579.3482192561368
575,579.3319361204744
576,579.3257861256291
577,579.3277609460946
578,579.3348351103225
579,579.3435300556404
580,579.3505627617038
581,579.3534497061944
582,579.3509237360249
583,579.3430637032277
584,579.3311230319435
585,579.3171341041427
586,579.3034151377569
587,579.2920993165083
588,579.2847645061117
589,579.2821959230831
590,579.2842762178908
591,579.2899730386779
592,579.2973924734712
593,579.3038872416303
594,579.3062345399662
595,579.3009109923931
596,579.2844793617289
597,579.2540644605509
598,579.2078525317141
599,579.1455231856613
600,579.0685242716461
601,578.98012031849
602,578.8851774996668
603,578.7896921696793
604,578.7001220754156
605,578.6226247228432
606,578.5623284311628
607,578.5227517760371
608,578.5054538074068
609,578.5099523728995
610,578.5339011120736
611,578.5734778744425
612,578.6239194103642
613,578.6801403471607
614,578.7373793442475
615,578.7917957332552
616,578.840902630194
617,578.8837182701084
618,578.9205867234285
619,578.9527350541247
620,578.981721928008
621,579.0089438989726
622,579.0353119963934
623,579.0611373701845
624,579.0862063192143
625,579.1099906843065
626,579.1319191083812
627,579.1516235858754
628,579.1690860033369
629,579.1846485571072
630,579.198903351166
631,579.2125122606966
632,579.2260166824575
633,579.2396867195415
634,579.2534393722225
635,579.2668277951168
636,579.279079901734
637,579.2891623794302
638,579.2958637862411
639,579.2979017652062
640,579.2940462086265
641,579.2832284004962
642,579.2646083351638
643,579.2376051008968
644,579.2019277228457
645,579.15764449585
646,579.1052985279276
647,579.0460407671078
648,578.9817307849494
649,578.9149570122584
650,578.8489477297628
651,578.7873726535257
652,578.7340600946952
653,578.6926609922372
654,578.6662746723557
655,578.6570391873071
656,578.6657184893197
657,578.6913814440638
658,578.7313048392743
659,578.7811982000551
660,578.8357558252227
661,578.8894399572622
662,578.9373293940266
663,578.9758486438767
664,579.0032231542788
665,579.0195724210545
666,579.0266395601108
667,579.0272491736341
668,579.0246579150831
669,579.0219750629551
670,579.0217693877256
671,579.0258815605985
672,579.035392135951
673,579.0506844300721
674,579.0715629329408
675,579.0974014620965
676,579.1272971016846
677,579.1602134999935
678,579.195110066358
679,579.2310562601075
680,579.2673198144658
681,579.3034102512529
682,579.3390669926252
683,579.3742002775249
684,579.4088105074517
685,579.4429178355899
686,579.4765247810949
687,579.5096164531566
688,579.5421893644652
689,579.5742971873215
690,579.6061020035025
691,579.6379138170254
692,579.6701941425586
693,579.7035028555686
694,579.7383850560171
695,579.775223295293
696,579.8141118324495
697,579.8548213619144
698,579.8968923620201
699,579.9398362913612
700,579.9833797351484
701,580.0276799214035
702,580.0734574538247
703,580.1220167664546
704,580.1751493942594
705,580.2349310087866
706,580.3034296894365
707,580.3823554488528
708,580.4727032681956
709,580.574450279752
710,580.6863461447036
711,580.8058055276528
712,580.9289066166436
713,581.0505202472355
714,581.1646035611092
715,581.2646605800657
716,581.3443133483171
717,581.3978851136239
718,581.4209021954844
719,581.4104626958414
720,581.3654604103086
721,581.2866720490855
722,581.1767260764221
723,581.0399793876992
724,580.8823245368264
725,580.7109335950624
726,580.5339286342745
727,580.3599646079005
728,580.197718864438
729,580.0553003550317
730,579.9396181090993
731,579.8557751180525
732,579.8065686692896
733,579.7921745449729
734,579.8100730552551
735,579.8552445420701
736,579.9206229030225
737,579.997756108229
738,580.0775974779309
739,580.1513433774331
740,580.2112301663371
741,580.2512024141122
742,580.2673757303894
743,580.2582450615431
744,580.2246261581558
745,580.1693586908419
746,580.0968393980643
747,580.0124771669252
748,579.9221506404938
749,579.8317089989854
750,579.7465211579206
751,579.6710717591425
752,579.608618430158
753,579.560946068292
754,579.5282650692768
755,579.5092917153851
756,579.5015241038458
757,579.5016983429794
758,579.5063777437869
759,579.5125851549494
760,579.518349261241
761,579.5230332806523
762,579.5273645665359
763,579.533165555876
764,579.5428649413875
765,579.558915912999
766,579.5832532552181
767,579.616887961493
768,579.6596908353151
769,579.7103818970033
770,579.7667241464162
771,579.8258992671535
772,579.8850053444629
773,579.9415751331109
774,579.993998842148
775,580.0417681366324
776,580.0855214689477
777,580.1269207360257
778,580.1683998787723
779,580.2128158938034
780,580.2630338854569
781,580.3214957345227
782,580.3898371769982
783,580.4686131835044
784,580.557166703968
785,580.6536442842062
786,580.7551380561912
787,580.8579233368781
788,580.9577579838184
789,581.0502039081007
790,581.1309285308502
791,581.1959582002987
792,581.2418799660614
793,581.2660023521954
794,581.2664877828953
795,581.2424704496402
796,581.1941709862384
797,581.1230011369614
798,581.0316214992615
799,580.923895985474
800,580.8046954981163
801,580.6795365511039
802,580.5540843586173
803,580.4335932957534
804,580.3223842135798
805,580.2234478807468
806,580.1382182658281
807,580.0665085106455
808,580.0065784253497
809,579.9553125577015
810,579.9085124768724
811,579.8613153494415
812,579.8087264001562
813,579.7462097840765
814,579.670254605636
815,579.5788392569259
816,579.4717451981367
817,579.3506955506568
818,579.2193045809139
819,579.0828298788986
820,578.9477282549758
821,578.821029734506
822,578.7095645577426
823,578.6191125345532
824,578.553585947997
825,578.5143812369857
826,578.5000222809219
827,578.5061777856956
828,578.5260850296162
829,578.5513557641224
830,578.5730741856944
831,578.5830299233049
832,578.574882210245
833,578.5450482758321
834,578.4931613909412
835,578.4220405233456
836,578.3372205811362
837,578.2461700589184
838,578.1573461119671
839,578.0792098640705
840,578.0192806006091
841,577.9832833794208
842,577.9744494392054
843,577.9930427099459
844,578.036186544732
845,578.0980441871657
846,578.1703655049954
847,578.2433573594401
848,578.3067793017929
849,578.3511258005797
850,578.3687372958972
851,578.3546846406838
852,578.3072997298739
853,578.2282843686617
854,578.122407170377
855,577.996866289228
856,577.8604337587085
857,577.7225052559088
858,577.5921681096804
859,577.4773814995433
860,577.3843447151758
861,577.3171132673365
862,577.2775007890348
863,577.2652695930508
864,577.278564074163
865,577.31448640245
866,577.3696748109452
867,577.4407492889236
868,577.5245404091404
869,577.6180876321365
870,577.7184625263519
871,577.8225301805545
872,577.9267852013087
873,578.0273625868631
874,578.1202414173611
875,578.2015790794268
876,578.2680793298687
877,578.3173151389492
878,578.3479667092082
879,578.3599635071931
880,578.3545293103076
881,578.3341305905519
882,578.3023289299916
883,578.2635423719228
884,578.2227300455296
885,578.185023457599
886,578.1553292381689
887,578.1379239589802
888,578.1360648485173
889,578.1516587317328
890,578.1850521007389
891,578.2350027882093
892,578.2988590883614
893,578.3729224303731
894,578.4529282572909
895,578.5345553989656
896,578.6138648147942
897,578.6875761014595
898,578.7531240361543
899,578.8085027837785
900,578.851985975861
901,578.8818661980829
902,578.896350321346
903,578.8936790736168
904,578.8724494449774
905,578.8320480919992
906,578.7730725052857
907,578.697625773956
908,578.6094086636274
909,578.5135788559924
910,578.4163862072959
911,578.3246237561734
912,578.2449612254912
913,578.1832492757109
914,578.1438940039558
915,578.1293998045708
916,578.1401605245824
917,578.1745366377891
