frame_number,force
0,543.6328700000288
1,543.5299959221536
2,543.4334499308826
3,543.3488351705084
4,543.2804240130117
5,543.2307589242813
6,543.2004911593854
7,543.188431130585
8,543.1917577471223
9,543.2063483703522
10,543.2272232661038
11,543.2491101837668
12,543.2671041895644
13,543.2773428096016
14,543.277580574985
15,543.2675589150266
16,543.2491183581502
17,543.2260581431698
18,543.2037852751257
19,543.1888027663026
20,543.188077978159
21,543.208328533729
22,543.2552774418409
23,543.3329515185162
24,543.4431097866612
25,543.5848846661263
26,543.7547025762553
27,543.9465246040273
28,544.1524068617031
29,544.3633178901943
30,544.5700830249929
31,544.7642947108798
32,544.9390567376786
33,545.0894933066463
34,545.2130059752303
35,545.3092827676536
36,545.3800666364601
37,545.4287022142609
38,545.4595165764212
39,545.4771382840154
40,545.4858841155251
41,545.4893208092626
42,545.4900526724929
43,545.4897287563838
44,545.4892236951534
45,545.4889204382958
46,545.4890087886785
47,545.4897204820154
48,545.4914532802597
49,545.4947784960711
50,545.5003601372468
51,545.5088343523286
52,545.5207050346662
53,545.536299053477
54,545.555791405555
55,545.5792718673163
56,545.6068018771474
57,545.638415799788
58,545.6740506083178
59,545.7134223733923
60,545.7558864393824
61,545.8003192706776
62,545.84505563068
63,545.8879106208543
64,545.9263056310616
65,545.9574945582463
66,545.9788608592623
67,545.9882442960441
68,545.9842595223107
69,545.9665687257265
70,545.9360590202435
71,545.8948693405484
72,545.8462314020329
73,545.7941331849088
74,545.742861503665
75,545.6965120024988
76,545.658558452992
77,545.6315472722433
78,545.6169410483134
79,545.6151019290265
80,545.6253975524344
81,545.6464149180872
82,545.6762568722694
83,545.7128726174559
84,545.7543599229027
85,545.7991826664113
86,545.8462663509305
87,545.8949619521886
88,545.9449025798389
89,545.9958050391858
90,546.0472715173047
91,546.0986218033754
92,546.1487559195112
93,546.196046086616
94,546.2382957888868
95,546.2728415653173
96,546.2968517426172
97,546.3077881571667
98,546.3039049535392
99,546.2846344015319
100,546.2507617812674
101,546.2043692295418
102,546.1485852657995
103,546.08720343378
104,546.02424062552
105,545.9635037593431
106,545.9082306381734
107,545.8608638702011
108,545.8229887231703
109,545.7954127319489
110,545.7783143148274
111,545.7713735703139
112,545.7738296669521
113,545.7844667188031
114,545.8015809925388
115,545.8229996069073
116,545.8461996051597
117,545.8685326758227
118,545.8875170412485
119,545.901129780115
120,545.9080283719421
121,545.9076542087528
122,545.900218686111
123,545.8866207871756
124,545.868360764035
125,545.8474840648856
126,545.8265354950646
127,545.8084643380262
128,545.7964190575163
129,545.7934040851925
130,545.8018257404775
131,545.8230047506668
132,545.8567578262325
133,545.9011477541377
134,545.9524788809448
135,546.005577284707
136,546.0543460134999
137,546.0925318449831
138,546.1145857409658
139,546.1164549121239
140,546.0961371848545
141,546.05388253521
142,545.9920276653561
143,545.9145453455814
144,545.8264371540027
145,545.733092959958
146,545.6397084490114
147,545.5508199116823
148,545.4699950275847
149,545.3997032174813
150,545.3413651932002
151,545.2955430061622
152,545.2621923639913
153,545.2408837676919
154,545.2309229653091
155,545.2313520008465
156,545.2408630035472
157,545.2576906533436
158,545.2795617757861
159,545.3037698369309
160,545.3274053879823
161,545.3477122822384
162,545.3624714712607
163,545.3702780870591
164,545.3706052298128
165,545.3636295706931
166,545.3498850284167
167,545.3298653382819
168,545.3036924094791
169,545.2709223116439
170,545.2305148356367
171,545.1809640724696
172,545.1205628715804
173,545.0477461388846
174,544.9614427694347
175,544.8613764600692
176,544.7482810368688
177,544.6240149677682
178,544.4915647594388
179,544.3549295884594
180,544.2188902661125
181,544.0886784584695
182,543.9695711880823
183,543.8664487214226
184,543.7833716061135
185,543.7232379174418
186,543.687564784838
187,543.6764097988563
188,543.6884225892131
189,543.7210005483088
190,543.7705177173603
191,543.8326038040226
192,543.9024646645031
193,543.9752400442003
194,544.0463762758377
195,544.1119598817652
196,544.1689424602143
197,544.2152122000849
198,544.2495251030482
199,544.2713630922748
200,544.2808028544455
201,544.2784543801891
202,544.2654828626725
203,544.2436836673364
204,544.2155499732371
205,544.1842664830284
206,544.1535861707777
207,544.1275914028851
208,544.1103821853278
209,544.1057506941809
210,544.116891198881
211,544.1461736539809
212,544.194987480255
213,544.263639543659
214,544.3512753775433
215,544.4558027067559
216,544.5738351429051
217,544.700716477808
218,544.830695847231
219,544.9572899682927
220,545.0738128881712
221,545.1740034006978
222,545.2526493150974
223,545.306101765465
224,545.3325922642988
225,545.3323037881646
226,545.3071942451647
227,545.2606159423253
228,545.1968103444337
229,545.1203760182502
230,545.0357998955113
231,544.9471072881366
232,544.857644277788
233,544.769980672762
234,544.6859145759825
235,544.6065590258826
236,544.5324906031459
237,544.4639344392928
238,544.4009468682038
239,544.3435497683307
240,544.2917885666056
241,544.2457212010975
242,544.2053680984582
243,544.1706510813777
244,544.1413384058327
245,544.1170092352178
246,544.0970499909735
247,544.0806865166556
248,544.0670374990146
249,544.0551566099033
250,544.0440306500649
251,544.0325234608005
252,544.0192846873366
253,544.0026624593472
254,543.980668498887
255,543.9510462509826
256,543.9114848646312
257,543.8599981201853
258,543.7954421537726
259,543.7180833508639
260,543.6300731802075
261,543.5356775394414
262,543.4411624639257
263,543.3543316597569
264,543.2837969526565
265,543.2381107568234
266,543.2248997473117
267,543.2501203458521
268,543.3175174502185
269,543.4283201361599
270,543.5811663425246
271,543.7722209921167
272,543.9954411780649
273,544.2429513497981
274,544.5055178981974
275,544.7731327244373
276,545.0356972804603
277,545.2837409423619
278,545.5090569959068
279,545.7051498643715
280,545.867461985349
281,545.993434425735
282,546.0824895032747
283,546.1359868620882
284,546.1571329394081
285,546.1507758849792
286,546.1230288688323
287,546.080728746112
288,546.0308156502889
289,545.9797623478829
290,545.9331629603365
291,545.8955247407389
292,545.8702346103132
293,545.859627086697
294,545.8650724073934
295,545.8870243485624
296,545.9250031089098
297,545.9775315693264
298,546.0420816577183
299,546.1151017224191
300,546.1921767193587
301,546.2683335109381
302,546.338461552927
303,546.3977835538147
304,546.4422888600097
305,546.4690450736232
306,546.4763322151698
307,546.4635856928478
308,546.4311750617296
309,546.3800778400198
310,546.3115265597756
311,546.2267066913406
312,546.1265629383734
313,546.0117442710963
314,545.8826975350981
315,545.7399011163596
316,545.5842023937389
317,545.4171939708042
318,545.2415518748574
319,545.0612608555551
320,544.8816537206011
321,544.7091978707224
322,544.5509903194586
323,544.413984339802
324,544.3040611498334
325,544.225139896781
326,544.1785334549573
327,544.1626922022023
328,544.1733728943582
329,544.2041724055139
330,544.2473021631483
331,544.2944556847157
332,544.3376308258265
333,544.3697944472106
334,544.385313062201
335,544.380125098881
336,544.3516979218057
337,544.2988691488331
338,544.2216846374371
339,544.1213102650903
340,544.0000354435332
341,543.8613328548504
342,543.7099099489953
343,543.5516834776612
344,543.3936149050545
345,543.2433586089849
346,543.1087128310264
347,542.9969274059958
348,542.9139795309126
349,542.8639477064107
350,542.8485940529023
351,542.8672194315408
352,542.9167968735958
353,542.9923364030913
354,543.087405989522
355,543.1947293831074
356,543.3067934094236
357,543.4164179569178
358,543.5172599576955
359,543.604224550794
360,543.6737443583978
361,543.7238832104398
362,543.7542444372547
363,543.7657142590552
364,543.7601245318873
365,543.7399478023646
366,543.7081222575304
367,543.6680451150849
368,543.6236971783641
369,543.5798101384497
370,543.5419814449076
371,543.5166582666499
372,543.5109233407713
373,543.5320266284483
374,543.5866504546349
375,543.6799873276719
376,543.8148153761459
377,543.9908108762259
378,544.2042962404036
379,544.4485005283171
380,544.714269528417
381,544.991062570365
382,545.2680355181134
383,545.5350251695035
384,545.7833041874813
385,546.0060508199593
386,546.1985469344536
387,546.3581568091829
388,546.4841509135318
389,546.5774456348527
390,546.6403359772418
391,546.676284385743
392,546.6897857864105
393,546.6862765380839
394,546.6720216327652
395,546.6539124412448
396,546.6391333375683
397,546.6347019169375
398,546.6469411222131
399,546.6809782618307
400,546.7403622917832
401,546.826847558177
402,546.9403364498809
403,547.0789347963381
404,547.2390664362972
405,547.41561576894
406,547.6021055686014
407,547.7909480008304
408,547.9738088905096
409,548.1420994047287
410,548.287573896042
411,548.402982612145
412,548.482707500355
413,548.5232996292124
414,548.5238377520453
415,548.4860401871817
416,548.4140931943974
417,548.3142092948901
418,548.1939810163667
419,548.0616278193615
420,547.9252396542203
421,547.7921057961646
422,547.6681950160446
423,547.5578340537486
424,547.4636115899481
425,547.386501859135
426,547.326161311188
427,547.281326453617
428,547.2502411846349
429,547.2310547123645
430,547.2221443059527
431,547.2223324799629
432,547.2309882926833
433,547.2480204087773
434,547.2737786130496
435,547.3088816680842
436,547.3539858731159
437,547.4095054595792
438,547.4753061134751
439,547.5504211343389
440,547.6328642501815
441,547.7196065267557
442,547.8067430999296
443,547.8898173444744
444,547.9642259850048
445,548.0256249328477
446,548.0702884927381
447,548.0954091380404
448,548.0993334265926
449,548.0817181921113
450,548.0435838989118
451,547.9872496033796
452,547.9161473216516
453,547.8345224572273
454,547.7470349893692
455,547.6582938585041
456,547.5723819811764
457,547.4924441274327
458,547.420401314143
459,547.3568258758473
460,547.3009743992084
461,547.2509492086452
462,547.2039568555431
463,547.1566502672921
464,547.1055547825733
465,547.0475611571708
466,546.980423791284
467,546.9031648383949
468,546.8162877387992
469,546.7217487320378
470,546.6226983978787
471,546.5230609533659
472,546.4270487397126
473,546.3387065567442
474,546.2615518051123
475,546.1983347335862
476,546.1509015389048
477,546.1201164039999
478,546.1058008351109
479,546.1066805221583
480,546.1203697605225
481,546.1434390754607
482,546.1715899331814
483,546.1999233369557
484,546.2232692732583
485,546.2365466668339
486,546.2351308361725
487,546.2152113719582
488,546.1741341330311
489,546.1107244561563
490,546.02556272666
491,545.9211396975501
492,545.801801951224
493,545.6734353878394
494,545.5429079087702
495,545.4173582802769
496,545.303448454831
497,545.2066909802097
498,545.1309324294979
499,545.078032178187
500,545.0477437296148
501,545.0377951796784
502,545.0441645391678
503,545.0615346135753
504,545.0838859480369
505,545.1051560746319
506,545.1198767937169
507,545.1237107413093
508,545.1138385216367
509,545.089178845332
510,545.0504397859123
511,544.9999967982329
512,544.9415872613865
513,544.8798241019553
514,544.8195665427754
515,544.7652228530322
516,544.7200780924392
517,544.6857389632366
518,544.6617751286894
519,544.6456146599608
520,544.632722991523
521,544.6170626716981
522,544.5917965202527
523,544.550161605111
524,544.4864075073959
525,544.3966633737107
526,544.2795918481245
527,544.1367256716987
528,543.9724539880635
529,543.793687147458
530,543.6092555080127
531,543.4291055400272
532,543.2633687693374
533,543.1213963670781
534,543.0108634814269
535,542.9370450252784
536,542.902345153017
537,542.9061289752883
538,542.9448634139156
539,543.0125283985572
540,543.1012231080307
541,543.2018892602797
542,543.3051056375222
543,543.4019350347246
544,543.4847877956124
545,543.5482154548224
546,543.5895129353567
547,543.6090211948019
548,543.6100695647951
549,543.5985455007923
550,543.5821214159918
551,543.5692173324021
552,543.567835846153
553,543.5844539495826
554,543.623170714363
555,543.6852714677506
556,543.7692774479921
557,543.8714342325885
558,543.9864940680454
559,544.108597839542
560,544.2320756115846
561,544.3520487313124
562,544.4647938006449
563,544.5678821146906
564,544.6601292798204
565,544.7413969199766
566,544.8122977021122
567,544.8738628823996
568,544.9272276650581
569,544.9733746323906
570,545.0129602415083
571,545.0462411542626
572,545.0731107566249
573,545.0932401549785
574,545.1062933329869
575,545.1121715240187
576,545.1112494015667
577,545.1045830473183
578,545.0940738079074
579,545.082554908386
580,545.0737452759473
581,545.0720143571684
582,545.0819362970929
583,545.1076712483429
584,545.1522694949218
585,545.2170242836384
586,545.3009937649756
587,545.4007850446166
588,545.5106575611638
589,545.6229566795896
590,545.7288291725333
591,545.8191155497254
592,545.8852851430962
593,545.920290472551
594,545.9192551123072
595,545.8799467158427
596,545.803003697945
597,545.6918852786536
598,545.5525264675539
599,545.3927214743234
600,545.2213212828647
601,545.0473803023091
602,544.8793900700206
603,544.724689102328
604,544.5890653474789
605,544.476511327636
606,544.3890795827215
607,544.3268202808798
608,544.2878340460323
609,544.2684950892661
610,544.263872335028
611,544.2683203478191
612,544.2761615270214
613,544.2823552622589
614,544.2830492287604
615,544.2759263886066
616,544.2602953268196
617,544.2369193495018
618,544.2076320923688
619,544.1748282828917
620,544.140935447841
621,544.1079639874189
622,544.0772048768283
623,544.0491038565729
624,544.0232987083888
625,543.9987779326059
626,543.9741174012507
627,543.9477701390749
628,543.9183988910755
629,543.8852332059341
630,543.8484097030276
631,543.8092356331642
632,543.7703104445014
633,543.7354493232928
634,543.7093814867342
635,543.6972428210504
636,543.7039342231645
637,543.7334569975735
638,543.7883445272381
639,543.8692728507979
640,543.9748748329797
641,544.1017472360487
642,544.2446388641349
643,544.396813647329
644,544.5505730162349
645,544.6978999542174
646,544.8311633184861
647,544.9438025319901
648,545.0309049388146
649,545.0895990627212
650,545.1192250724808
651,545.1212980444759
652,545.0993128767996
653,545.0584268204906
654,545.0050209557858
655,544.9461363412347
656,544.8888251824003
657,544.839518034063
658,544.803525242605
659,544.7847409115437
660,544.7855387056383
661,544.8067981111916
662,544.8479988693992
663,544.9073500055051
664,544.9819492628378
665,545.0679868788359
666,545.1610153782053
667,545.2563016740099
668,545.3492537406324
669,545.4358771464562
670,545.513184188314
671,545.5794681142526
672,545.6343787130099
673,545.6787903950909
674,545.7145138968236
675,545.7439331770036
676,545.7696350729173
677,545.7940583925853
678,545.8191576345637
679,545.8460821410262
680,545.8749104248753
681,545.9045151099153
682,545.9326267304577
683,545.9561111787959
684,545.9714119733607
685,545.975071104862
686,545.9642356787755
687,545.9370650953923
688,545.8929652683664
689,545.8325961806603
690,545.7576340067329
691,545.6703261076702
692,545.5729508368618
693,545.4673442604103
694,545.354632520944
695,545.2352152166786
696,545.1089473640202
697,544.975425627434
698,544.834300863172
699,544.685573099571
700,544.5298431663351
701,544.3685007920225
702,544.2038436350731
703,544.0391411703397
704,543.8786508985327
705,543.7275542262299
706,543.5917436774055
707,543.4774059036301
708,543.3904102164761
709,543.3355934677727
710,543.3160817918189
711,543.3327796274691
712,543.3840979005519
713,543.4659325647498
714,543.5718799464952
715,543.6936783177172
716,543.8218586137765
717,543.9465525397693
718,544.0583629467121
719,544.1491830274141
720,544.2128689055146
721,544.2457070035649
722,544.2466521396201
723,544.2173363051423
724,544.1618614744193
725,544.0863983291969
726,543.9986254239379
727,543.907061418302
728,543.8203587082013
729,543.7466331680843
730,543.6928983618675
731,543.6646534535325
732,543.6656493567818
733,543.6978316752917
734,543.7614252948214
735,543.8550907284496
736,543.9760751298932
737,544.1203146379231
738,544.2824987569235
739,544.4561529852008
740,544.6338145805646
741,544.8073614029638
742,544.9685119039174
743,545.1094617903043
744,545.2235769197993
745,545.3060374589688
746,545.354332893233
747,545.3685347287534
748,545.3513092457372
749,545.3076701068859
750,545.2445106051038
751,545.1699873755127
752,545.0928330763568
753,545.0216534327058
754,544.9642354876025
755,544.9268847296897
756,544.9138318174315
757,544.9267923275545
758,544.9647845901187
759,545.0242723745827
760,545.0996096283379
761,545.1836780316174
762,545.2685717183841
763,545.3462039897034
764,545.4087702062426
765,545.4490740959004
766,545.4607791157084
767,545.4386542018647
768,545.3788485126079
769,545.2791884670747
770,545.1394648339002
771,544.9616548036468
772,544.7499965030066
773,544.510830247674
774,544.252171674697
775,543.9830702273479
776,543.7128761604944
777,543.4505471671346
778,543.204080477645
779,542.9800988636147
780,542.7835816407485
781,542.6177254052737
782,542.4839339920456
783,542.3819457724774
784,542.3100891407915
785,542.2656230453063
786,542.2450938304514
787,542.2446401320456
788,542.2602055637523
789,542.2876586127056
790,542.3228461871573
791,542.3616095262558
792,542.3997776037785
793,542.4331423930369
794,542.4574272655085
795,542.468282684979
796,542.4613593852259
797,542.4324969016789
798,542.3780303841042
799,542.2951831343099
800,542.1824853304665
801,542.0401338477789
802,541.8701878332631
803,541.6765096419088
804,541.4644335520696
805,541.2402456447666
806,541.0106217551763
807,540.7821601438136
808,540.5610816534928
809,540.353095065864
810,540.1633671625615
811,539.9965081505251
812,539.8564915389377
813,539.7464720893578
814,539.6685276083025
815,539.6234017101804
816,539.6103422297667
817,539.627103772839
818,539.6701223170695
819,539.7348103076282
820,539.8159030309884
821,539.9078117919602
822,540.0049638371081
823,540.1021034323267
824,540.1945125710571
825,540.2781178944483
826,540.3494835190138
827,540.4057213202095
828,540.4443676450319
829,540.463287038209
830,540.4606704606964
831,540.4351779012188
832,540.3862221260468
833,540.3143262408481
834,540.2214494965799
835,540.1111737912819
836,539.9886663120607
837,539.8603744363971
838,539.7334662740984
839,539.6150942465272
840,539.5116063860514
841,539.4278393723071
842,539.3665996740343
843,539.3283961759827
844,539.3114513893706
845,539.3119950034967
846,539.3248222006156
847,539.3440614590664
848,539.3640365581706
849,539.3800525659196
850,539.3889332557548
851,539.3892062642572
852,539.3809413934102
853,539.3653472629273
854,539.3442827752376
855,539.3198223927096
856,539.293943165979
857,539.26832926841
858,539.244262414025
859,539.2225809472886
860,539.2037120070547
861,539.1877879172417
862,539.1748484740804
863,539.1651062515757
864,539.1592160355336
865,539.1584615507363
866,539.1647794676587
867,539.1805895023336
868,539.2084690695796
869,539.2507648385166
870,539.3092403447263
871,539.384817143741
872,539.4774125260732
873,539.5858511957495
874,539.7078410811979
875,539.8400311266125
876,539.9781840866106
877,540.1174872995734
878,540.2529884253223
879,540.3800942550037
880,540.4950394706824
881,540.5952408347467
882,540.6794861307118
883,540.7479370273676
884,540.8019455576933
885,540.8437074005369
886,540.8758055294896
887,540.9007285507237
888,540.9204681161776
889,540.9362920080619
890,540.9487422315877
891,540.9578354630193
892,540.9633821213279
893,540.9653146631385
894,540.9639225410531
895,540.9599192435645
896,540.9543163581183
897,540.9481492277691
898,540.942161246871
899,540.9365709343848
900,540.9310101528588
901,540.9246629144567
902,540.9165806478145
903,540.9061042275866
904,540.8932823357405
905,540.8791577089792
906,540.8658231607164
907,540.8562212077501
908,540.8537318072177
909,540.8616306593966
910,540.8825141267005
911,540.9177935289522
912,540.9673572131475
913,541.0294723653957
914,541.1009525703255
915,541.1775630512122
916,541.2545867863305
