frame_number,force
0,609.8416700000145
1,609.373351192867
2,608.9261599874967
3,608.5190587210529
4,608.1670542099223
5,607.880053696526
6,607.662484344771
7,607.5136466253688
8,607.4286529086271
9,607.3997152571968
10,607.4175099457217
11,607.4723794938233
12,607.5552207120635
13,607.6580099158734
14,607.7740022879761
15,607.8976956805279
16,608.0246641206053
17,608.151346474336
18,608.2748351822739
19,608.3926705515211
20,608.5026316048811
21,608.602535962922
22,608.6901004959788
23,608.7629351160152
24,608.8187223889663
25,608.8555805595036
26,608.8725362900049
27,608.869972944729
28,608.8499014562052
29,608.8159410082426
30,608.7729836302518
31,608.7266121396555
32,608.6824020203186
33,608.6452436980918
34,608.6187860751783
35,608.6050601545182
36,608.6043161830238
37,608.6150918628072
38,608.6345055986121
39,608.6587368398749
40,608.6836277240927
41,608.7053244356432
42,608.7208701799921
43,608.7286573456487
44,608.728648845632
45,608.7223079781688
46,608.7122425500468
47,608.7016483011193
48,608.6936855062401
49,608.6909171993699
50,608.6948909849467
51,608.7058920999
52,608.7228603305534
53,608.743453941191
54,608.7642460635124
55,608.7810363536571
56,608.7892523770547
57,608.7844106159083
58,608.7626086592772
59,608.7210215226557
60,608.6583666777957
61,608.575279458393
62,608.4745175965646
63,608.3609193929603
64,608.2410811247166
65,608.1227690568803
66,608.0141176634472
67,607.9226961317187
68,607.8545632317494
69,607.813466620541
70,607.800351591502
71,607.8133079674093
72,607.847999651056
73,607.8985044257539
74,607.9583783452148
75,608.0216963777822
76,608.0838382110518
77,608.1418770877216
78,608.1945519275214
79,608.2419150290976
80,608.2848170832423
81,608.3244000133133
82,608.3617170131332
83,608.3975151316406
84,608.4321429815823
85,608.4655194448452
86,608.4971213478533
87,608.5259878263472
88,608.5507604959203
89,608.5697762193257
90,608.5812215956438
91,608.5833505254524
92,608.574745606536
93,608.5545715982714
94,608.5227515029254
95,608.4800162239392
96,608.4278283330148
97,608.36822736513
98,608.3036619094019
99,608.23685629725
100,608.1707199208136
101,608.1082696747795
102,608.0525209098757
103,608.0063107934451
104,607.9720388680521
105,607.9513383057237
106,607.9447280734092
107,607.9513294263742
108,607.9687410377496
109,607.9931463444615
110,608.0196757026777
111,608.0429762491412
112,608.0578825584477
113,608.0600641289763
114,608.0465568516413
115,608.0161336171427
116,607.9694994310195
117,607.9093084794483
118,607.8400139773345
119,607.7675724670027
120,607.6990140120074
121,607.6418706295442
122,607.6034642120093
123,607.5901050531037
124,607.606317678336
125,607.6542497182195
126,607.7333941974825
127,607.8406639928319
128,607.9707548682835
129,608.1166890837927
130,608.2704546903603
131,608.4236935908314
132,608.5683954088446
133,608.6975291231174
134,608.8055334602636
135,608.8886173084527
136,608.9448742408433
137,608.974252075778
138,608.9784228530832
139,608.9605834155806
140,608.9252015381708
141,608.8777157086483
142,608.8241945421926
143,608.7709585901508
144,608.7241650892346
145,608.6893645820138
146,608.671062374181
147,608.6723465263353
148,608.6946557039253
149,608.737741762607
150,608.7998397421471
151,608.8780085861457
152,608.9685663881248
153,609.0675295874204
154,609.1709819585712
155,609.2753327977509
156,609.3774520745981
157,609.4746855542473
158,609.5647656701183
159,609.6456554729818
160,609.7153893481071
161,609.7719867436763
162,609.8134948616514
163,609.8381634658989
164,609.8446966318213
165,609.8324974170599
166,609.8018360068245
167,609.7539127260122
168,609.6908239180113
169,609.6154532308192
170,609.5313078671263
171,609.4423131615432
172,609.3525772755521
173,609.2661408759271
174,609.1867318538549
175,609.1175476341135
176,609.0610836018958
177,609.0190191291084
178,608.9921696841077
179,608.9805150160641
180,608.9833123721551
181,608.9992949987095
182,609.0269418149832
183,609.0647870255509
184,609.1117170192573
185,609.1671780348902
186,609.2312071153872
187,609.3042244500733
188,609.3865959706771
189,609.4780626673534
190,609.5771869707092
191,609.6809623786384
192,609.7846905619015
193,609.8821788000961
194,609.9662537720803
195,610.0295205846637
196,610.065235731762
197,610.0681422583466
198,610.0351435761138
199,609.9657401217936
200,609.8621885882017
201,609.7293664647492
202,609.5743527324096
203,609.4057703172597
204,609.2329647455068
205,609.0651148251326
206,608.9103891619671
207,608.7752656286401
208,608.6641035433737
209,608.5790028876947
210,608.5199223168169
211,608.4849841745321
212,608.4708873130951
213,608.473368883534
214,608.487677217719
215,608.5090252342172
216,608.5329952796238
217,608.5558706819754
218,608.5748767413381
219,608.588321662229
220,608.595631324379
221,608.5972698514017
222,608.5945419038313
223,608.589293213238
224,608.5835538112316
225,608.5791844189715
226,608.5775851231523
227,608.5795121314551
228,608.5850249152223
229,608.5935581786489
230,608.6040941407229
231,608.6154029296289
232,608.6263125599444
233,608.6359637901242
234,608.6440081617384
235,608.6507208245295
236,608.6570123613675
237,608.6643290043896
238,608.6744369870429
239,608.6891048846066
240,608.709724039945
241,608.736930290683
242,608.7703021251905
243,608.8082036829015
244,608.8478131763176
245,608.8853413197868
246,608.9164155394585
247,608.9365807986435
248,608.9418374055522
249,608.9291131354327
250,608.896581376505
251,608.8437964484235
252,608.7716851259567
253,608.6824595096216
254,608.5794880288057
255,608.4671139422267
256,608.3503879978457
257,608.2346960914144
258,608.1252964833152
259,608.0268160430309
260,607.942782449015
261,607.8752801967513
262,607.8248042046539
263,607.790347348136
264,607.7697042677713
265,607.7599147922189
266,607.7577328788176
267,607.7600159269273
268,607.7639758042773
269,607.7672851788158
270,607.7680720791352
271,607.7648598298443
272,607.7565147623842
273,607.7422448371492
274,607.7216542525618
275,607.6948205241744
276,607.6623408633304
277,607.6253042346477
278,607.5851788930529
279,607.54364151353
280,607.5023916653402
281,607.4629890856597
282,607.426729339179
283,607.3945495514673
284,607.3669480971473
285,607.3439217148846
286,607.3249557997387
287,607.3091143210935
288,607.2952441084415
289,607.2822501549235
290,607.269356401296
291,607.2562711387259
292,607.2432177339588
293,607.2308346855282
294,607.2199765995562
295,607.2114681832713
296,607.2058797442329
297,607.2033887073744
298,607.2037585042488
299,607.20642364628
300,607.2106458525495
301,607.2157045676943
302,607.2210897401185
303,607.2266665674741
304,607.2327858092543
305,607.2403235193519
306,607.2506467889033
307,607.2655084193411
308,607.2868700881569
309,607.3166496515674
310,607.356397309069
311,607.4069316870751
312,607.4679988870307
313,607.5380367251333
314,607.6141242106704
315,607.6921739980527
316,607.76738334929
317,607.8349003919086
318,607.890601818154
319,607.9318343757211
320,607.9579568215582
321,607.970539251158
322,607.9731434236467
323,607.9707139832124
324,607.9687149430385
325,607.9722035279863
326,607.9850336340636
327,608.0093381051792
328,608.0453660678991
329,608.0916608047993
330,608.1454800688241
331,608.2033158707777
332,608.2613791915256
333,608.3159671273925
334,608.3637005254393
335,608.401675157108
336,608.427581160428
337,608.4398161283469
338,608.4375810027516
339,608.4209390778486
340,608.3908353130961
341,608.349082893736
342,608.2983065322835
343,608.241806808992
344,608.1833118993545
345,608.1266218832658
346,608.0752009463013
347,608.0318016266867
348,607.9982015312585
349,607.9751067569692
350,607.9622419020372
351,607.9586111693253
352,607.9628820928033
353,607.9738184918343
354,607.9906766088204
355,608.0134781430799
356,608.0430874984206
357,608.081051925243
358,608.1292117768799
359,608.1891445690397
360,608.2615542624006
361,608.3457351231003
362,608.4392152379063
363,608.5376342565615
364,608.6348683596473
365,608.7233973704018
366,608.7948988183689
367,608.8410378389142
368,608.8543995914275
369,608.8294798474227
370,608.763608535837
371,608.6576473984398
372,608.5163060780579
373,608.347976893934
374,608.1640804925174
375,607.978005104407
376,607.8037857318503
377,607.6547036067877
378,607.5419922732666
379,607.4738094421455
380,607.454575001354
381,607.484704892412
382,607.5607127696852
383,607.6756185428163
384,607.8195955308776
385,607.9808005474911
386,608.1463461028659
387,608.3033668032184
388,608.4401009346988
389,608.5468817445714
390,608.6169356600564
391,608.6469100134333
392,608.6370823654236
393,608.5912344497452
394,608.5162105521395
395,608.4212133712077
396,608.3169053129283
397,608.214385047349
398,608.1241191876086
399,608.0549305321437
400,608.0131530153135
401,608.0020409507943
402,608.0214814966839
403,608.0680328032877
404,608.135301652302
405,608.2146631558021
406,608.2962874187247
407,608.3703705726317
408,608.4284001818444
409,608.4642622287871
410,608.475032883856
411,608.4613619210699
412,608.4274085953831
413,608.3803310017631
414,608.3293763798412
415,608.2846794621056
416,608.2559288722991
417,608.2510838210155
418,608.2753125180999
419,608.3302949560332
420,608.4139946931823
421,608.5209478138282
422,608.6430309891426
423,608.7705679357169
424,608.893558071034
425,609.002803677772
426,609.0907731878041
427,609.1521315616963
428,609.1839526507916
429,609.185678061548
430,609.158897239256
431,609.1070081332784
432,609.0348011773829
433,608.9480048571991
434,608.8528302425393
435,608.7555404437051
436,608.6620522826805
437,608.5775677699606
438,608.5062378707607
439,608.450874347388
440,608.4127468744065
441,608.3915288544272
442,608.3854596160932
443,608.3917460994372
444,608.4071477012467
445,608.4286188647683
446,608.4538601495492
447,608.4816586923149
448,608.5119720751424
449,608.5457960656888
450,608.5849121456102
451,608.631602150986
452,608.6883581038356
453,608.7575610888147
454,608.8410987066967
455,608.9399305408565
456,609.0536577194689
457,609.1801790011806
458,609.3155166504423
459,609.4538731691382
460,609.5879419304987
461,609.7094558235644
462,609.8099280320698
463,609.8815123242323
464,609.9178788713259
465,609.9149751746307
466,609.8715421245682
467,609.7892932559758
468,609.6727315431416
469,609.5286529638763
470,609.3654447427114
471,609.1923035195467
472,609.018469692525
473,608.8525274205062
474,608.7017930080901
475,608.5718166786571
476,608.4660337253955
477,608.3856013426625
478,608.3294430517542
479,608.2944968892505
480,608.2761313763853
481,608.2686639398139
482,608.265905110974
483,608.2616693415222
484,608.2502294738582
485,608.2267200495457
486,608.1874973229319
487,608.1304449683606
488,608.0551888098432
489,607.9631687562414
490,607.8575259336084
491,607.742796974619
492,607.6244488915528
493,607.5083207128146
494,607.4000530846812
495,607.3045797114524
496,607.2257294640749
497,607.1659609340754
498,607.1262364746209
499,607.1060393515068
500,607.1035322386166
501,607.1158408017969
502,607.1394283048053
503,607.1705124493296
504,607.2054653437219
505,607.2411337514508
506,607.2750249968572
507,607.30533038787
508,607.330803102803
509,607.3505561860276
510,607.3638716892076
511,607.3700966758812
512,607.3686562851206
513,607.3591666353822
514,607.3415993689015
515,607.3164365735614
516,607.2847589282811
517,607.2482332275171
518,607.2090049306793
519,607.1695414949486
520,607.1324879902593
521,607.1005749083629
522,607.0765736706066
523,607.0632532352859
524,607.0632690031206
525,607.0789282492631
526,607.1118300711034
527,607.1624444581155
528,607.2297304679045
529,607.3108865690108
530,607.4013050267902
531,607.4947903851879
532,607.5840877155441
533,607.6617166440229
534,607.7210129816167
535,607.7571805894345
536,607.7681119492189
537,607.7547775853001
538,607.7210940283346
539,607.6733089393045
540,607.6190466100162
541,607.566217187766
542,607.5219998072131
543,607.4920599725433
544,607.4800756058838
545,607.4875662800023
546,607.5139733711381
547,607.5569190230985
548,607.6125623522777
549,607.6759721527633
550,607.7414599115733
551,607.8028658007074
552,607.8538374692706
553,607.8881563770251
554,607.9001437527971
555,607.8851361116082
556,607.8399785793674
557,607.763456480897
558,607.6565816315572
559,607.522673509779
560,607.3672200363745
561,607.1975500906058
562,607.0223759216647
563,606.851252816635
564,606.6939701533298
565,606.5598711974858
566,606.4571225679184
567,606.3920021191606
568,606.3683096330026
569,606.3870034088643
570,606.44612633221
571,606.5410249355542
572,606.664811358048
573,606.8089911301474
574,606.9641778548801
575,607.1208248096419
576,607.2699165098442
577,607.4035783544686
578,607.5155712336333
579,607.6016369446291
580,607.6596625396012
581,607.6896514937966
582,607.693521259956
583,607.6747720153722
584,607.6380813553014
585,607.588876004436
586,607.5329161578595
587,607.4759093862432
588,607.4231630175974
589,607.3792844731951
590,607.3479354882321
591,607.3316417061803
592,607.3316656351063
593,607.3479653223975
594,607.3792697474906
595,607.4232949551621
596,607.4770996730705
597,607.5375419915669
598,607.6017643209308
599,607.6676167200972
600,607.7339338651253
601,607.8006043904466
602,607.8684076315649
603,607.9386357720707
604,608.0125608324304
605,608.0908436908279
606,608.1730171968454
607,608.2571915626767
608,608.3401001254168
609,608.4175202454071
610,608.4849925276793
611,608.5386640505176
612,608.5760419642794
613,608.5964872933137
614,608.6013815714932
615,608.5939939565967
616,608.5791127784879
617,608.5624991713904
618,608.5502223636669
619,608.5479607796964
620,608.5603671159313
621,608.5905710215015
622,608.6398464636031
623,608.7074416283691
624,608.7905715994307
625,608.8845866018162
626,608.9833254338487
627,609.0796400478622
628,609.1660457186747
629,609.2354262529285
630,609.2817110031509
631,609.3004399867139
632,609.2891502860251
633,609.2475566085647
634,609.1775467784074
635,609.083036381442
636,608.9697095100694
637,608.8446385171327
638,608.7157664004524
639,608.591263842131
640,608.478814974631
641,608.3849169621683
642,608.3142923979478
643,608.2695067809769
644,608.2508506489188
645,608.2564950386193
646,608.282879144669
647,608.3252550067838
648,608.3783000480901
649,608.4367125220319
650,608.4957215935209
651,608.5514645725762
652,608.6012036098035
653,608.6433737958089
654,608.6774754120604
655,608.7038420881703
656,608.7233298349805
657,608.7369791125489
658,608.7457052957279
659,608.7500717702305
660,608.7501914557946
661,608.7457830042371
662,608.7363739619359
663,608.7215995612272
664,608.7015088559615
665,608.6767755540127
666,608.6487277806085
667,608.6191640752619
668,608.590002294019
669,608.5628767240757
670,608.5388150643312
671,608.5180836969457
672,608.5002185206633
673,608.4841992723921
674,608.4686990393411
675,608.4523451410797
676,608.4339463781283
677,608.412661892895
678,608.3881048152673
679,608.360383863438
680,608.3300811497186
681,608.298153543023
682,608.265750816436
683,608.2339726018079
684,608.2036142143481
685,608.1749553700497
686,608.1476325719813
687,608.1206250820703
688,608.0923733403862
689,608.0610208956829
690,608.0247319823567
691,607.9820144922892
692,607.9319879601501
693,607.87456747943
694,607.8105642916724
695,607.741715573287
696,607.6706493591817
697,607.600778118089
698,607.5361087724904
699,607.4809624033587
700,607.4396098903553
701,607.4158446918423
702,607.4125312786487
703,607.4311885086277
704,607.4716809225014
705,607.5320817832746
706,607.6087358274294
707,607.6965008960398
708,607.789111509912
709,607.8796056875738
710,607.9607870816782
711,608.0257302487261
712,608.068341904766
713,608.0839493215238
714,608.0698267939961
715,608.0255499529494
716,607.9531125218049
717,607.8568124449841
718,607.7429511573298
719,607.6193738494295
720,607.494854644099
721,607.3783467621712
722,607.2781685896182
723,607.2012399945489
724,607.1524895258981
725,607.1345165670131
726,607.1475242068303
727,607.1894699355121
728,607.2563508479817
729,607.342560268025
730,607.4412997931304
731,607.545066927957
732,607.6462375357788
733,607.7377233668188
734,607.8136314940486
735,607.86981695141
736,607.9042236837677
737,607.916952347698
738,607.9100557071645
739,607.8871137562436
740,607.8526662819908
741,607.8115873228328
742,607.7684831091151
743,607.7271833744918
744,607.6903774670253
745,607.6594246841117
746,607.6343423338329
747,607.6139505152711
748,607.5961386471907
749,607.5782126339511
750,607.557277119497
751,607.5306129917134
752,607.496032562896
753,607.4522132959637
754,607.398998672133
755,607.337619541388
756,607.2707696810767
757,607.2024887021407
758,607.1378494178124
759,607.0824872977034
760,607.0420320705607
761,607.0215062386832
762,607.0247509200844
763,607.0539360158672
764,607.1092093941083
765,607.1885306947047
766,607.2877192351133
767,607.4007307408808
768,607.5201641814908
769,607.6379753520504
770,607.7463320479608
771,607.8385005782168
772,607.9096278282785
773,607.9572901422036
774,607.9817152670528
775,607.9856337823343
776,607.9737774967335
777,607.9521135041614
778,607.926964513539
779,607.9041851273995
780,607.8885273546941
781,607.8832597613041
782,607.8900372536689
783,607.9089723147874
784,607.9388408607939
785,607.9773685529353
786,608.0215715698133
787,608.068136964075
788,608.1138067564235
789,608.1557042948506
790,608.1915481766789
791,608.219738829069
792,608.2393449631361
793,608.2500370314023
794,608.2520108379725
795,608.2459285737702
796,608.232887195877
797,608.2144042513689
798,608.1923880348338
799,608.1690507194395
800,608.1467492080747
801,608.127781768638
802,608.1141868953284
803,608.1075681657657
804,608.1089333007379
805,608.1185268724736
806,608.135664479375
807,608.1586138025914
808,608.1845777113946
809,608.2098066591492
810,608.2298267576231
811,608.2397507154009
812,608.2346527980691
813,608.2100114884752
814,608.1622191200553
815,608.0891216322848
816,607.9905143113889
817,607.8685102247711
818,607.7277184745737
819,607.5751994140239
820,607.4201833240453
821,607.2735458261403
822,607.1470442242044
823,607.0523483595697
824,606.9999438162062
825,606.9980284534806
826,607.0515484185413
827,607.1615143641739
828,607.3246983796615
829,607.5337487570197
830,607.7776985534342
831,608.0428042223433
832,608.3136277231946
833,608.5742512116796
834,608.8094872563511
835,609.005946269678
836,609.1528651513739
837,609.2426661286761
838,609.2712618754941
839,609.2381349573528
840,609.1462158311921
841,609.0015902501567
842,608.8130803448254
843,608.5917376067489
844,608.3502539957974
845,608.1022681401978
846,607.8615506830419
847,607.6411001386703
848,607.4522391626438
849,607.3038347924922
850,607.201759037658
851,607.1486654193288
852,607.1440964355359
853,607.1848688215881
854,607.2656260132543
855,607.3794252176241
856,607.5182549349214
857,607.6734429586631
858,607.8359769820886
859,607.9967923947888
860,608.1470823819722
861,608.2786621212712
862,608.38438319941
863,608.4585627190681
864,608.4973735997324
865,608.4991363029184
866,608.4644564462575
867,608.3961693453326
868,608.2990772373244
869,608.1794930075027
870,608.0446391247414
871,607.901990572918
872,607.7586752023709
873,607.6210311723477
874,607.4943690299607
875,607.3829195666247
876,607.2899004253916
877,607.2176246584955
878,607.1675933361546
879,607.1405354367873
880,607.1363731052335
881,607.1541119186554
882,607.1916911044
883,607.2458652334619
884,607.3122018877393
885,607.3852512794579
886,607.4588877884883
887,607.5267808298292
888,607.5829481960319
889,607.622360633296
890,607.641562764217
891,607.6392364001211
892,607.6165836873497
893,607.5773930666463
894,607.5276940243325
895,607.4749975382896
896,607.427226005234
897,607.3915221335419
898,607.3731662177516
899,607.3748166174651
900,607.3962185359136
901,607.4344149696964
902,607.4843786030616
903,607.5399094420159
904,607.594627899259
905,607.6429148615811
906,607.6806771163928
907,607.7058419563997
908,607.7185193110834
909,607.72081323018
910,607.7163118915444
911,607.7093409313441
912,607.704124906097
913,607.7040363695793
914,607.7110884490877
915,607.7257473675077
916,607.7470481229467
917,607.7729325959449
