acceleration,velocity,displacement
-0.012841808686756441,0.0,0.0
-0.011790244087668933,-6.1580131936063435e-06,-1.5395032984015859e-09
-0.010741193104867758,-1.1790872491740516e-05,-6.0267247197383e-09
-0.009697152012293238,-1.6900458771030765e-05,-1.3199557535431122e-08
-0.008660582742542826,-2.148989245973978e-05,-2.2797145343123758e-08
-0.00763389655552521,-2.556351228425679e-05,-3.45604965291229e-08
-0.0066194386634918275,-2.912684608901105e-05,-4.823308612243986e-08
-0.005619474057178062,-3.218657426917852e-05,-6.356144121198725e-08
-0.004636174734168467,-3.475048646701515e-05,-8.029570639603567e-08
-0.0036716084920642997,-3.6827432273573346e-05,-9.81901860811828e-08
-0.002727729410610654,-3.842726674924208e-05,-1.1700386083688666e-07
-0.0018063701000945597,-3.956079162691839e-05,-1.3650087543092678e-07
-0.0009092357393429858,-4.0239693086777774e-05,-1.564509966093508e-07
-3.789988078907467e-05,-4.047647699181079e-05,-1.7663003912899795e-07
0.0008061980241165241,-4.028440245597893e-05,-1.9682025899094537e-07
0.0016217534294048768,-3.967741459259858e-05,-2.1681071325308975e-07
0.002407595875020771,-3.867007726649217e-05,-2.3639758621786244e-07
0.0031626865907529757,-3.7277506650048734e-05,-2.553844821969977e-07
0.0038861145857406174,-3.551530635592534e-05,-2.7358268544849123e-07
0.004577091311846922,-3.3399504881528454e-05,-2.9081138825785467e-07
0.005234944022908247,-3.0946496047839664e-05,-3.068978884901967e-07
0.00585910799175446,-2.8172983044173988e-05,-3.216777582632001e-07
0.006449117792168257,-2.5095926598193308e-05,-3.3499498567379193e-07
0.007004597892979041,-2.1732497676906482e-05,-3.4670209174256685e-07
0.00752525283112485,-1.8100034995880508e-05,-3.566602249107636e-07
0.008010857226430017,-1.4216007481491793e-05,-3.647392355301067e-07
0.008461245882756293,-1.0097981704195215e-05,-3.708177328265284e-07
0.00887630419485451,-5.763594184792514e-06,-3.7478312679877534e-07
0.00925595904586978,-1.230528374611441e-06,-3.7653165743862635e-07
0.009600170337172441,3.483503971149115e-06,-3.759684135394919e-07
0.009908923247796667,8.360777367391391e-06,-3.730073432048568e-07
0.010182221284459544,1.3383563500455445e-05,-3.6757125798789506e-07
0.010420080158667005,1.8534138861237083e-05,-3.5959183239747194e-07
0.010622522513043502,2.379478952916471e-05,-3.490096002998715e-07
0.01078957351102176,2.9147813535181025e-05,-3.3577394953378505e-07
0.010921257297667833,3.457552123735342e-05,-3.1984311584065146e-07
0.011017594328848749,4.006023414398257e-05,-3.0118417699531746e-07
0.011078599549723366,4.55842826136256e-05,-2.7977304780591544e-07
0.011104281386878459,5.113000284777606e-05,-2.5559447644056504e-07
0.011094641506998393,5.667973357124527e-05,-2.2864204233580972e-07
0.011049675286875234,6.221581276971367e-05,-1.9891815575057e-07
0.010969372930561655,6.77205748240729e-05,-1.6643405885212334e-07
0.010853721158719073,7.317634834639308e-05,-1.3120982805950685e-07
0.010702705385585647,7.856545498246925e-05,-9.327437722729127e-08
0.01051631229470102,8.387020940254092e-05,-5.2665461131038723e-08
0.010294532729659436,8.907292065863103e-05,-9.429678615745733e-09
0.010037364829573398,9.415589504843924e-05,3.6377525311021837e-08
0.009744817354033045,9.910144059434085e-05,8.469185922171685e-08
0.009416913153915232,0.00010389187322132791,1.3544018767563405e-07
0.009053692752592815,0.00010850952469795493,1.8854053715545475e-07
0.008655218008548862,0.00011293675238824035,2.4390210642700357e-07
0.008221575836130587,0.00011715595084941022,3.014252822364162e-07
0.007752881968112267,0.00012114956530047093,3.610016612738865e-07
0.007249284754417954,0.0001249001069811035,4.2251407934428016e-07
0.006710969002626741,0.00012839017042036468,4.858366486946472e-07
0.00613815987204242,0.00013160245263903197,5.508348044594963e-07
0.005531126833549148,0.00013451977431542985,6.173653611981118e-07
0.004890187707263355,0.00013712510295063298,6.852765805146276e-07
0.004215712789740418,0.00013940157807488393,7.544082507710068e-07
0.0035081290762050215,0.00014133253854137028,8.245917799250704e-07
0.0027679245659845884,0.00014290155195191768,8.956503025483923e-07
0.0019956526139478224,0.00014409244624690078,9.67398802098097e-07
0.0011919362644671595,0.00014488934346650452,1.0396442495264482e-06
0.0003574724813109572,0.00014527669565294905,1.1121857593063115e-06
-0.0005069638323749579,0.00014523932281518306,1.1848147639233444e-06
-0.0014005161401344048,0.00014476245282205572,1.2573152078326542e-06
-0.002322243013914887,0.0001438317630335434,1.3294637617965539e-06
-0.0032711153994353986,0.00014243342343020585,1.4010300584124913e-06
-0.004246014470849463,0.00014055414096263464,1.4717769495107013e-06
-0.005245730128224276,0.0001381812048128662,1.5414607859545766e-06
-0.00626896018603239,0.00013530253223430205,1.6098317202163687e-06
-0.007314310295451807,0.000131906714613931,1.676634031928427e-06
-0.008380294637973915,0.00012798306338057458,1.7416064764270534e-06
-0.00946533742798806,0.00012352165536408407,1.804482656113218e-06
-0.010567775268532692,0.00011851337718995388,1.8649914142517275e-06
-0.011685860408714126,0.00011294996827064218,1.9228572506168767e-06
-0.012817764937961157,0.00010682406193397336,1.9778007581680305e-06
-0.013961585914327425,0.00010012922422090122,2.0295390797067493e-06
-0.015115351375101702,9.285998989854394e-05,2.0777863832366107e-06
-0.01627702714068576,8.501189526959708e-05,2.1222543545286458e-06
-0.017444524307265497,7.658150740760926e-05,2.1626527051979473e-06
-0.01861570732455317,6.756644949965459e-05,2.198689694424763e-06
-0.019788402563252285,5.796542202770322e-05,2.230072662306603e-06
-0.020960407286861573,4.777821956517476e-05,2.256508572704822e-06
-0.022129498948927764,3.700574300622743e-05,2.2777045633476727e-06
-0.023293444738152883,2.5650007084457268e-05,2.2933685008703437e-06
-0.02445001129380386,1.3714143076468082e-05,2.303209538410575e-06
-0.025596974516919772,1.2023966237871747e-06,2.306938673335639e-06
-0.026732129408088372,-1.1879879357464862e-05,2.3042693026522195e-06
-0.02785329986624056,-2.5526236676047093e-05,2.2949177736438414e-06
-0.0289583483842123,-3.972914873866031e-05,2.2786039272901647e-06
-0.030045185580346575,-5.4480032229800026e-05,2.2550516320480497e-06
-0.03111177951556279,-6.976927350377737e-05,2.2239893056146552e-06
-0.03215616476014561,-8.558625957270447e-05,2.1851504223455346e-06
-0.033176451187861465,-0.00010191941355970624,2.138274004062432e-06
-0.03417083248339391,-0.00011875623447752008,2.0831050920531253e-06
-0.03513759435254217,-0.0001360833411865041,2.0193951981371192e-06
-0.036075122421396245,-0.00015388652037998872,1.946902732745496e-06
-0.0369819097976086,-0.00017215077843473994,1.8653934080418138e-06
-0.03785656424535446,-0.00019086039694548072,1.7746406141967586e-06
-0.0386978149022721,-0.00020999899173238735,1.6744257670272916e-06
-0.03950451844953382,-0.00022954957507033885,1.56453862532661e-06
-0.04027566464162167,-0.00024949462084312773,1.4447775763482433e-06
-0.041010381112827,-0.0002698161322817399,1.3149498880670264e-06
-0.04170793740191152,-0.00029049571191042454,1.1748719270189853e-06
-0.04236774816744344,-0.0003115146333027633,1.0243693407156883e-06
-0.04298937559242741,-0.00033285391424273103,8.632772038293147e-07
-0.04357253098837481,-0.00035449439088793157,6.914401275466491e-07
-0.04411707560448397,-0.00037641679253614627,5.087123316906296e-07
-0.044623020634176835,-0.0003986018165958115,3.1495767940764017e-07
-0.045090526398162085,-0.0004210302033538962,1.1004967442021325e-07
-0.04551990067392765,-0.00044368281012191864,-1.0612857894874047e-07
-0.045911596133274175,-0.0004665406843237191,-3.336844525601499e-07
-0.04626620684247027,-0.0004895851350676553,-5.727159074079935e-07
-0.04658446378125456,-0.0005127978027235864,-8.23311641855804e-07
-0.04686722935055315,-0.0005361607260065384,-1.0855512740383351e-06
-0.04711549085836483,-0.0005596564060587678,-1.3595055570546616e-06
-0.047330352992527754,-0.000583267867021491,-1.6452366253247263e-06
-0.04751302930885494,-0.0006069787125968367,-1.942798270229308e-06
-0.04766483278445721,-0.0006307731781201647,-2.2522362429085582e-06
-0.047787165509936426,-0.0006546361776937631,-2.57358858186204e-06
-0.047881507620986405,-0.0006785533459764938,-2.9068859627796042e-06
-0.04794940559730915,-0.0007025110742810677,-3.2521520678439945e-06
-0.04799246007746081,-0.0007264965406997602,-3.6094039715892014e-06
-0.04801231334692317,-0.0007504977340558562,-3.978652540278105e-06
-0.048010636654839366,-0.0007745034715562968,-4.359902841681143e-06
-0.04798911750907118,-0.0007985034100972744,-4.753154562094536e-06
-0.04794944709417961,-0.0008224880512480871,-5.158402427430876e-06
-0.047893307951424276,-0.000846448740009488,-5.57563662524527e-06
-0.04782236205089278,-0.0008703776575100673,-6.004843224625159e-06
-0.0477382393723487,-0.0008942678078658777,-6.446004590969145e-06
-0.04764252709309955,-0.0009181129994822398,-6.8990997928061744e-06
-0.04753675945722006,-0.0009419078211198197,-7.3641049979566896e-06
-0.047422408373881,-0.0009656476130775949,-7.840993856506043e-06
-0.047300874769096383,-0.0009893284338633392,-8.329737868241275e-06
-0.04717348069773645,-0.0010129470227300474,-8.830306732389622e-06
-0.047041462208899924,-0.0010365007584567064,-9.342668677686311e-06
-0.04690596294826043,-0.0010599876147459964,-9.866790770986988e-06
-0.046768028482341586,-0.001083406112603647,-1.0402639202824398e-05
-0.046628601344709975,-0.0011067552700604099,-1.0950179548490413e-05
-0.04648851682275866,-0.0011300345496022771,-1.1509377003406085e-05
-0.046348499510267434,-0.0011532438036855337,-1.2080196591728038e-05
-0.04620916063973001,-0.001176383218723033,-1.266260334733018e-05
-0.0460709961885564,-0.0011994532579301046,-1.3256562466493464e-05
-0.04593438573685517,-0.0012224546034114575,-1.3862039431828854e-05
-0.04579959204833164,-0.0012453880978577543,-1.4479000107146158e-05
-0.04566676135045114,-0.00126825468620745,-1.5107410803162459e-05
-0.04553592430239458,-0.0012910553576206613,-1.5747238314119486e-05
-0.045406997654541016,-0.0013137910881098952,-1.6398449925552125e-05
-0.045279786613859015,-0.001336462784176995,-1.7061013393623848e-05
-0.045153987928824024,-0.0013590712278126658,-1.7734896896621262e-05
-0.04502919369712705,-0.0013816170232191535,-1.8420068959379216e-05
-0.04490489589229696,-0.0014041005456165096,-1.911649835158813e-05
-0.04478049161199974,-0.0014265218924925838,-1.9824153961115404e-05
-0.04465528906560117,-0.001448880837661984,-2.0543004643654045e-05
-0.04452851432488127,-0.0014711767885096047,-2.1273019050196944e-05
-0.044399318848401724,-0.0014934087468029254,-2.2014165434025077e-05
-0.044266787759572976,-0.001515575273454919,-2.276641143908954e-05
-0.04412994882212439,-0.0015376744576003434,-2.3529723871853356e-05
-0.04398778202349582,-0.0015597038903117485,-2.430406845883138e-05
-0.04383922965109419,-0.001581660643230396,-2.5089409592216917e-05
-0.043683206731913275,-0.0016035412523261478,-2.5885710066106052e-05
-0.04351861170438283,-0.001625341706935222,-2.6692930805921395e-05
-0.04334433719771481,-0.0016470574441607463,-2.7511030593695388e-05
-0.04315928080020297,-0.0016686833486602257,-2.833996579190063e-05
-0.04296235570141614,-0.0016902137577856306,-2.9179690068512094e-05
-0.042752501099150436,-0.0017116424719857723,-3.0030154125954945e-05
-0.04252869227390786,-0.0017329627703290369,-3.089130543653365e-05
-0.042289950246362056,-0.0017541674309591044,-3.176308798685568e-05
-0.042035350937727034,-0.0017752487562551268,-3.264544203365924e-05
-0.041764033750199,-0.0017961986024271084,-3.3538303873329795e-05
-0.04147520948638635,-0.0018170084132362546,-3.444160562724564e-05
-0.041168167541438386,-0.0018376692574932109,-3.5355275044928005e-05
-0.040842282325376844,-0.0018581718699599147,-3.627923532679129e-05
-0.04049701889279073,-0.0018785066952644565,-3.721340496809738e-05
-0.040131937762216525,-0.0018986639344282083,-3.8157697625520544e-05
-0.03974669889981846,-0.001918633593593717,-3.9112022007526024e-05
-0.03934106483377992,-0.0019384055345271166,-4.0076281789556235e-05
-0.038914902868004635,-0.001957969526452563,-4.1050375554801153e-05
-0.03846818637703013,-0.0019773152987638217,-4.203419676110525e-05
-0.03800099518259778,-0.0019964325941537286,-4.3027633734334636e-05
-0.0375135150336326,-0.0020153112217077863,-4.4030569688300017e-05
-0.03700603623506125,-0.00203394110952496,-4.50428827711082e-05
-0.03647895149266856,-0.0020523123564568924,-4.6064446137603665e-05
-0.035932753054429306,-0.0020704152825936667,-4.7095128047366305e-05
-0.03536802923169379,-0.0020882404781651974,-4.813479198755602e-05
-0.03478546037894059,-0.002105778850567856,-4.9183296819739285e-05
-0.03418581440165569,-0.0021230216692630054,-5.0240496949697e-05
-0.03356994184999457,-0.002139960608325918,-5.1306242519094237e-05
-0.032938770642842854,-0.0021565877864491273,-5.2380379617788e-05
-0.03229330045331454,-0.0021728958042231666,-5.3462750515456075e-05
-0.03163459677393624,-0.0021888777785299793,-5.455319391114436e-05
-0.03096378467072103,-0.0022045273738911437,-5.5651545199249644e-05
-0.030282042232573653,-0.0022198388306169676,-5.6757636750376675e-05
-0.02959059372518563,-0.0022348069896064074,-5.787129820543252e-05
-0.028890702465438494,-0.0022494273136540637,-5.899235678124763e-05
-0.028183663440935654,-0.002263695905130657,-6.012063758594381e-05
-0.02747079570606698,-0.0022776095199174076,-6.125596394220582e-05
-0.026753434590234403,-0.002291165577491483,-6.239815771655804e-05
-0.02603292375964032,-0.0023043621670789517,-6.354703965270064e-05
-0.025310607185014298,-0.0023171980498151155,-6.470242970692416e-05
-0.024587821080900896,-0.0023296726568815943,-6.586414738359833e-05
-0.023865885891048984,-0.002341786083624582,-6.703201206872488e-05
-0.02314609839411031,-0.002353539079695872,-6.820584335955499e-05
-0.022429723996819646,-0.0023649330352936045,-6.938546138830236e-05
-0.02171798927582518,-0.002375969963611766,-7.05706871380287e-05
-0.021012074829386048,-0.002386652479638069,-7.176134274884116e-05
-0.02031310850405163,-0.002396983775471428,-7.295725181261853e-05
-0.019622159064344974,-0.002406967592363527,-7.415823965457726e-05
-0.01894023037268324,-0.002416608189722784,-7.536413360009884e-05
-0.018268256140907504,-0.0024259103113511817,-7.657476322536734e-05
-0.01760709530382048,-0.002434879149212364,-7.778996059050822e-05
-0.0169575280532962,-0.002443520305051643,-7.900956045407421e-05
-0.016320252567525336,-0.0024518397502068484,-8.023340046788883e-05
-0.015695882478533915,-0.002459843783968363,-8.146132135143263e-05
-0.015084945136205319,-0.002467538990872048,-8.269316704514274e-05
-0.01448788073585967,-0.0024749321973400644,-8.392878484219576e-05
-0.013905042369731049,-0.002482030428116462,-8.51680254985599e-05
-0.013336697037944305,-0.0024888408629683808,-8.64107433213311e-05
-0.012783027615867696,-0.002495370794131834,-8.765679623560615e-05
-0.012244135732757842,-0.00250162758496899,-8.890604583038135e-05
-0.011720045486119992,-0.0025076186302737096,-9.015835738419202e-05
-0.011210707904516535,-0.002513351318621369,-9.141359987141579e-05
-0.010716006071691903,-0.002518832997115421,-9.267164595034999e-05
-0.010235760825645018,-0.0025240709388397553,-9.393237193433879e-05
-0.009769736943116359,-0.002529072313281946,-9.519565774736921e-05
-0.009317649711893809,-0.002533844159945698,-9.646138686567613e-05
-0.008879171779368441,-0.0025383933653185136,-9.772944624699218e-05
-0.008453940149745199,-0.002542726643300792,-9.899972624914701e-05
-0.00804156319373786,-0.0025468505191366627,-0.00010027212053975638
-0.007641627538657169,-0.0025507713168197617,-0.00010154652599874549
-0.007253704718884397,-0.002554495149884147,-0.00010282284261542146
-0.006877357478196613,-0.0025580279154334175,-0.00010410097338175085
-0.006512145622554286,-0.0025613752912086053,-0.00010538082418341135
-0.006157631326140858,-0.002564542735445779,-0.00010666230369007495
-0.005813383797476893,-0.002567535489226683,-0.00010794532324624307
-0.005478983222113558,-0.0025703585809815806,-0.00010922979676379514
-0.005154023918974376,-0.0025730168327668525,-0.00011051564061723224
-0.004838116673727005,-0.0025755148679150277,-0.00011180277354240271
-0.004530890231365481,-0.002577857119641301,-0.0001130911165392918
-0.004231991938154465,-0.002580047840183681,-0.00011438059277924805
-0.003941087530922876,-0.0025820911100509505,-0.00011567112751680671
-0.003657860091043176,-0.002583990846956442,-0.00011696264800605856
-0.003382008213202744,-0.0025857508140325037,-0.00011825508342130579
-0.003113243476396062,-0.0025873746269549033,-0.00011954836478155265
-0.0028512873335678917,-0.0025888657596573944,-0.00012084242487820572
-0.0025958675490612357,-0.002590227548378052,-0.00012213719820521458
-0.002346714312532757,-0.0025914631938434504,-0.00012343262089076996
-0.0021035561541208167,-0.002592575761460114,-0.00012472863062959586
-0.0018661157849938765,-0.0025935681794448926,-0.0001260251666148221
-0.001634105986919031,-0.002594443234887871,-0.0001273221694684053
-0.0014072256661976298,-0.00259520356780115,-0.00012861958116907755
-0.0011851561684028432,-0.0025958516632598005,-0.00012991734497684278
-0.000967557928078774,-0.002596389841783921,-0.0001312154053531037
-0.0007540675128680649,-0.0025968202481441577,-0.00013251370787558574
-0.000544295118137622,-0.002597144838801909,-0.00013381219914732225
-0.00033782256967025654,-0.002597365368223861,-0.00013511082669907869
-0.00013420189042504893,-0.002597483374338885,-0.00013640953888471936
6.704552065004157e-05,-0.0025975001634313283,-0.00013770828476916192
0.00026642906608807386,-0.002597416794784644,-0.00013900701400871592
0.0004644884768982068,-0.002597234065398897,-0.0001403056767237618
0.0006617927105965725,-0.0025969524951020236,-0.00014160422336388702
0.0008589382627362283,-0.0025965723123586902,-0.0001429026045657522
0.0010565469430978947,-0.002596093441057232,-0.0001442007710041062
0.0012552631703436434,-0.0025955154885288715,-0.00014549867323650271
0.0014557508450651574,-0.002594837735025019,-0.0001467962615423912
0.0016586898714682295,-0.002594059124845886,-0.00014809348575735892
0.001864772406010393,-0.0025931782592765163,-0.0001493902951033895
0.0020746989114499965,-0.002592193391447151,-0.00015068663801607042
0.0022891740869011765,-0.0025911024231975634,-0.0001519824619697316
0.002508902732934288,-0.0025899029039926046,-0.00015327771330152912
0.0027345856011351064,-0.002588592031909087,-0.00015457233703550455
0.0029669152713429573,-0.0025871666566909678,-0.00015586627670765457
0.00320657209499654,-0.002585623284849383,-0.00015715947419303966
0.0034542202404395125,-0.002583958086765524,-0.00015845186953594338
0.0037105038786456918,-0.0025821669057357528,-0.0001597434007840687
0.003976043557003942,-0.00258024526887684,-0.00016103400382772183
0.004251432821186068,-0.0025781883997822927,-0.00016232361224488662
0.004537235153949992,-0.0025759912327885087,-0.00016361215715302932
0.00483398129910108,-0.002573648428675246,-0.00016489956706839526
0.005142167027574867,-0.002571154391593577,-0.00016618576777346246
0.005462251383355076,-0.0025685032869908445,-0.00016747068219310856
0.005794655423008868,-0.0025656890602892535,-0.00016875423027992858
0.006139761435273409,-0.002562705456074683,-0.00017003632890901958
0.006497912595955225,-0.002559546037566876,-0.00017131689178242996
0.006869412984632356,-0.0025562042061717293,-0.00017259582934336462
0.007254527876886865,-0.0025526732209563497,-0.00017387304870014665
0.007653484233828524,-0.0025489462179286706,-0.0001751484535598679
0.008066471328410795,-0.0025450162290381107,-0.0001764219441716096
0.008493641463270644,-0.0025408762008401905,-0.0001776934172790792
0.008935110747464906,-0.0025365190127875064,-0.00017896276608248612
0.00939095991582538,-0.002531937495121684,-0.0001802298802094634
0.009861235193820156,-0.0025271244463442723,-0.0001814946456948299
0.010345949224318755,-0.0025220726502397377,-0.00018275694496897588
0.010845082074452079,-0.002516774892415045,-0.0001840166568546396
0.01135858233330148,-0.0025112239763131067,-0.00018527365657182164
