frame_number,force
0,872.3076800040275
1,872.328488348573
2,872.3490828319087
3,872.3692513798702
4,872.3887854712841
5,872.4074818627943
6,872.4251442540085
7,872.441584875113
8,872.4566259796708
9,872.4701012268657
10,872.4818569405543
11,872.4917532363836
12,872.4996650116146
13,872.505482794392
14,872.5091134502011
15,872.510480743774
16,872.5095257554793
17,872.5062071525695
18,872.5005013172712
19,872.4924023352204
20,872.4819218490425
21,872.4690887829962
22,872.4539489454465
23,872.4365645164397
24,872.417013427795
25,872.3953886428603
26,872.3717973426034
27,872.3463600243805
28,872.3192095198004
29,872.2904899385727
30,872.2603555459829
31,872.2289695825021
32,872.1965030348447
33,872.1631333685375
34,872.1290432328559
35,872.0944191497088
36,872.0594501985124
37,872.0243267088824
38,871.9892389717603
39,871.9543759775927
40,871.9199241883038
41,871.8860663487632
42,871.8529803432942
43,871.8208381030236
44,871.7898045700482
45,871.760036724377
46,871.7316826797934
47,871.7048808554626
48,871.6797592308933
49,871.6564346921745
50,871.6350124769051
51,871.6155857237537
52,871.5982351301914
53,871.5830287193548
54,871.5700217152545
55,871.5592565249086
56,871.5507628254436
57,871.5445577526482
58,871.5406461849949
59,871.5390211148607
60,871.5396640974751
61,871.542545767996
62,871.5476264173709
63,871.5548566175296
64,871.5641778855991
65,871.5755233755964
66,871.588818585428
67,871.6039820678507
68,871.6209261362217
69,871.6395575583748
70,871.659778234001
71,871.6814858524743
72,871.7045745293395
73,871.7289354205086
74,871.7544573133878
75,871.781027193965
76,871.8085307890386
77,871.8368530837515
78,871.8658788160993
79,871.8954929511187
80,871.9255811372549
81,871.9560301460195
82,871.9867282941613
83,872.0175658459316
84,872.0484353922116
85,872.0792322034023
86,872.1098545536594
87,872.1402040147376
88,872.1701857183182
89,872.1997085865111
90,872.2286855311258
91,872.2570336227251
92,872.2846742302561
93,872.3115331318871
94,872.3375405981419
95,872.3626314492158
96,872.3867450887233
97,872.4098255160104
98,872.4318213192013
99,872.4526856516295
100,872.4723761947951
101,872.4908551111574
102,872.5080889901573
103,872.524048790965
104,872.5387097853596
105,872.5520515035846
106,872.5640576850725
107,872.5747162348548
108,872.5840191857349
109,872.5919626662121
110,872.5985468744776
111,872.6037760590146
112,872.6076585061619
113,872.6102065344306
114,872.6114364945879
115,872.6113687737385
116,872.6100278009422
117,872.6074420510756
118,872.6036440425894
119,872.5986703239316
120,872.5925614431152
121,872.5853618951522
122,872.5771200425042
123,872.56788800417
124,872.557721509952
125,872.5466797183716
126,872.5348249994765
127,872.522222686234
128,872.5089407991036
129,872.4950497476897
130,872.4806220121303
131,872.4657318060212
132,872.4504547223975
133,872.4348673644404
134,872.4190469630303
135,872.4030709839458
136,872.3870167283317
137,872.3709609311538
138,872.3549793637297
139,872.3391464476165
140,872.3235348875803
141,872.3082153310079
142,872.293256060216
143,872.278722722764
144,872.2646781031073
145,872.2511819372003
146,872.2382907706855
147,872.2260578613319
148,872.2145331266275
149,872.2037631366184
150,872.1937911497614
151,872.1846571867577
152,872.1763981354387
153,872.1690478790838
154,872.1626374403331
155,872.1571951327809
156,872.1527467128927
157,872.1493155264878
158,872.1469226463184
159,872.1455869996086
160,872.1453254859711
161,872.1461530862312
162,872.1480829615457
163,872.1511265410674
164,872.1552935963888
165,872.1605923021489
166,872.1670292837061
167,872.1746096538297
168,872.1833370407081
169,872.1932136094847
170,872.2042400792927
171,872.2164157373962
172,872.2297384515264
173,872.2442046811294
174,872.2598094884779
175,872.2765465514449
176,872.2944081807215
177,872.3133853448132
178,872.3334677060516
179,872.3546436701423
180,872.3769004506033
181,872.4002241481151
182,872.4245998438516
183,872.4500117056881
184,872.4764431065463
185,872.5038767542951
186,872.5322948320076
187,872.5616791461026
188,872.5920112785519
189,872.6232727386142
190,872.6554451100316
191,872.6885101912609
192,872.7224501284721
193,872.7572475428801
194,872.7928856549368
195,872.8293484076676
196,872.86662058999
197,872.9046879589281
198,872.9435373581841
199,872.9831568298212
200,873.0235357155372
201,873.0646647442946
202,873.1065361043426
203,873.1491434998165
204,873.1924821941777
205,873.2365490437146
206,873.2813425238373
207,873.3268627494818
208,873.373111489665
209,873.4200921759048
210,873.4678099049208
211,873.5162714370956
212,873.5654851927054
213,873.6154612473255
214,873.666211326044
215,873.717748793636
216,873.7700886351903
217,873.8232474195634
218,873.8772432373655
219,873.9320956065234
220,873.9878253412415
221,874.0444543832792
222,874.1020055972455
223,874.1605025342685
224,874.2199691710343
225,874.280429633334
226,874.3419079142627
227,874.4044275969771
228,874.4680115907872
229,874.532681887576
230,874.5984593431416
231,874.6653634852802
232,874.733412348069
233,874.8026223306091
234,874.8730080784062
235,874.9445823859534
236,875.0173561194428
237,875.0913381587562
238,875.1665353580257
239,875.2429525243869
240,875.3205924152675
241,875.3994557553444
242,875.4795412743558
243,875.5608457658085
244,875.643364164524
245,875.727089638558
246,875.8120136890731
247,875.8981262509444
248,875.9854157876533
249,876.0738693761072
250,876.1634727796023
251,876.2542105092438
252,876.346065875176
253,876.4390210291638
254,876.5330569999621
255,876.6281537228614
256,876.7242900646235
257,876.8214438444879
258,876.9195918508167
259,877.0187098513761
260,877.1187725939515
261,877.2197537938139
262,877.3216261056007
263,877.424361078656
264,877.5279290960274
265,877.632299298087
266,877.7374394927195
267,877.8433160555795
268,877.9498938256828
269,878.0571360026402
270,878.165004051737
271,878.2734576221217
272,878.3824544819753
273,878.4919504729453
274,878.6018994847534
275,878.712253450192
276,878.8229623608056
277,878.9339743040011
278,879.0452355224479
279,879.1566904959907
280,879.268282045308
281,879.3799514561093
282,879.4916386233625
283,879.6032822165482
284,879.7148198682002
285,879.8261883881811
286,879.9373240052619
287,880.0481626363227
288,880.1586401824926
289,880.2686928506945
290,880.3782574977876
291,880.4872719925502
292,880.595675588618
293,880.7034092998159
294,880.8104162684413
295,880.9166421167782
296,881.0220352720407
297,881.126547254854
298,881.2301329217167
299,881.332750653254
300,881.4343624825829
301,881.5349341611502
302,881.6344351622049
303,881.7328386244159
304,881.8301212401537
305,881.9262630943948
306,882.0212474606665
307,882.115060560072
308,882.2076912888816
309,882.2991309199766
310,882.3893727835253
311,882.4784119323136
312,882.5662447968658
313,882.6528688349143
314,882.7382821793101
315,882.8224832884704
316,882.9054706038812
317,882.9872422195442
318,883.0677955682429
319,883.147127129214
320,883.2252321615631
321,883.3021044677085
322,883.3777361912923
323,883.4521176543285
324,883.5252372386936
325,883.5970813170643
326,883.6676342378024
327,883.7368783671533
328,883.8047941907881
329,883.8713604753771
330,883.9365544895337
331,884.0003522821427
332,884.0627290149033
333,884.1236593449634
334,884.1831178527423
335,884.2410795094715
336,884.2975201784681
337,884.3524171433728
338,884.4057496554265
339,884.4574994906153
340,884.5076515066858
341,884.5561941899252
342,884.6031201822115
343,884.648426779605
344,884.6921163940067
345,884.7341969691635
346,884.7746823425341
347,884.8135925459363
348,884.8509540399594
349,884.886799878849
350,884.9211698036871
351,884.954110262578
352,884.9856743573995
353,885.0159217174917
354,885.0449183015176
355,885.0727361296349
356,885.0994529486687
357,885.1251518330026
358,885.1499207239461
359,885.1738519110844
360,885.1970414604996
361,885.2195885959607
362,885.2415950395749
363,885.2631643181801
364,885.2844010415361
365,885.3054101582949
366,885.3262961954371
367,885.3471624862467
368,885.368110391437
369,885.3892385181614
370,885.4106419422722
371,885.4324114398363
372,885.4546327343496
373,885.477385766533
374,885.5007439943219
375,885.5247737314078
376,885.5495335327555
377,885.5750736345856
378,885.6014354548449
379,885.6286511589026
380,885.656743294373
381,885.6857244984781
382,885.7155972810232
383,885.7463538857211
384,885.7779762322664
385,885.810435941285
386,885.8436944440487
387,885.8777031784451
388,885.9124038720422
389,885.9477289121277
390,885.9836018014072
391,886.0199376968159
392,886.0566440280903
393,886.0936211925585
394,886.1307633227754
395,886.1679591235902
396,886.2050927745057
397,886.2420448915447
398,886.2786935404944
399,886.3149152909516
400,886.3505862986202
401,886.385583401893
402,886.4197852179019
403,886.45307322332
404,886.4853328063241
405,886.5164542775713
406,886.5463338291863
407,886.5748744318555
408,886.6019866616531
409,886.6275894500286
410,886.651610751907
411,886.6739881279317
412,886.6946692378514
413,886.7136122433573
414,886.7307861202039
415,886.7461708804375
416,886.7597577054969
417,886.7715489904166
418,886.7815582994442
419,886.789810234567
420,886.7963402202125
421,886.8011942088189
422,886.804428312482
423,886.8061083658679
424,886.8063094259337
425,886.8051152148878
426,886.8026175136487
427,886.7989155135322
428,886.7941151342599
429,886.7883283167278
430,886.7816722988907
431,886.7742688821259
432,886.7662436935441
433,886.7577254474647
434,886.7488452072927
435,886.7397356477344
436,886.7305303167399
437,886.7213628968303
438,886.7123664665593
439,886.7036727645628
440,886.6954114606109
441,886.687709439816
442,886.6806901071124
443,886.6744727189
444,886.669171747746
445,886.6648962850221
446,886.6617494856498
447,886.6598280586311
448,886.6592218066802
449,886.660013218052
450,886.6622771135641
451,886.6660803516735
452,886.6714815940676
453,886.678531133283
454,886.6872707822482
455,886.6977338237747
456,886.7099450166173
457,886.7239206543617
458,886.7396686740824
459,886.7571888130801
460,886.7764728135306
461,886.7975046762245
462,886.8202609653207
463,886.8447111657839
464,886.8708180939216
465,886.8985383596413
466,886.9278228771698
467,886.958617419053
468,886.9908632063474
469,887.0244975261636
470,887.0594543663746
471,887.095665056642
472,887.1330589051485
473,887.1715638213238
474,887.2111069160128
475,887.2516150717391
476,887.2930154770496
477,887.3352361205086
478,887.3782062419249
479,887.4218567408165
480,887.4661205444561
481,887.5109329392919
482,887.556231869691
483,887.6019582071503
484,887.6480559918816
485,887.6944726470986
486,887.7411591644862
487,887.7880702576473
488,887.835164479339
489,887.8824042982385
490,887.9297561317478
491,887.9771903328352
492,888.0246811307987
493,888.0722065277218
494,888.1197481537228
495,888.1672910845654
496,888.2148236248947
497,888.2623370597247
498,888.3098253762976
499,888.3572849582682
500,888.40471425442
501,888.4521134247894
502,888.499483968103
503,888.5468283357819
504,888.5941495393685
505,888.6414507595773
506,888.688734965408
507,888.7360045503029
508,888.783260989447
509,888.830504518772
510,888.8777338329498
511,888.924945797541
512,888.9721351700643
513,889.0192943257877
514,889.0664129858606
515,889.1134779474314
516,889.1604728171875
517,889.2073777510286
518,889.2541692034443
519,889.3008196908348
520,889.3472975733938
521,889.3935668599295
522,889.4395870392078
523,889.4853129406306
524,889.5306946266428
525,889.5756773190192
526,889.6202013609177
527,889.6642022166936
528,889.7076105123828
529,889.7503521213453
530,889.7923483009498
531,889.8335158865547
532,889.8737675483387
533,889.9130121153426
534,889.9511549698324
535,889.9880985136757
536,890.0237427066305
537,890.0579856744122
538,890.0907243825817
539,890.1218553711545
540,890.1512755443326
541,890.1788830094255
542,890.2045779582229
543,890.2282635825013
544,890.2498470131721
545,890.2692402703286
546,890.2863612096661
547,890.3011344496388
548,890.3134922633677
549,890.3233754199891
550,890.3307339617613
551,890.3355279051159
552,890.3377278553533
553,890.3373155259953
554,890.334284155248
555,890.3286388135408
556,890.320396597533
557,890.309586707479
558,890.2962504066821
559,890.2804408638666
560,890.2622228813954
561,890.2416725142476
562,890.21887658655
563,890.1939321141327
564,890.1669456428459
565,890.1380325132227
566,890.1073160627385
567,890.0749267774493
568,890.0410014048795
569,890.0056820392912
570,889.9691151891016
571,889.9314508349369
572,889.8928414861889
573,889.8534412439319
574,889.8134048782043
575,889.7728869275011
576,889.7320408278517
577,889.6910180785908
578,889.6499674523608
579,889.6090342576954
580,889.5683596630055
581,889.5280800907993
582,889.4883266908263
583,889.4492249005406
584,889.4108941002878
585,889.3734473684166
586,889.3369913383035
587,889.3016261556298
588,889.2674455306797
589,889.2345368773058
590,889.2029815279448
591,889.1728550128838
592,889.1442273917917
593,889.1171636260527
594,889.0917239814974
595,889.0679644522853
596,889.0459371974215
597,889.0256909814939
598,889.0072716112636
599,888.9907223601434
600,888.9760843733055
601,888.9633970470326
602,888.9526983770846
603,888.9440252721563
604,888.9374138293779
605,888.9328995689661
606,888.9305176248034
607,888.9303028873138
608,888.9322900949722
609,888.9365138716496
610,888.9430087089161
611,888.9518088949028
612,888.9629483936457
613,888.9764606805619
614,888.9923785406862
615,889.0107338365896
616,889.0315572528517
617,889.0548780240127
618,889.0807236532177
619,889.1091196290365
620,889.1400891479265
621,889.1736528493605
622,889.2098285697685
623,889.2486311204723
624,889.2900720943164
625,889.3341597058853
626,889.3808986704948
627,889.430290126948
628,889.4823316079803
629,889.5370170604817
630,889.5943369153139
631,889.6542782044065
632,889.7168247212907
633,889.7819572203202
634,889.8496536492039
635,889.9198894089335
636,889.9926376348949
637,890.0678694928303
638,890.1455544830501
639,890.2256607457261
640,890.3081553595224
641,890.3930046256045
642,890.4801743295011
643,890.5696299744706
644,890.6613369815994
645,890.7552608534129
646,890.8513672991888
647,890.9496223217069
648,891.0499922670032
649,891.152443840533
650,891.2569440943624
651,891.3634603904103
652,891.4719603446683
653,891.5824117569024
654,891.6947825294565
655,891.8090405774791
656,891.925153731851
657,892.0430896359982
658,892.1628156384937
659,892.2842986840533
660,892.4075052055272
661,892.5324010188895
662,892.6589512225786
663,892.7871201021309
664,892.9168710407818
665,893.048166436689
666,893.1809676279556
667,893.3152348275408
668,893.4509270706559
669,893.5880021765948
670,893.7264167251788
671,893.8661260458994
672,894.0070842163052
673,894.1492440655213
674,894.2925571788134
675,894.4369738995122
676,894.5824433254276
677,894.7289132981413
678,894.8763303849576
679,895.0246398541788
680,895.1737856446107
681,895.323710330301
682,895.4743550820061
683,895.6256596275354
684,895.7775622132244
685,895.9299995681873
686,896.082906872335
687,896.2362177290813
688,896.3898641440082
689,896.5437765108616
690,896.6978836058069
691,896.8521125904317
692,897.0063890241037
693,897.1606368868116
694,897.3147786139552
695,897.4687351444429
696,897.6224259830047
697,897.7757692768973
698,897.928681906339
699,898.0810795874349
700,898.2328769861929
701,898.3839878420465
702,898.5343250986497
703,898.6838010389342
704,898.8323274213791
705,898.9798156152134
706,899.1261767332578
707,899.2713217616745
708,899.4151616859286
709,899.557607612057
710,899.6985708824211
711,899.837963185732
712,899.975696661802
713,900.1116840014632
714,900.245838541204
715,900.3780743509645
716,900.5083063130272
717,900.6364501902558
718,900.7624226828034
719,900.8861414735176
720,901.0075252634765
721,901.1264938000693
722,901.242967900713
723,901.3568694759139
724,901.4681215559976
725,901.5766483259378
726,901.6823751718828
727,901.7852287416734
728,901.885137020932
729,901.9820294267628
730,902.075836921973
731,902.1664921528543
732,902.2539296127956
733,902.3380858330917
734,902.4188996015534
735,902.4963122084121
736,902.5702677174346
737,902.6407132588429
738,902.707599340358
739,902.7708801734401
740,902.8305140127586
741,902.8864635072622
742,902.9386960605993
743,902.987184197295
744,903.0319059295542
745,903.072845118302
746,903.1099918210019
747,903.1433426176384
748,903.1729009052272
749,903.1986771508145
750,903.2206890932944
751,903.2389618854179
752,903.2535281689034
753,903.2644280771121
754,903.2717091609628
755,903.275426234872
756,903.2756411411082
757,903.272422433054
758,903.2658449799396
759,903.2559894971329
760,903.2429420070443
761,903.2267932362755
762,903.2076379548035
763,903.185574262849
764,903.1607028310962
765,903.1331261008097
766,903.1029474520361
767,903.0702703494374
768,903.0351974755608
769,902.9978298611588
770,902.9582660227105
771,902.9166011186394
772,902.872926136782
773,902.8273271253743
774,902.7798844779854
775,902.7306722804241
776,902.6797577258786
777,902.6272006036243
778,902.5730528657125
779,902.5173582744181
780,902.4601521309177
781,902.4014610834502
782,902.3413030120862
783,902.2796869877264
784,902.2166133044889
785,902.1520735859658
786,902.0860509662765
787,902.0185203463911
788,901.9494487249543
789,901.8787956010377
790,901.8065134445694
791,901.7325482291096
792,901.6568400208969
793,901.579323617218
794,901.499929226347
795,901.4185831809481
796,901.335208676816
797,901.2497265287514
798,901.1620559352499
799,901.0721152439912
800,900.9798227110466
801,900.8850972478701
802,900.7878591508771
803,900.6880308087057
804,900.5855373826055
805,900.4803074562337
806,900.37227365229
807,900.2613732143881
808,900.1475485530486
809,900.0307477548699
810,899.910925054028
811,899.7880412652486
812,899.6620641771527
813,899.5329689045395
814,899.4007381978262
815,899.2653627073043
816,899.126841199128
817,898.9851807196827
818,898.840396705842
819,898.6925130404434
820,898.5415620544089
821,898.3875844784815
822,898.2306293482379
823,898.0707538662463
824,897.9080232256703
825,897.742510400225
826,897.57429590554
827,897.403467536534
828,897.2301200847332
829,897.0543550386727
830,896.8762802693152
831,896.6960097007508
832,896.5136629648091
833,896.3293650372492
834,896.1432458529688
835,895.9554398978905
836,895.7660857756371
837,895.575325747579
838,895.383305244949
839,895.1901723514326
840,894.996077254416
841,894.8011716631115
842,894.6056081918634
843,894.4095397069187
844,894.2131186349563
845,894.016496232251
846,893.8198218152521
847,893.6232419567273
848,893.4268996555011
849,893.2309334910974
850,893.0354767770223
851,892.8406567281962
852,892.6465936588476
853,892.4534002264112
854,892.2611807347579
855,892.0700305073951
856,891.8800353389863
857,891.6912710316698
858,891.5038030208067
859,891.317686092824
860,891.1329641959442
861,890.9496703430332
862,890.7678266046164
863,890.5874441891955
864,890.4085236071513
865,890.2310549138614
866,890.0550180275321
867,889.8803831176439
868,889.7071110603961
869,889.5351539577823
870,889.3644557168141
871,889.1949526848567
872,889.0265743361505
873,888.8592440038451
874,888.6928796516645
875,888.5273946794553
876,888.3626987567167
877,888.1986986773203
878,888.0352992270059
879,887.8724040533505
880,887.7099165264406
881,887.5477405780282
882,887.3857815076826
883,887.2239467460087
884,887.0621465670116
885,886.9002947440657
886,886.7383091465796
887,886.5761122768084
888,886.4136317477833
889,886.2508007039432
890,886.0875581861618
891,885.923849442848
892,885.7596261888829
893,885.5948468142369
894,885.4294765438493
895,885.2634875495868
896,885.0968590143448
897,884.9295771485316
898,884.761635160605
899,884.593033185249
900,884.4237781741452
901,884.2538837548416
902,884.0833700634183
903,883.9122635568367
904,883.7405968108794
905,883.5684083090342
906,883.3957422265349
907,883.2226482125637
908,883.0491811726947
909,882.8754010529341
910,882.7013726259205
911,882.527165278923
912,882.3528528023622
913,882.1785131770156
914,882.0042283581008
915,881.830084054858
916,881.6561695045742
917,881.4825772400809
