frame_number,force
0,643.5025700000443
1,643.525774184055
2,643.5463619768778
3,643.5620867428448
4,643.5713615509031
5,643.5734196187352
6,643.5683301018587
7,643.5568731649741
8,643.5402883759094
9,643.5199305205135
10,643.4969017044825
11,643.4717582905164
12,643.444386771963
13,643.4140950944275
14,643.3798969944211
15,643.3409077151317
16,643.2967395887862
17,643.2477948340595
18,643.1953979358993
19,643.1417654677285
20,643.0898417680833
21,643.0430261762231
22,643.0048098982417
23,642.9783572950971
24,642.9661009962459
25,642.9694369907726
26,642.9885797292422
27,643.022580000216
28,643.0694552840762
29,643.1263630056724
30,643.189767526608
31,643.2555946988716
32,643.3194078656705
33,643.3766561552648
34,643.4230297320247
35,643.454913101273
36,643.4698777859835
37,643.4671194176685
38,643.4477297344318
39,643.4147082443769
40,643.3726680643772
41,643.3272637594298
42,643.2844351898933
43,643.2495974837958
44,643.2269138673313
45,643.2187768997823
46,643.225596995406
47,643.2459455552981
48,643.2770240144656
49,643.3153551371205
50,643.3575492583501
51,643.4009910862271
52,643.4443086980344
53,643.4875238933472
54,643.5318514408592
55,643.5792019635397
56,643.631514833948
57,643.6900820064154
58,643.7550207273958
59,643.825011882662
60,643.8973449070124
61,643.9682273093118
62,644.033264339366
63,644.0880053947343
64,644.1284722019885
65,644.1516067193809
66,644.1555930875081
67,644.1400212767364
68,644.1058808566995
69,644.0554054441376
70,643.9918193554871
71,643.9190483332607
72,643.8414394985899
73,643.7635019282411
74,643.6896452914146
75,643.6238802607304
76,643.56946600898
77,643.5285373996061
78,643.5017856297172
79,643.4882743049528
80,643.4854441026274
81,643.4893117292687
82,643.4948336212536
83,643.4964003994045
84,643.4884404321372
85,643.4661072683411
86,643.4259894754657
87,643.3667317195456
88,643.2894381291912
89,643.1977736171871
90,643.0977596244018
91,642.9973151442493
92,642.9055950908124
93,642.8321600695701
94,642.7860195041445
95,642.77463222647
96,642.8029961889592
97,642.8729745927624
98,642.9829742902732
99,643.1280265066739
100,643.3002407146597
101,643.4895310168472
102,643.6844789319942
103,643.8732170431591
104,644.0442752796002
105,644.1873750522702
106,644.2941560449899
107,644.3587944793691
108,644.3784539891228
109,644.3535128590033
110,644.2875299541897
111,644.1869423938431
112,644.0605233012946
113,643.9186519466803
114,643.7724528152226
115,643.6328564715039
116,643.5096423617817
117,643.4105464652291
118,643.3405425732183
119,643.301414051075
120,643.2917035697541
121,643.3070604277136
122,643.3409260328925
123,643.385442413324
124,643.4324488258175
125,643.4744374993527
126,643.5053572223142
127,643.52117637335
128,643.5201464297871
129,643.5027471959262
130,643.4713439962985
131,643.4296313299641
132,643.3819632081342
133,643.3326781185106
134,643.2855237503106
135,643.2432712753746
136,643.2075726324581
137,643.1790600020602
138,643.1576347282672
139,643.1428613396338
140,643.1343702550032
141,643.132174835003
142,643.1368298448555
143,643.149402062469
144,643.171278630461
145,643.2038854607439
146,643.248404762681
147,643.3055557741383
148,643.3754535325241
149,643.4575252367805
150,643.5504636426058
151,643.652218272477
152,643.7600411858132
153,643.8706028507378
154,643.9801829333225
155,644.0849317003239
156,644.181188505385
157,644.2658252591169
158,644.336560995639
159,644.3921906536297
160,644.4326952221837
161,644.459234040611
162,644.4740409739894
163,644.4802462086988
164,644.4816339008441
165,644.4823402743899
166,644.4865035838387
167,644.4978874091167
168,644.5195044471152
169,644.5532755280526
170,644.5997744440737
171,644.6581179024436
172,644.7260337039263
173,644.8000812480427
174,644.8759504619314
175,644.9487665890672
176,645.0133710900502
177,645.0645941626872
178,645.0975515699557
179,645.1079847489965
180,645.0926341647506
181,645.0496082772311
182,644.9786935371535
183,644.8815454351346
184,644.7617050427143
185,644.6244024893465
186,644.4761417891609
187,644.3241049087721
188,644.1754546482706
189,644.0366450499967
190,643.9128561754192
191,643.8076491076446
192,643.7228868287589
193,643.6589021869772
194,643.6148377437979
195,643.5890529821132
196,643.5795039698424
197,643.5840413273289
198,643.6006112919242
199,643.6273543848796
200,643.6625884819663
201,643.704672967485
202,643.7517908621973
203,643.801731321322
204,643.8517711821594
205,643.8987299280328
206,643.9392204804583
207,643.9700575128912
208,643.9887324929715
209,643.9938392868296
210,643.9853502634054
211,643.9646913070053
212,643.9346135694014
213,643.8988891658231
214,643.8618742324838
215,643.8279986640807
216,643.8012568245188
217,643.7847797644139
218,643.7805601607214
219,643.7893711936222
220,643.8108716433978
221,643.8438392290828
222,643.8864514700925
223,643.9365529813193
224,643.991890819555
225,644.0503255979678
226,644.1100137922393
227,644.169525103863
228,644.2278479542604
229,644.2842653387328
230,644.3381336751893
231,644.3886343623753
232,644.4345742660423
233,644.4742947084657
234,644.5057202547456
235,644.5265425206723
236,644.5344980285026
237,644.5276783070954
238,644.5048103417598
239,644.465454051306
240,644.4100750801618
241,644.3399807622658
242,644.2571590793606
243,644.1641023282363
244,644.0636922056743
245,643.9591741407165
246,643.854190267324
247,643.752803055919
248,643.6594381185281
249,643.57870175599
250,643.5150706571998
251,643.4724889392593
252,643.4539307143441
253,643.4609941020124
254,643.4935888889272
255,643.5497672858368
256,643.6257253074372
257,643.715975633843
258,643.8136762154763
259,643.9111007347614
260,644.0002386742505
261,644.07348905265
262,644.124372347564
263,644.1481671292483
264,644.1423958525484
265,644.1071117277833
266,644.0449489773594
267,643.9608991044926
268,643.8617916698618
269,643.7555026638208
270,643.6499769879138
271,643.5522097616104
272,643.4673609133247
273,643.3981667843899
274,643.3447620456842
275,643.304946054576
276,643.2748379602388
277,643.2497857512949
278,643.225348506311
279,643.198175435668
280,643.1666524069826
281,643.1312416300785
282,643.0944778588104
283,643.060615800095
284,643.0349688441275
285,643.0230346478733
286,643.029545144951
287,643.0575907999598
288,643.1079533377916
289,643.1787475631187
290,643.2654281006052
291,643.3611665772135
292,643.4575537986672
293,643.5455330031041
294,643.6164349225621
295,643.6629798278801
296,643.6801351723461
297,643.6657454198743
298,643.6208650884328
299,643.5497383310051
300,643.4594016545499
301,643.3589442580726
302,643.2585240116777
303,643.16828337428
304,643.0973210038605
305,643.0528436560767
306,643.0395629852095
307,643.059347326784
308,643.1111179911794
309,643.1909913579339
310,643.2926824032295
311,643.4081691861313
312,643.528566097994
313,643.645098113996
314,643.7500430936966
315,643.8375145293645
316,643.9039757326478
317,643.9484083797182
318,643.9721139846602
319,643.9781999604755
320,643.9708675879816
321,643.9546521266539
322,643.9337561419346
323,643.9115758081446
324,643.8904666409857
325,643.871747563361
326,643.8559033903877
327,643.8429091757814
328,643.8325761240515
329,643.8248320767033
330,643.8198932167487
331,643.8183183018893
332,643.8209457093324
333,643.8287206270255
334,643.842443964062
335,643.862501658915
336,643.888640541134
337,643.9198427569803
338,643.9543255720256
339,643.9896626213899
340,644.0229933801854
341,644.0512778130061
342,644.0715724227866
343,644.0813306846458
344,644.0787314128286
345,644.0630086817131
346,644.0347241155389
347,643.9959086679501
348,643.9500091674704
349,643.9016061078416
350,643.8559188258802
351,643.818159382494
352,643.7928197039091
353,643.7829868264911
354,643.7897904760281
355,643.8120871967773
356,643.8464601149064
357,643.8875633403719
358,643.92878115648
359,643.9631187149221
360,643.9841970412484
361,643.9871950363882
362,643.9695755586333
363,643.9314607452413
364,643.8755841752502
365,643.8068366608767
366,643.7315187063255
367,643.6564791912355
368,643.5883198504946
369,643.5327789091929
370,643.4943206700185
371,643.4759010696284
372,643.478864002963
373,643.502927616746
374,643.5462251299265
375,643.6053759956811
376,643.6755921180408
377,643.7508611928527
378,643.8242642238087
379,643.8884572159277
380,643.9362952588824
381,643.961533573153
382,643.9595164410649
383,643.9277554420489
384,643.8663034968678
385,643.777857851478
386,643.6675718936441
387,643.5426051609348
388,643.4114697157518
389,643.2832371212398
390,643.1666785995051
391,643.0694365522411
392,642.9973459186991
393,642.9540044519755
394,642.940627746693
395,642.9561522395618
396,642.997512568752
397,643.0600344751672
398,643.1379202495607
399,643.224816883706
400,643.3144385136999
401,643.4011854126231
402,643.480679067982
403,643.5501285751402
404,643.60846866483
405,643.6562569733865
406,643.6953624938797
407,643.7285034316623
408,643.7587077121375
409,643.7887818010233
410,643.8208752128423
411,643.8562059552373
412,643.8949712549793
413,643.9364284261991
414,643.9791052675495
415,644.0210868260231
416,644.0603220282916
417,644.0948989313516
418,644.1232526084667
419,644.1442940472472
420,644.1574715003135
421,644.1627824292378
422,644.1607431015852
423,644.1523120596053
424,644.1387715889704
425,644.1215951314468
426,644.1023450740238
427,644.0826332965725
428,644.0641376306122
429,644.0486253559983
430,644.037919159342
431,644.0337638125419
432,644.0375992704443
433,644.0502889487994
434,644.0718700864197
435,644.1013869223718
436,644.1368500540149
437,644.175344876021
438,644.2132833870584
439,644.2467541566831
440,644.2718949683454
441,644.285219417599
442,644.2838715743221
443,644.2658284314585
444,644.230085083695
445,644.1768373742366
446,644.1076440053604
447,644.0255295864306
448,643.9349834430454
449,643.8418023007877
450,643.752719500534
451,643.674785764614
452,643.6145369651761
453,643.5770795135496
454,643.5652866093606
455,643.5792891938759
456,643.6163754729689
457,643.6713230004186
458,643.7371050910472
459,643.8058458727243
460,643.8698543931553
461,643.9225601013636
462,643.9592001013648
463,643.9771650475705
464,643.975987573424
465,643.95703771179
466,643.9230458033386
467,643.8775844793947
468,643.8246086681492
469,643.7680956542154
470,643.71177462335
471,643.6589113464383
472,643.6121227140785
473,643.5732197352162
474,643.5430940801306
475,643.5216644469524
476,643.5078942418304
477,643.4998912759429
478,643.4950996043265
479,643.490583726086
480,643.4833848814229
481,643.4709037128217
482,643.4512415254402
483,643.423429756477
484,643.3875085759244
485,643.3444668814826
486,643.2960889285728
487,643.2447502002332
488,643.19318650886
489,643.1442472981805
490,643.100640336342
491,643.0646788613915
492,643.0380538138293
493,643.0216672243738
494,643.0155616986556
495,643.0189556405483
496,643.0303634685075
497,643.047771972728
498,643.0688563770171
499,643.0912295662728
500,643.1127121656937
501,643.1315931842138
502,643.1468333539317
503,643.1581621602011
504,643.1660418139569
505,643.1715041173442
506,643.1758905015962
507,643.1805391444994
508,643.186473580796
509,643.1941528495169
510,643.2033383995247
511,643.2131194574974
512,643.2221148828936
513,643.2288278178778
514,643.2320786726219
515,643.2314129446715
516,643.2273912262553
517,643.2217046571831
518,643.2170953054188
519,643.2170879510479
520,643.2255598102906
521,643.2461914036421
522,643.2818606286149
523,643.33406753105
524,643.4024983136524
525,643.4848310610263
526,643.5768445147722
527,643.672829824267
528,643.7662430800787
529,643.8504888472893
530,643.9197044473035
531,643.9694257088023
532,643.9970495361316
533,644.0020522431231
534,643.9859611336244
535,643.952104990008
536,643.9051913069973
537,643.850776179179
538,643.7946988276716
539,643.7425404610043
540,643.699145885579
541,643.6682354561862
542,643.6521397836563
543,643.651689707075
544,643.6662686134067
545,643.693994148336
546,643.7319754366293
547,643.7766059918586
548,643.8238822673756
549,643.8697544161166
550,643.9105099655717
551,643.9431720246441
552,643.9658707511638
553,643.9781234683768
554,643.9809448377508
555,643.976723896091
556,643.9688562718336
557,643.9611852217882
558,643.957353711168
559,643.9601880698928
560,643.9712252679477
561,643.9904673454905
562,644.0164011451469
563,644.0462660913254
564,644.076505722199
565,644.103318698326
566,644.1232314674259
567,644.1336278473241
568,644.1331745172745
569,644.1220816194557
570,644.1021521255744
571,644.076606117307
572,644.0497000660489
573,644.026184702239
574,644.0106668949533
575,644.0069671400529
576,644.0175785220952
577,644.0433175756284
578,644.0832158139685
579,644.1346483190536
580,644.1936455668206
581,644.2553029416316
582,644.3142098521854
583,644.3648658569457
584,644.402098648808
585,644.4215091211253
586,644.4199374049729
587,644.3958992322985
588,644.3499157089165
589,644.2846613905731
590,644.204876007533
591,644.1170142651706
592,644.0286447484224
593,643.9476554413745
594,643.8813740673929
595,643.8357460770527
596,643.8147092197623
597,643.8198598118395
598,643.8504423648793
599,643.9036313774508
600,643.9750248190064
601,644.0592448294857
602,644.1505426500361
603,644.2433175071149
604,644.3324801745039
605,644.4136338649486
606,644.4831008898569
607,644.5378609379305
608,644.5754688482742
609,644.5939998936539
610,644.5920467717025
611,644.5687728509316
612,644.5240157471193
613,644.4584332790073
614,644.3736784723678
615,644.2725711141135
616,644.1592069568342
617,644.0389319578136
618,643.9181223809109
619,643.803749630126
620,643.7027599247662
621,643.6213521716453
622,643.5642751305339
623,643.5342669563029
624,643.5317277661028
625,643.5546728791314
626,643.5989722972837
627,643.6588305435068
628,643.727406356531
629,643.7974488568105
630,643.8618540156373
631,643.9141009918908
632,643.9485821575641
633,643.9608751036171
634,643.94800398314
635,643.9086962985787
636,643.843585740589
637,643.755287067649
638,643.6482953869811
639,643.5287125515423
640,643.4038372330631
641,643.2816617154423
642,643.1703136504841
643,643.0774798152155
644,643.0098530265531
645,642.9726456066489
646,642.9692057892062
647,643.0007581241938
648,643.0662743552339
649,643.1624756536052
650,643.2839702833836
651,643.423533492394
652,643.5725273359086
653,643.7214378524105
654,643.8604946918704
655,643.9803489729103
656,644.0727999149096
657,644.1315436769288
658,644.1528633674094
659,644.1361226577409
660,644.0839130446681
661,644.0017631507786
662,643.8974329557205
663,643.7799317670275
664,643.6584598779592
665,643.5414638745642
666,643.4359379933522
667,643.3470331481716
668,643.2779749814673
669,643.2302505821344
670,643.2039948572911
671,643.1984827010037
672,643.2126145753693
673,643.2452876280968
674,643.2955829926912
675,643.3627595071026
676,643.4460967197595
677,643.544656372731
678,643.6570315486731
679,643.7811389981263
680,643.9140972352095
681,644.0522268664483
682,644.1912014643285
683,644.326351731397
684,644.4530817239711
685,644.5673134556182
686,644.6658585412296
687,644.7466333932672
688,644.8086838712267
689,644.8520457839177
690,644.8775081787892
691,644.886350336499
692,644.8801040761659
693,644.8603727873295
694,644.8287241244531
695,644.7866597227958
696,644.735650331158
697,644.6772106775412
698,644.6129801875995
699,644.5447776664766
700,644.4746092260308
701,644.4046244762991
702,644.3370308261949
703,644.2739827740386
704,644.217459876749
705,644.1691442143098
706,644.130319801358
707,644.1018358108237
708,644.0841732831452
709,644.0776143457392
710,644.0824551995162
711,644.0991700625624
712,644.1284467322038
713,644.1710638933056
714,644.2276323588659
715,644.2982558986619
716,644.3821850784997
717,644.4775439707153
718,644.5811998900332
719,644.688820951042
720,644.7951338479076
721,644.894360770063
722,644.980783466963
723,645.0493597138548
724,645.0963050344557
725,645.1195497722748
726,645.1189942559375
727,645.0965191038156
728,645.0557522802707
729,645.0016274678876
730,644.9397860578097
731,644.8758949308688
732,644.8149804206585
733,644.7608936747231
734,644.7159996537677
735,644.6811233356001
736,644.6557183166478
737,644.6381735371288
738,644.6261583135198
739,644.6169247322292
740,644.6075333877067
741,644.5950260082192
742,644.5766033299165
743,644.5498535492287
744,644.5130252221976
745,644.4652811472417
746,644.4068383303373
747,644.3389156321626
748,644.2634758371122
749,644.1828296664241
750,644.0992169287667
751,644.0144706730364
752,643.9298218922343
753,643.8458504269577
754,643.7625531575553
755,643.6794851118096
756,643.5959292633415
757,643.511065061416
758,643.4241282365621
759,643.3345699092982
760,643.24221970669
761,643.1474414929793
762,643.051255766771
763,642.9553964996957
764,642.8622727978343
765,642.7748170277102
766,642.6962190136778
767,642.6295692804778
768,642.57746222503
769,642.5416334885638
770,642.5227086332519
771,642.5201154960298
772,642.5321709800808
773,642.5563144699014
774,642.5894377570372
775,642.628253955624
776,642.6696491741402
777,642.7109710859582
778,642.750229510168
779,642.7862096761626
780,642.8185173251787
781,642.8475750109361
782,642.8745707678013
783,642.9013413598168
784,642.9301710651625
785,642.9635028274746
786,643.003582100745
787,643.0520793297114
788,643.1097545110911
789,643.1762232056735
790,643.2498577809678
791,643.3278247040544
792,643.4062348975513
793,643.4803784670806
794,643.5450228389636
795,643.5947651459194
796,643.6244411819125
797,643.6295952287587
798,643.6069928604713
799,643.5551157776749
800,643.474543222591
801,643.3681288433024
802,643.2409273388374
803,643.0998818091948
804,642.953315471999
805,642.8102777821896
806,642.6798037610872
807,642.5701710449304
808,642.4882581735218
809,642.4390908427038
810,642.4256134336155
811,642.4486691574555
812,642.5071348533659
813,642.5981409778317
814,642.7173145118493
815,642.8590090497735
816,643.0165185182466
817,643.1822974006213
818,643.3482314602805
819,643.5060123730998
820,643.6476451379502
821,643.7660538383684
822,643.8556877392523
823,643.9130142541203
824,643.9368251677071
825,643.9283404577162
826,643.8911302793491
827,643.8308814957015
828,643.7550259767552
829,643.6722382465573
830,643.5918084472638
831,643.5229109878163
832,643.4738207091243
833,643.4511648662003
834,643.4593223636276
835,643.5000771030283
836,643.5725945752611
837,643.6737270229185
838,643.7985832847311
839,643.9412480556289
840,644.0955139107256
841,644.2555018231146
842,644.4160913901474
843,644.5731443692426
844,644.7235556813388
845,644.8651903105847
846,644.9967692133757
847,645.1177588359066
848,645.2282960227479
849,645.3291494382447
850,645.4216970566895
851,645.5078957321913
852,645.5902255507522
853,645.671599268547
854,645.7552345437808
855,645.8444919734075
856,645.942681638139
857,646.0528411964693
858,646.1775000160118
859,646.3184630867096
860,646.4766585372735
861,646.6520778833377
862,646.8437998089148
863,647.0500538008212
864,647.2682841552772
865,647.4952188051595
866,647.7269919361612
867,647.9593752811419
868,648.188135280486
869,648.4094783336024
870,648.620505810251
871,648.8195891393032
872,649.0065894272616
873,649.1828749121138
874,649.3511240514398
875,649.5149372187653
876,649.6783141312985
877,649.8450841417896
878,650.0183913688802
879,650.2003212183795
880,650.3917080594575
881,650.5921078645084
882,650.7998827879393
883,651.012338758251
884,651.2258782286203
885,651.436169953007
886,651.6383772394718
887,651.8274940352425
888,651.9988009973092
889,652.1483960478172
890,652.2737105536786
891,652.3739109043711
892,652.4501090227432
893,652.5053527383213
894,652.5444110509976
895,652.5733895402963
896,652.599213153207
897,652.6290172930303
898,652.6695027386679
899,652.726326008701
900,652.8035981466091
901,652.9035464141903
902,653.0263679680522
903,653.170287494849
904,653.3318175916514
905,653.5061942064668
906,653.6879207503451
907,653.8713286760633
908,654.0510662263168
909,654.2224510363936
910,654.3816528703338
911,654.5257089273059
912,654.6524104536747
913,654.7601203780434
914,654.847582200161
915,654.9137698837241
916,654.9578152499383
917,654.9790341659099
918,654.9770529262029
