acceleration,velocity,displacement
-0.015509019081942077,0.0,0.0
-0.015252364567095215,-7.690345912259324e-06,-1.922586478064831e-09
-0.014977159776564343,-1.5247726998174214e-05,-7.657104705673216e-09
-0.01468383642417935,-2.2662976048360137e-05,-1.7134780467306803e-08
-0.014372809515012153,-2.9927137533158012e-05,-3.028230886268634e-08
-0.014044476295335636,-3.703145898574496e-05,-4.702195799241208e-08
-0.01369921566735386,-4.3967381976417335e-05,-6.727166823295265e-08
-0.013337388041790887,-5.072653290370352e-05,-9.094514695298287e-08
-0.012959335599819165,-5.730071381410603e-05,-1.1795195863243526e-07
-0.012565382950188702,-6.3681893451608e-05,-1.4819761044886378e-07
-0.012155838186767269,-6.9862198735847e-05,-1.8158363349572753e-07
-0.01173099436261356,-7.58339068731922e-05,-2.1800765989798734e-07
-0.011291131394211777,-8.158943831239854e-05,-2.57363496194385e-07
-0.010836518397224605,-8.712135076025763e-05,-2.9954119346254906e-07
-0.01036741643922817,-9.242233446937082e-05,-3.4442711476995616e-07
-0.009884081678194523,-9.74852089987265e-05,-3.919040006369805e-07
-0.009386768837198845,-0.00010230292162757483,-4.4185103329355583e-07
-0.008875734945260942,-0.00010686854757318977,-4.94143900593747e-07
-0.008351243253526241,-0.00011117529212288657,-5.48654860517766e-07
-0.007813567220703402,-0.00011521649474144398,-6.052528072338486e-07
-0.007262994458876613,-0.00011898563516133898,-6.638033397095443e-07
-0.0066998305436809635,-0.00012247634141197838,-7.241688338528737e-07
-0.006124402616204141,-0.00012568239970194966,-7.862085191313557e-07
-0.005537062729042442,-0.0001285977660382613,-8.497785605664084e-07
-0.004938190908927236,-0.00013121657944775372,-9.147321469379122e-07
-0.004328197920633827,-0.000133533176655144,-9.809195859636366e-07
-0.003707527721776244,-0.0001355421080657465,-1.0481884071438592e-06
-0.0030766595985663387,-0.00013723815489583217,-1.116383472884254e-06
-0.002436109969863125,-0.00013861634728793952,-1.1853470984301969e-06
-0.0017864338385681412,-0.00013967198324004734,-1.2549191810621937e-06
-0.00112822585474619,-0.00014040064816337591,-1.3249373389130496e-06
-0.0004621209373785165,-0.0001407982348614071,-1.3952370596692452e-06
0.00021120561415569647,-0.0001408609636922128,-1.4656518593076502e-06
0.0008910385982119614,-0.0001405854026391209,-1.5360134508904837e-06
0.0015766240574352885,-0.00013996848697520907,-1.6061519232940663e-06
0.0022671711536467925,-0.00013900753817243854,-1.6758959295809783e-06
0.0029618547928835703,-0.00013770028168580596,-1.7450728845455393e-06
0.0036598189775760514,-0.00013604486324319105,-1.8135091707777885e-06
0.004360180828605827,-0.00013403986329164558,-1.8810303524114978e-06
0.00506203520180482,-0.00013168430928404292,-1.94746139555542e-06
0.005764459812677107,-0.00012897768553042245,-2.0126268942590366e-06
0.006466520769801979,-0.0001259199403848027,-2.076351300737843e-06
0.0071672784018505485,-0.00012251149059188955,-2.1384591584820158e-06
0.007865793254224505,-0.00011875322267787078,-2.198775336799456e-06
0.00856113213553481,-0.00011464649133043094,-2.2571252653015315e-06
0.009252374110097319,-0.0001101931147690229,-2.313335166826395e-06
0.009938616352724805,-0.00010539536715331737,-2.36723228730698e-06
0.010618979797810962,-0.00010025596811568343,-2.41864512112423e-06
0.01129261451997358,-9.477806953623729e-05,-2.4674036305372104e-06
0.011958704776984087,-8.896523971199788e-05,-2.513339457849269e-06
0.012616473632742195,-8.282144510956631e-05,-2.5562861290546603e-06
0.013265187069373607,-7.635102993403736e-05,-2.5960792478155612e-06
0.01390415750231426,-6.955869379111539e-05,-2.6325566787468495e-06
0.014532746630511902,-6.244946775790885e-05,-2.6655587191341054e-06
0.015150367577147626,-5.502868920599397e-05,-2.694928258375081e-06
0.015756486296111864,-4.73019757376791e-05,-2.7205109246109995e-06
0.016350622235151886,-3.927519860486316e-05,-2.742155218196635e-06
0.016932348262550904,-3.095445598043746e-05,-2.75971263184296e-06
0.017501289880988778,-2.2346046444552535e-05,-2.773037757449208e-06
0.018057123764401356,-1.3456443033205e-05,-2.7819883798186473e-06
0.01859957565821542,-4.2922681775508065e-06,-2.7864255576213363e-06
0.01912841768558338,5.139730158398893e-06,-2.7862136921261243e-06
0.019643465109455926,1.4832700857158719e-05,-2.781220584372235e-06
0.020144572611718994,2.4779710287452452e-05,-2.7713174815860823e-06
0.02063163015769394,3.4973760979805685e-05,-2.7563791137692676e-06
0.02110455851252445,4.540780814736028e-05,-2.736283721487476e-06
0.021563304470773016,5.607477389318464e-05,-2.71091307597734e-06
0.022007835860152338,6.696755897591598e-05,-2.680152492760065e-06
0.02243813638645914,7.807905203756886e-05,-2.6438908400066937e-06
0.02285420039207204,8.940213623220165e-05,-2.602020542939251e-06
0.023256027595608908,0.00010092969322912189,-2.5544375855739202e-06
0.023643617864846842,0.00011265460459423582,-2.501041511118081e-06
0.024016966056968795,0.00012456975057468974,-2.4417354223258496e-06
0.02437605695008632,0.00013666800632645352,-2.3764259831005637e-06
0.02472086029814362,0.000148942235638511,-2.3050234226093225e-06
0.025051326072217522,0.00016138528223110128,-2.227441543141919e-06
0.025367379993494598,0.00017398995874752933,-2.1435977328972615e-06
0.02566891949419977,0.00018674903361945292,-2.053412984805516e-06
0.025955810247371886,0.00019965521605484583,-1.956811922386941e-06
0.026227883385344125,0.00021270113946302482,-1.8537228335074734e-06
0.02648493348959875,0.00022587934368176055,-1.744077712721277e-06
0.02672671739141072,0.00023918225640201293,-1.6278123127003335e-06
0.026952953778930946,0.00025260217419459835,-1.5048662050511806e-06
0.027163323564445868,0.0002661312435304426,-1.3751828506199204e-06
0.027357470932094233,0.0002797614421545776,-1.2387096791986654e-06
0.027535004970435182,0.00029348456113020995,-1.0953981783774685e-06
0.027695501797260387,0.00030729218782213385,-9.452039911393825e-07
0.027838507098727518,0.00032117569004613085,-7.880870216723163e-07
0.027963539023243385,0.00033512620157662355,-6.240115487666276e-07
0.02807009138702525,0.00034913460917919073,-4.529463460776741e-07
0.028157637160316742,0.00036319154131602625,-2.7486480845386983e-07
0.028225632211295645,0.00037728735865892935,-8.974508346013093e-08
0.02827351929004035,0.00039141214653426335,1.0242979283816725e-07
0.02830073223720892,0.0004055557094160757,3.0167175682575203e-07
0.028306700401189842,0.0004197075675756754,5.079875760736898e-07
0.028290853245722593,0.0004338569559874035,7.213787069644595e-07
0.028252625130601033,0.0004479928255814844,9.418411523566815e-07
0.028191460248722926,0.0004621038469263154,1.1693653204836314e-06
0.0281068176964971,0.0004761784164126204,1.4039358863183653e-06
0.02799817663963607,0.0004902046649966537,1.6455316566706839e-06
0.027865041520877327,0.000504170469536782,1.8941254403040429e-06
0.027706947249683443,0.0005180634667294222,2.149683924370594e-06
0.027523464319398745,0.0005318710696216927,2.4121675584583725e-06
0.02731420381127944,0.0005455804866543623,2.681530447527386e-06
0.027078822260004114,0.0005591787431721831,2.9577202549840224e-06
0.02681702636242113,0.0005726527053277894,3.2406781171090156e-06
0.026528577505826788,0.0005859891062948514,3.5303385700146755e-06
0.02621329608176471,0.0005991745746917492,3.826629490261326e-06
0.02587106555001397,0.0006121956650996939,4.129472050209187e-06
0.02550183622926247,0.000625038890544513,4.438780689120238e-06
0.02510562880648027,0.0006376907568034487,4.754463100957229e-06
0.024682537565924867,0.00065013779839655,5.0764202397572284e-06
0.024232733337583634,0.0006623666161224271,5.404546343386973e-06
0.023756466156998942,0.0006743639159960728,5.738728976416598e-06
0.023254067622086084,0.000686116549440844,6.078849092775827e-06
0.022725952933595486,0.0006976115545797644,6.424781118780979e-06
0.022172622607591425,0.0007088361984650611,6.776393057042185e-06
0.0215946638384879,0.0007197780200765809,7.133546611677596e-06
0.020992751469101834,0.0007304248739034784,7.496097335172611e-06
0.020367648500316304,0.0007407649738958329,7.863894797122438e-06
0.019720206054172226,0.000750786937534455,8.236782774980011e-06
0.01905136269091624,0.0007604798297207271,8.614599466793807e-06
0.018362142977332716,0.0007698332061377894,8.997177725758435e-06
0.017653655219136796,0.0007788371556869067,9.38434531621461e-06
0.016927088303669124,0.0007874823415676082,9.77592519052824e-06
0.016183707637391777,0.0007957600405528734,1.017173578605836e-05
0.015424850191582152,0.0008036621800101169,1.0571591341199107e-05
0.01465191868491284,0.0008111813722292406,1.0975302229258947e-05
0.01386637493920294,0.0008183109456352696,1.1382675308725075e-05
0.013069732452944635,0.0008250449724833065,1.1793514288254719e-05
0.012263548251581113,0.0008313782926594379,1.2207620104540404e-05
0.011449414097124844,0.0008373065332466144,1.2624791311016917e-05
0.010628947172956541,0.0008428261235641348,1.3044824475219605e-05
0.009803780392938218,0.0008479343054556085,1.3467514582474542e-05
0.008975552501006753,0.0008526291386790947,1.3892655443508218e-05
0.008145898120819655,0.0008569095013345513,1.432004010351163e-05
0.0073164378918271706,0.0008607750853377131,1.4749461250179697e-05
0.006488768800652688,0.000864226387010833,1.5180711618266833e-05
0.005664454794988428,0.0008672646929097433,1.5613584388246976e-05
0.00484501775570148,0.0008698920610474159,1.6047873576736266e-05
0.004031928895629389,0.0008721112977102486,1.648337441642568e-05
0.0032266006422450046,0.0008739259300947172,1.6919883723376922e-05
0.002430379047389293,0.0008753401750171257,1.7357200249654884e-05
0.0016445367592034159,0.0008763589039687739,1.779512501940136e-05
0.0008702665893536301,0.0008769876048059131,1.8233461646595032e-05
0.00010867570695569895,0.0008772323403799904,1.867201663289151e-05
-0.000639219509681021,0.000877099704429309,1.9110599644093835e-05
-0.0013724979261195275,0.0008765967750703589,1.954902376396875e-05
-0.002090337364330092,0.0008757310662477465,1.9987105724298277e-05
-0.0027920175319654816,0.0008745104775236726,2.0424666110241133e-05
-0.0034769221443965307,0.0008729432426045821,2.0861529540273195e-05
-0.004144540243808941,0.0008710378770075307,2.1297524820176222e-05
-0.004794466746040447,0.0008688031252600683,2.1732485070743122e-05
-0.005426402264774533,0.0008662479080073645,2.2166247829059982e-05
-0.006040152277064597,0.0008633812693719048,2.25986551234048e-05
-0.006635625706405142,0.0008602123248760373,2.3029553521966786e-05
-0.007212833003994597,0.0008567502101984373,2.3458794155735407e-05
-0.007771883797409391,0.0008530040309980863,2.3886232716034538e-05
-0.00831298415014548,0.0008489828140111976,2.431172942728686e-05
-0.008836433447196278,0.0008446954596118621,2.4735148995692624e-05
-0.009342620903441361,0.0008401506960242027,2.5156360534601642e-05
-0.009832021689006243,0.0008353570353760908,2.5575237467451717e-05
-0.010305192677521452,0.000830322731784459,2.5991657409241854e-05
-0.010762767843168212,0.0008250557416542866,2.640550202760154e-05
-0.01120545335440788,0.0008195636863548926,2.6816656884603836e-05
-0.01163402243277289,0.0008138538174080974,2.7225011260544585e-05
-0.01204931005973481,0.0008079329842849705,2.7630457960967852e-05
-0.012452207617291917,0.0008018076048657138,2.803289310825552e-05
-0.012843657534744113,0.0007954836385777048,2.8432215919116376e-05
-0.013224647987644923,0.0007889665621971075,2.882832846931008e-05
-0.013596207661628754,0.0007822613482847892,2.9221135446930554e-05
-0.013959400557859419,0.0007753724462299171,2.9610543895559233e-05
-0.014315320782437309,0.000768303765894843,2.999646294859042e-05
-0.014665087239770868,0.000761058663889291,3.0378803556036455e-05
-0.015009838152089415,0.0007536399325413259,3.075747820514411e-05
-0.015350725354283569,0.0007460497916647326,3.113240063619562e-05
-0.0156889083506395,0.0007382898832385018,3.1503485554921424e-05
-0.0160255481506705,0.0007303612691131744,3.1870648343009344e-05
-0.016361800917042806,0.0007222644318462461,3.22338047682492e-05
-0.016698811463885136,0.0007139992787510141,3.2592870695898514e-05
-0.01703770665038831,0.0007055651492224457,3.294776180289188e-05
-0.017379588729577296,0.0006969608253774544,3.329839329654186e-05
-0.017725528729785674,0.0006881845460126136,3.3644679639389375e-05
-0.018076559955291012,0.0006792340238413444,3.3986534281852866e-05
-0.018433671689904226,0.0006701064659300456,3.432386940429571e-05
-0.018797803179758377,0.0006607985972126299,3.465659567008138e-05
-0.019169837965263482,0.0006513066869263744,3.4984621991116126e-05
-0.019550598626925465,0.0006416265777783272,3.53078553072923e-05
-0.01994084200135756,0.0006317537176212565,3.56262003811422e-05
-0.02034125490987157,0.0006216831933934492,3.593955960889588e-05
-0.020752450425908144,0.0006114097670595043,3.624783284900912e-05
-0.021174964692945168,0.000600927913279791,3.655091726909394e-05
-0.02160925428855117,0.0005902318585344169,3.684870721204749e-05
-0.02205569410912783,0.0005793156214349972,3.714109408203984e-05
-0.02251457572733815,0.0005681730539758807,3.7427966250892563e-05
-0.022986106156834885,0.0005567978835048374,3.7709208985262744e-05
-0.023470406949006112,0.0005451837552283771,3.7984704394946046e-05
-0.023967513545580996,0.0005333242751047303,3.8254331402529324e-05
-0.02447737482212225,0.0005212130530128045,3.8517965734558705e-05
-0.0249998527778143,0.0005088437461128203,3.8775479934340114e-05
-0.025534722346134693,0.0004962101023318331,3.902674339645128e-05
-0.026081671311780588,0.00048330600391735426,3.927162242301358e-05
-0.02664030032406875,0.0004701255110083919,3.9509980301745016e-05
-0.027210123002002727,0.00045666290517687403,3.974167740579133e-05
-0.027790566134173404,0.00044291273289283,3.996657131530876e-05
-0.02838096998532342,0.00042886984886295575,4.018451696074771e-05
-0.0289805887257988,0.0004145294591851752,4.039536678775974e-05
-0.029588590998936022,0.0003998871642539915,4.059897094361953e-05
-0.030204060638976394,0.0003849390013445134,4.079517748501916e-05
-0.030825997552376694,0.00036968148679667514,4.098383260705446e-05
-0.0314533187773099,0.0003541116577142535,4.116478089318219e-05
-0.03208485973674228,0.00033822711308574045,4.133786558588219e-05
-0.03271937570128111,0.0003220260542262346,4.150292887771018e-05
-0.033355543484514284,0.00030550732442978577,4.1659812222374185e-05
-0.03399196340834725,0.00028867044770657037,4.180835666540828e-05
-0.034627161594731594,0.00027151566645580065,4.194840319394887e-05
-0.03525959265640912,0.0002540439778930155,4.2079793105036074e-05
-0.03588764286869392,0.00023625716901173974,4.2202368391762266e-05
-0.03650963390729267,0.0002181578498177431,4.231597214646964e-05
-0.03712382723809361,0.00019974948453139655,4.242044898005692e-05
-0.0377284292474689,0.0001810364204100059,4.251564545629227e-05
-0.038321597201354765,0.0001620239137978,4.260141053984422e-05
-0.038901446106671816,0.00014271815297079335,4.267759605653637e-05
-0.039466056515525316,0.00012312627731524408,4.2744057164107875e-05
-0.040013483272079195,0.00010325639236834295,4.2800652831528775e-05
-0.04054176516734747,8.311758025848629e-05,4.284724632468548e-05
-0.04104893544075415,6.271990510646088e-05,4.2883705696026717e-05
-0.04153303304321661,4.2074412985468195e-05,4.2909904275549696e-05
-0.041992114550446505,2.1193126087052415e-05,4.292572116031782e-05
-0.042424266585022234,8.903080318523038e-08,4.293104169954038e-05
-0.04282761857032241,-2.1223940485650933e-05,4.292575797211976e-05
-0.04320035560354785,-4.27309340291185e-05,4.290976925349107e-05
-0.043540731212752,-6.441620573319346e-05,4.288298246855049e-05
-0.04384707976544252,-8.626315847774209e-05,4.2845312627497756e-05
-0.04411782832038549,-0.00010825438549919909,4.279668324150352e-05
-0.04435150774701677,-0.00013037171951604966,4.273702671524971e-05
-0.044546762968225115,-0.00015259628719486014,4.266628471357198e-05
-0.04470236220605832,-0.000174908568488431,4.2584408499651156e-05
-0.04481720512487651,-0.00019728846032116473,4.249135924244876e-05
-0.044890329779715486,-0.0002197153440473127,4.238710829135664e-05
-0.04492091829714599,-0.00024216815606652807,4.2271637416328184e-05
-0.04490830123980155,-0.00026462546095076497,4.214493901207386e-05
-0.04485196062606059,-0.00028706552641723053,4.2007016265231864e-05
-0.044751531590443,-0.00030946639947135643,4.1857883283759715e-05
-0.04460680268259497,-0.0003318059830396159,4.169756518813197e-05
-0.044417714819240624,-0.0003540621124150748,4.1526098164268294e-05
-0.044184358926308176,-0.000376212630851462,4.134352947845166e-05
-0.04390697233731961,-0.00039823546366736897,4.114991745482195e-05
-0.043585934049790345,-0.00042010869026414644,4.094533141633907e-05
-0.043221758983357735,-0.0004418106135224335,4.0729851590392424e-05
-0.04281509142116515,-0.0004633198261235642,4.0503568980480923e-05
-0.04236669783371651,-0.0004846152734372846,4.026658520559071e-05
-0.04187745927751242,-0.0005056763127150918,4.001901230905261e-05
-0.04134836353986722,-0.0005264827684194367,3.976097253876898e-05
-0.040780497176731975,-0.0005470149835985864,3.949259810076447e-05
-0.04017503756508619,-0.000567253867284041,3.921403088804381e-05
-0.039533245067635045,-0.0005871809379422214,3.892542218673725e-05
-0.03885645539066613,-0.0006067783630567966,3.8626932361487494e-05
-0.03814607220856682,-0.0006260289949566049,3.831873052198415e-05
-0.03740356012596508,-0.0006449164030402378,3.800099417248494e-05
-0.03663043804395777,-0.0006634249025827185,3.76739088460792e-05
-0.035828272987131135,-0.0006815395803404908,3.73376677253484e-05
-0.03499867443226584,-0.00069924631719534,3.699247125096444e-05
-0.034143289157178916,-0.0007165318080927012,3.663852671964243e-05
-0.03326379660146151,-0.0007333835795323613,3.627604787273616e-05
-0.03236190470626513,-0.0007497900048592929,3.5905254476638244e-05
-0.03143934618415115,-0.000765740317581897,3.552637189602795e-05
-0.03049787516457958,-0.0007812246229190797,3.51396306609027e-05
-0.02953926416333788,-0.000796233907751059,3.474526602823517e-05
-0.028565301328436286,-0.0008107600491240026,3.43435175390164e-05
-0.027577787913373137,-0.000824795821434455,3.393462857137679e-05
-0.026578535920001502,-0.0008383349023927987,3.351884589041998e-05
-0.025569365845157562,-0.0008513718778340884,3.309641919536326e-05
-0.02455210446549472,-0.0008639022454117514,3.26676006645518e-05
-0.023528582601898173,-0.0008759224171785996,3.223264449890421e-05
-0.02250063280907684,-0.0008874297210313434,3.179180646435172e-05
-0.021470086931243918,-0.0008984224009664235,3.134534343385228e-05
-0.02043877345439277,-0.0009088996160628327,3.089351292959497e-05
-0.019408514578843804,-0.0009188614380711418,3.0436572666061474e-05
-0.018381122942564186,-0.0009283088474514938,2.9974780094680816e-05
-0.017358397950690392,-0.0009372437276748075,2.950839195089924e-05
-0.01634212170489079,-0.0009456688575887028,2.9037663804583363e-05
-0.015334054567503159,-0.0009535879016568013,2.8562849614771988e-05
-0.014335930430809683,-0.0009610053979063795,2.8084201289881194e-05
-0.013349451784228738,-0.0009679267434601391,2.7601968254539564e-05
-0.012376284675634699,-0.0009743581775751049,2.7116397024280754e-05
-0.011418053646429869,-0.0009803067621556212,2.6627730789348074e-05
-0.010476336690095744,-0.0009857803597397526,2.613620900887423e-05
-0.009552660252035591,-0.0009907876089752855,2.564206701669547e-05
-0.00864849426462237,-0.00099533789760445,2.5145535640050537e-05
-0.0077652472011499095,-0.000999441332970893,2.4646840832406703e-05
-0.0069042611346209455,-0.0010031087100548358,2.414620332165027e-05
-0.006066806797731114,-0.0010063514770379239,2.3643838274877078e-05
-0.005254078657679038,-0.0010091816984017764,2.3139954981017154e-05
-0.004467190044317233,-0.0010116120155772754,2.2634756552522392e-05
-0.003707168397396357,-0.0010136556051877038,2.2128439647331147e-05
-0.00297495071636903,-0.0010153261349661452,2.1621194212292683e-05
-0.0022713792981880663,-0.0010166377174697845,2.11132032491837e-05
-0.0015971978417687045,-0.0010176048617547737,2.060464260437756e-05
-0.0009530479947455456,-0.0010182424232139022,2.0095680783135394e-05
