acceleration,velocity,displacement
-0.015509019032910286,0.0,0.0
-0.015252364516376009,-7.690345887321573e-06,-1.9225864718303934e-09
-0.01497715972427208,-1.5247726947483595e-05,-7.657104680531685e-09
-0.014683836370442873,-2.2662975971162334e-05,-1.713478041019317e-08
-0.01437280945998284,-2.9927137428768764e-05,-3.0282308760175944e-08
-0.014044476239185788,-3.703145885356092e-05,-4.7021957830758366e-08
-0.013699215610278308,-4.3967381815926946e-05,-6.727166799813033e-08
-0.013337387983998947,-5.072653271449626e-05,-9.094514663073613e-08
-0.012959335541529816,-5.7300713595878457e-05,-1.1795195820832982e-07
-0.0125653828916354,-6.368189320416976e-05,-1.4819760990834188e-07
-0.012155838128193128,-6.986219845912689e-05,-1.8158363282416603e-07
-0.011730994304268135,-7.58339065672422e-05,-2.180076590807583e-07
-0.011291131336347838,-8.158943797739619e-05,-2.573634952169179e-07
-0.010836518340086875,-8.712135039650487e-05,-2.9954119231039314e-07
-0.010367416383046881,-9.242233407728831e-05,-3.4442711342884143e-07
-0.009884081623188642,-9.748520857884719e-05,-3.919039990928753e-07
-0.009386768783572851,-0.00010230292118053757,-4.418510315327215e-07
-0.008875734893209655,-0.0001068685470997332,-4.941438986027892e-07
-0.008351243203236427,-0.00011117529162384472,-5.486548582836836e-07
-0.007813567172344129,-0.00011521649421773986,-6.052528047440797e-07
-0.007262994412596017,-0.0001189856346139749,-6.638033369520084e-07
-0.006699830499609475,-0.00012247634084202626,-7.241688308160087e-07
-0.006124402574456093,-0.00012568239911054266,-7.862085158041509e-07
-0.005537062689720899,-0.0001285977654265869,-8.497785569384333e-07
-0.004938190872120774,-0.00013121657881704732,-9.147321429993419e-07
-0.004328197886411705,-0.00013353317600668045,-9.80919581705274e-07
-0.003707527690188405,-0.00013554210740083047,-1.0481884025571516e-06
-0.0030766595696450167,-0.00013723815421578882,-1.1163834679613065e-06
-0.002436109943622846,-0.00013861634659410578,-1.1853470931637801e-06
-0.0017864338150025054,-0.00013967198253376213,-1.2549191754457471e-06
-0.001128225833835917,-0.00014040064744597172,-1.3249373329406806e-06
-0.00046212091909788574,-0.00014079823413420516,-1.3952370533357247e-06
0.0002112056298340187,-0.00014086096295652114,-1.4656518526084062e-06
0.000891038611313702,-0.0001405854018962342,-1.536013443821595e-06
0.0015766240679813482,-0.00013996848622641045,-1.606151915852256e-06
0.0022671711616548567,-0.0001390075374190014,-1.6758959217636091e-06
0.0029618547983664987,-0.00013770028092899606,-1.7450728763506084e-06
0.0036598189805483166,-0.00013604486248426737,-1.8135091622039243e-06
0.004360180829086735,-0.0001340398625318586,-1.881030343457956e-06
0.005062035199820117,-0.0001316843085246319,-1.9474613862220784e-06
0.005764459808268641,-0.0001289776847726097,-2.012626884546389e-06
0.006466520763027699,-0.0001259199396297856,-2.0763512906469877e-06
0.00716727839278933,-0.00012251148984083134,-2.138459148014642e-06
0.007865793242971323,-0.00011875322193189118,-2.1987753259578225e-06
0.00856113212220235,-0.00011464649059059775,-2.257125254088445e-06
0.00925237409481276,-0.00011019311403634397,-2.3133351552451806e-06
0.009938616335624982,-0.00010539536642873454,-2.3672322753614504e-06
0.010618979779034327,-0.00010025596740006971,-2.4186451088186516e-06
0.011292614499655365,-9.47780688303973e-05,-2.4674036178762685e-06
0.011958704755256315,-8.896523901666937e-05,-2.513339444838035e-06
0.012616473609740105,-8.282144442542026e-05,-2.5562861156985575e-06
0.013265187045237273,-7.635102926167592e-05,-2.5960792341203315e-06
0.013904157477191807,-6.955869313106864e-05,-2.6325566647185176e-06
0.014532746604557898,-6.244946711063122e-05,-2.6655587047789426e-06
0.015150367550519853,-5.502868857186178e-05,-2.6949282436995657e-06
0.015756486268972945,-4.730197511698858e-05,-2.720510909621778e-06
0.016350622207670876,-3.9275197997827626e-05,-2.742155202900482e-06
0.01693234823490652,-3.095445538718327e-05,-2.759712616246735e-06
0.017501289853371012,-2.234604586511389e-05,-2.773037741559809e-06
0.018057123737009847,-1.3456442467518677e-05,-2.781988363642967e-06
0.01859957563125626,-4.29226762545215e-06,-2.78642554116621e-06
0.019128417659270702,5.139730697179591e-06,-2.786213675398278e-06
0.01964346508401352,1.4832701383000647e-05,-2.781220567378233e-06
0.02014457258737548,2.4779710800847896e-05,-2.771317464332271e-06
0.020631630134677947,3.4973761481361255e-05,-2.7563790962617187e-06
0.02110455849105494,4.540780863779448e-05,-2.73628370373193e-06
0.02156330445105286,5.607477437332143e-05,-2.710913057979151e-06
0.022007835842360258,6.696755944667472e-05,-2.680152474524152e-06
0.02243813637075938,7.807905249995463e-05,-2.6438908215374948e-06
0.022854200378620786,8.940213668729967e-05,-2.602020524240681e-06
0.02325602758454948,0.00010092969367809224,-2.554437566649333e-06
0.02364361785631128,0.00011265460503830744,-2.501041491970233e-06
0.024016966051074666,0.00012456975101515392,-2.441735402956868e-06
0.024376056946935083,0.00013666800676465635,-2.3764259635119155e-06
0.024720860297822257,0.0001489422360758457,-2.30502340280179e-06
0.025051326074793694,0.00016138528266899967,-2.2274415231155785e-06
0.025367379999015043,0.00017398995918745187,-2.1435977126514656e-06
0.025668919502685475,0.000186749034062877,-2.053412964338883e-06
0.0259558102588213,0.0001996552165032537,-1.9568119016973507e-06
0.026227883399737993,0.00021270113991789352,-1.8537228125920638e-06
0.02648493350689529,0.00022587934414455184,-1.7440776915764525e-06
0.026726717411548827,0.00023918225687416287,-1.6278122913217737e-06
0.026952953801826985,0.0002526021746775068,-1.5048661834338562e-06
0.027163323589993668,0.00026613124402546196,-1.3751828287581141e-06
0.027357470960171534,0.00027976144266300327,-1.2387096570859979e-06
0.027535005000903626,0.00029348456165327207,-1.095398156006929e-06
0.02769550182996713,0.00030729218836098975,-9.452039685033635e-07
0.027838507133502017,0.00032117569060185705,-7.880869987626517e-07
0.027963539059898998,0.0003351262021502073,-6.240115255746357e-07
0.0280700914253689,0.0003491346097715243,-4.5294632259420276e-07
0.028157637200142478,0.00036319154192790214,-2.7486478466934614e-07
0.02822563225238947,0.00037728735929103515,-8.974505936461181e-08
0.028273519332177005,0.0003914121471871768,1.0242981725494116e-07
0.028300732280166364,0.0004055557100902626,3.0167178157430097e-07
0.02830670044475891,0.00041970756827149395,5.079876011647401e-07
0.028290853289703786,0.0004338569567051096,7.213787324088911e-07
0.028252625174796465,0.00044799282632123467,9.418411781654771e-07
0.028191460292939535,0.0004621038476881687,1.169365346667828e-06
0.028106817740549878,0.00047617841719654105,1.4039359128890054e-06
0.027998176683344842,0.0004902046658025147,1.6455316836387694e-06
0.027865041564069968,0.0005041704703643684,1.8941254676804901e-06
0.027706947292194268,0.0005180634675784344,2.149683952166191e-06
0.02752346436107172,0.000531871070491751,2.412167586683737e-06
0.027314203851963377,0.0005455804875450097,2.6815304761929275e-06
0.027078822299552642,0.0005591787440828887,2.957720284099902e-06
0.026817026400686273,0.0005726527062579485,3.2406781466851115e-06
0.026528577542663793,0.000585989107243786,3.5303386000605452e-06
0.026213296117028825,0.0005991745756587091,3.826629520786169e-06
0.02587106558356366,0.0006121956660838573,4.129472081221811e-06
0.025501836260959424,0.0006250388915449881,4.438780720629022e-06
0.02510562883619422,0.0006376907578192765,4.754463132970088e-06
0.02468253759353198,0.0006501377994267081,5.076420272281584e-06
0.02423273336297618,0.0006623666171658351,5.40454637642972e-06
0.023756466180091723,0.0006743639170516021,5.73872900998408e-06
0.023254067642816432,0.0006861165505073291,6.0788491268738126e-06
0.02272595295192649,0.0006976115556560149,6.4247811534146485e-06
0.022172622623511915,0.0007088361995498745,6.77639309221612e-06
0.021594663852006032,0.0007197780211687539,7.133546647395778e-06
0.02099275148024024,0.0007304248750018155,7.49609737143842e-06
0.020367648509104053,0.0007407649749991516,7.863894833938661e-06
0.01972020606064804,0.0007507869386415896,8.236782812348847e-06
0.019051362695131715,0.0007604798308305346,8.614599504716878e-06
0.018362142979347497,0.0007698332072491544,8.997177764236801e-06
0.01765365521902178,0.0007788371567987467,9.384345355248777e-06
0.01692708830150165,0.0007874823426788776,9.775925230118183e-06
0.016183707633255613,0.0007957600416625669,1.0171735826203545e-05
0.015424850185561062,0.000803662181117271,1.0571591381898505e-05
0.014651918677093801,0.0008111813733329348,1.0975302270511056e-05
0.013866374929674534,0.0008183109467346268,1.1382675350527946e-05
0.013069732441793824,0.0008250449735774939,1.1793514330605977e-05
0.012263548238894858,0.0008313782937476661,1.2207620147437267e-05
0.01144941408298688,0.0008373065343281365,1.2624791354456217e-05
0.010628947157450589,0.0008428261246382459,1.3044824519197813e-05
0.009803780376151218,0.0008479343065216463,1.3467514626987787e-05
0.008975552483033685,0.0008526291397364426,1.3892655488552309e-05
0.008145898101758711,0.0008569095023826407,1.4320040149082079e-05
0.007316437871776535,0.0008607750863760245,1.4749461296271745e-05
0.006488768779708931,0.0008642263880388959,1.5180711664875475e-05
0.0056644547732497205,0.0008672646939271356,1.561358443536698e-05
0.0048450177332675995,0.0008698920620537648,1.6047873624362208e-05
0.004031928872606542,0.0008721112987052334,1.6483374464551958e-05
0.0032266006187297363,0.0008739259310780674,1.6919883771997782e-05
0.002430379023465265,0.0008753401759886162,1.7357200298764452e-05
0.0016445367349349693,0.0008763589049282163,1.779512506899366e-05
0.000870266564790615,0.0008769876057531477,1.8233461696664e-05
0.00010867568214152205,0.0008772323413148807,1.8672016683431007e-05
-0.0006392195347077859,0.0008770997053517391,1.9110599695097663e-05
-0.0013724979513267486,0.0008765967759802305,1.9549023815430654e-05
-0.002090337389682422,0.0008757310671449782,1.9987105776211958e-05
-0.002792017557430795,0.0008745104784081999,2.042466616260025e-05
-0.0034769221699475343,0.0008729432434763553,2.0861529593071388e-05
-0.004144540269418343,0.0008710378778665138,2.1297524873407107e-05
-0.004794466771680957,0.000868803126106239,2.1732485124400295e-05
-0.005426402290418862,0.0008662479088407141,2.2166247883137032e-05
-0.006040152302683848,0.0008633812701924384,2.259865517789532e-05
-0.006635625731967198,0.0008602123256837756,2.3029553576864374e-05
-0.007212833029462513,0.0008567502109934181,2.345879421103367e-05
-0.007771883822739784,0.0008530040317803676,2.3886232771727116e-05
-0.008312984175290134,0.0008489828147808602,2.4311729483367424e-05
-0.00883643347209732,0.0008446954603690133,2.4735149052154892e-05
-0.0093426209280377,0.0008401506967689795,2.515636059143939e-05
-0.009832021713241611,0.0008353570361086597,2.5575237524658797e-05
-0.01030519270133797,0.0008303227325050147,2.5991657466812217e-05
-0.01076276786650961,0.0008250557423630529,2.6405502085529235e-05
-0.011205453377224318,0.0008195636870521193,2.681665694288303e-05
-0.011634022455016142,0.0008138538180940592,2.7225011319169575e-05
-0.012049310081358252,0.0008079329849599656,2.763045801993308e-05
-0.012452207638255358,0.0008018076055300622,2.803289316755559e-05
-0.012843657555012192,0.0007954836392317453,2.843221597874604e-05
-0.013224648007191928,0.0007889665628411942,2.8828328529264278e-05
-0.013596207680433797,0.0007822613489192878,2.92211355072044e-05
-0.01395940057590966,0.0007753724468552019,2.961054395614802e-05
-0.0143153207997199,0.0007683037665112946,2.9996463009489644e-05
-0.014665087256277791,0.0007610586644972951,3.0378803617241792e-05
-0.015009838167819076,0.0007536399331412709,3.075747826665143e-05
-0.015350725369240814,0.0007460497922570059,3.1132400698001004e-05
-0.01568890836483239,0.0007382898838234876,3.150348561702113e-05
-0.01602554816410709,0.0007303612696912527,3.187064840539981e-05
-0.016361800929727922,0.000722264432417794,3.223380483092707e-05
-0.016698811475823607,0.000713999279316406,3.259287075886062e-05
-0.017037706661586563,0.0007055651497820535,3.294776186613524e-05
-0.017379588740036936,0.0006969608259316477,3.3298393360063664e-05
-0.017725528739505066,0.0006881845465617622,3.3644679703187016e-05
-0.018076559964266922,0.0006792340243858192,3.398653434592391e-05
-0.018433671698131798,0.0006701064664702195,3.432386946863792e-05
-0.018797803187227922,0.0006607985977488796,3.465659573469269e-05
-0.019169837971960483,0.0006513066874590824,3.498462205599468e-05
-0.01955059863283862,0.0006416265783078827,3.530785537243642e-05
-0.01994084200648039,0.0006317537181480529,3.5626200446550404e-05
-0.020341254914195982,0.0006216831939178839,3.593955967456689e-05
-0.02075245042941961,0.00061140976758198,3.624783291494185e-05
-0.021174964695625933,0.0006009279138007186,3.6550917335287525e-05
-0.021609254290381876,0.0005902318590542166,3.684870727850126e-05
-0.022055694110084272,0.0005793156219541,3.714109414875334e-05
-0.022514575727386483,0.0005681730544947323,3.742796631786555e-05
-0.022986106155931593,0.0005567978840239028,3.7709209052495205e-05
-0.023470406947098028,0.0005451837557481455,3.798470446243822e-05
-0.023967513542610123,0.0005333242756257184,3.8254331470281687e-05
-0.02447737481803058,0.0005212130535355582,3.851796580257201e-05
-0.02499985277255189,0.0005088437466379127,3.8775480002615374e-05
-0.02553472233965481,0.000496210102859861,3.902674346498982e-05
-0.026081671304041338,0.00048330600444893696,3.9271622491817015e-05
-0.026640300315033057,0.00047012551154416836,3.950998037081529e-05
-0.027210122991644794,0.00045666290571749887,3.974167747513071e-05
-0.02779056612248031,0.0004429127334389676,3.9966571384919823e-05
-0.028380969972288683,0.00042886984941527533,4.018451703063338e-05
-0.028980588711419168,0.00041452945974434835,4.039536685792329e-05
-0.029588590983214674,0.0003998871648206899,4.0598971014064544e-05
-0.03020406062191491,0.0003849390019194075,4.079517755574957e-05
-0.030825997533981485,0.0003696814873804334,4.0983832678074526e-05
-0.03145331875758738,0.0003541116583075412,4.1164780964496516e-05
-0.032084859715702095,0.0003382271136892188,4.1337865657495705e-05
-0.032719375678944174,0.0003220260548405572,4.150292894962815e-05
-0.033355543460915994,0.0003055073250555922,4.165981229460218e-05
-0.033991963383534295,0.00028867044834447964,4.18083567379522e-05
-0.03462716156875387,0.0002715156671064076,4.194840326681492e-05
-0.03525959262931813,0.0002540439785568896,4.2079793178230746e-05
-0.03588764284053316,0.0002362571696894268,4.220236846529232e-05
-0.0365096338781024,0.00021815785050976788,4.231597222034212e-05
-0.037123827207906065,0.00019974948523826576,4.242044905427913e-05
-0.037728429216316306,0.00018103642113221017,4.2515645530871747e-05
-0.038321597169267745,0.00016202391453581415,4.2601410614788754e-05
-0.03890144607368584,0.00014271815372507576,4.2677596131853975e-05
-0.03946605648168874,0.00012312627808623212,4.27440572398068e-05
-0.04001348323744842,0.00010325639315644783,4.2800652907617474e-05
-0.040541765131991786,8.311758106408778e-05,4.284724640117261e-05
-0.041048935404752525,6.27199059299017e-05,4.2883705772921106e-05
-0.041533033006648,4.207441382705157e-05,4.2909904352860344e-05
-0.04199211451338668,2.11931269470429e-05,4.2925721238053865e-05
-0.04242426654754695,8.903168180949113e-08,4.293104177771108e-05
-0.04282761853251065,-2.122393958820491e-05,4.292575805073448e-05
-0.043200355565486674,-4.2730933112704244e-05,4.290976933255925e-05
-0.043540731174533276,-6.441620479770923e-05,4.288298254808165e-05
-0.043847079727167795,-8.62631575231345e-05,4.2845312707501434e-05
-0.044117828282164366,-0.00010825438452546754,4.2796683321989285e-05
-0.04435150770896047,-0.00013037171852324874,4.2737026796227103e-05
-0.044546762930443254,-0.00015259628618309967,4.266628479505052e-05
-0.044702362168662114,-0.000174908567457876,4.258440858164027e-05
-0.04481720508797559,-0.00019728845927203544,4.249135932495779e-05
-0.04489032974340982,-0.0002197153429798818,4.238710837439481e-05
-0.0449209182615275,-0.00024216815498111612,4.227163749990456e-05
-0.04490830120495251,-0.0002646254598477361,4.2144939096197346e-05
-0.044851960592064866,-0.00028706552529699045,4.2007016349911164e-05
-0.044751531557379653,-0.0003094663983343516,4.185788336900333e-05
-0.044606802650536626,-0.00033180598188633066,4.169756527394816e-05
-0.04441771478825345,-0.00035406211124602816,4.1526098250665065e-05
-0.04418435889644709,-0.0003762126296672033,4.134352956543676e-05
-0.04390697230862342,-0.00039823546246847095,4.114991754240284e-05
-0.043585934022284986,-0.00042010868905119803,4.094533150452292e-05
-0.04322175895705787,-0.00044181061229603375,4.072985167918611e-05
-0.04281509139608866,-0.00046331982488432037,4.050356906989102e-05
-0.04236669780987484,-0.00048461527218581125,4.026658529562349e-05
-0.04187745925491702,-0.0005056763114520092,4.001901239971403e-05
-0.041348363518535936,-0.0005264827671453724,3.976097263006468e-05
-0.04078049715669234,-0.0005470149823141795,3.9492598192699795e-05
-0.04017503754636572,-0.000567253865989944,3.921403098062376e-05
-0.03953324505025804,-0.0005871809366390999,3.89254222799665e-05
-0.03885645537465366,-0.0006067783617453278,3.862693245537039e-05
-0.03814607219393029,-0.0006260289936374738,3.831873061652469e-05
-0.03740356011270302,-0.0006449164017141321,3.8000994267686793e-05
-0.03663043803205903,-0.0006634249012503226,3.767390894194568e-05
-0.03582827297657813,-0.0006815395790024818,3.7337667821882475e-05
-0.034998674423028106,-0.0006992463158523834,3.699247134816876e-05
-0.03414328914921149,-0.0007165318067454433,3.663852681751931e-05
-0.033263796594706546,-0.0007333835781814228,3.627604797128759e-05
-0.032361904700655114,-0.0007497900035052632,3.590525457586592e-05
-0.03143934617961052,-0.0007657403162253297,3.552637199593327e-05
-0.030497875161021492,-0.0007812246215604877,3.5139630761486814e-05
-0.029539264160665834,-0.0007962339063909095,3.4745266129498965e-05
-0.028565301326544106,-0.000810760047762712,3.434351764096056e-05
-0.02757778791214499,-0.0008247958200723843,3.3934628674001784e-05
-0.026578535919318327,-0.0008383349010302501,3.351884599372612e-05
-0.025569365844901895,-0.0008513718764713052,3.3096419299350736e-05
-0.024552104465553927,-0.0008639022440489191,3.266760076922068e-05
-0.02352858260216765,-0.0008759224158158495,3.223264460425449e-05
-0.02250063280946808,-0.0008874297196687584,3.179180657038333e-05
-0.021470086931689322,-0.0008984223996040477,3.134534354056513e-05
-0.020438773454837623,-0.0009088996147006795,3.089351303698895e-05
-0.019408514579246246,-0.0009188614367092005,3.0436572774136478e-05
-0.018381122942896844,-0.0009283088460897362,2.9974780203436743e-05
-0.017358397950938763,-0.0009372437263131952,2.950839206033601e-05
-0.016342121705050013,-0.0009456688562271923,2.9037663914700912e-05
-0.01533405456758125,-0.0009535879002953501,2.8562849725570277e-05
-0.014335930430827528,-0.0009610053965449523,2.80842014013602e-05
-0.01334945178421204,-0.0009679267420987122,2.7601968366699282e-05
-0.012376284675615596,-0.000974358176213669,2.711639713712119e-05
-0.011418053646437273,-0.0009803067607941822,2.6627730902869225e-05
-0.010476336690161778,-0.000985780358378332,2.6136209123076096e-05
-0.009552660252187544,-0.0009907876076139192,2.5642067131578033e-05
-0.008648494264893962,-0.0009953378962431895,2.5145535755613756e-05
-0.007765247201581294,-0.0009994413316098082,2.4646840948650506e-05
-0.006904261135255489,-0.0010031087086940175,2.414620343857455e-05
-0.00606680679861218,-0.0010063514756774843,2.3643838392481674e-05
-0.0052540786588451535,-0.0010091816970418486,2.3139955099301842e-05
-0.004467190045803703,-0.0010116120142180107,2.263475667148688e-05
-0.003707168399233652,-0.00101365560382927,2.212843976697506e-05
-0.002974950718584399,-0.0010153261336087246,2.162119433261556e-05
-0.0022713793008055337,-0.001016637716113572,2.1113203370184987e-05
-0.001597197844809074,-0.0010176048603999757,2.06046427260566e-05
