acceleration,velocity,displacement
-0.01297710821376529,0.0,0.0
-0.012683884579975921,-6.4152481984353035e-06,-1.603812049608826e-09
-0.012396376594973458,-1.2685313492172649e-05,-6.378952472260814e-09
-0.012115441834686907,-1.881326809958774e-05,-1.4253597870200912e-08
-0.011841919605198072,-2.4802608459558986e-05,-2.5157567009987594e-08
-0.01157660503966314,-3.065723962077429e-05,-3.902252903007091e-08
-0.01132021640460836,-3.638144498184216e-05,-5.578220018072503e-08
-0.011073352732167582,-4.1979837266036144e-05,-7.537252074269461e-08
-0.010836439599293653,-4.745728534890145e-05,-9.7731801396429e-08
-0.010609664041529273,-5.281881125910718e-05,-1.2280082554843116e-07
-0.010392903492023334,-5.806945314249533e-05,-1.505228916488318e-07
-0.010185656188128089,-6.321409306253319e-05,-1.8084377820008892e-07
-0.009986980895894124,-6.825725233353874e-05,-2.137116145491069e-07
-0.009795452636604031,-7.320286071666327e-05,-2.490766428116574e-07
-0.009609139293060624,-7.805400869907944e-05,-2.868908601655931e-07
-0.009425601959724157,-8.281269401227563e-05,-3.2710753584343187e-07
-0.009241919552708712,-8.747957439038386e-05,-3.6968060294409675e-07
-0.009054735393086995,-9.205373812683279e-05,-4.145639310734009e-07
-0.00886032054810886,-9.653250211213176e-05,-4.6171049113314204e-07
-0.008654646514453624,-0.00010091124387777238,-5.110714276306181e-07
-0.008433459456865527,-0.00010518327037060217,-5.625950561927117e-07
-0.008192350151461993,-0.00010933972277268405,-6.162258044785333e-07
-0.00792681724000615,-0.00011336951462055108,-6.719031138268421e-07
-0.0076323249828754445,-0.00011725930017627148,-7.295603175260477e-07
-0.007304359387543583,-0.00012099347126887623,-7.891235103873347e-07
-0.006938487945497482,-0.0001245541831021365,-8.505104239800878e-07
-0.006530428310023134,-0.00012792141216601667,-9.136293227971261e-07
-0.006076130550219706,-0.0001310730518810774,-9.783779388088996e-07
-0.005571876317756791,-0.00013398505359807152,-1.0446424651786868e-06
-0.005014396013598125,-0.00013663162168091024,-1.1122966339984323e-06
-0.004401001722574629,-0.00013898547111495344,-1.1812009071973983e-06
-0.0037297298612320013,-0.0001410181540109051,-1.251201813478863e-06
-0.0029994838727189803,-0.00014270045744439286,-1.3221314663426875e-06
-0.0022101644901995577,-0.0001440028695351225,-1.3938072980875664e-06
-0.001362773970456184,-0.00014489610415028642,-1.4660320415089187e-06
-0.000459482432918999,-0.0001453516682511302,-1.5385939846092729e-06
0.0004963508187368052,-0.00014534245115467576,-1.6112675144607243e-06
0.0015002022864893817,-0.0001448433128783692,-1.6838139554689856e-06
0.0025464526256359097,-0.0001438316491503379,-1.7559826959761623e-06
0.0036284935749626374,-0.00014228791260018826,-1.8275125864137938e-06
0.004738867917778224,-0.00014019607222700306,-1.8981335826205915e-06
0.005869435637872512,-0.00013754399633809038,-1.9675685997618648e-06
0.0070115576881049696,-0.000134323748006596,-2.0355355358480363e-06
0.008156287916090993,-0.000130531786605547,-2.101749419501072e-06
0.009294564717845765,-0.0001261690734470628,-2.1659246345142245e-06
0.010417396678472858,-0.00012124108309798315,-2.227777173650486e-06
0.01151603963340609,-0.00011575772402001341,-2.287026875429985e-06
0.012582164908240866,-0.00010973317288460167,-2.3433995996561386e-06
0.013608019029666787,-0.00010318562690012476,-2.39662929960232e-06
0.014586573744881133,-9.613697870648778e-05,-2.4464599510039733e-06
0.015511662573947113,-8.861241962678071e-05,-2.4926473005872904e-06
0.01637809803497842,-8.063997947454933e-05,-2.534960400362623e-06
0.017181763558479928,-7.225001407618474e-05,-2.5731828987503066e-06
0.017919675961821667,-6.347465419610934e-05,-2.60711406581838e-06
0.01859001689012375,-5.434723098312298e-05,-2.636569537113188e-06
0.01919213355240729,-4.4901693372490225e-05,-2.6613817682020915e-06
0.019726510290463434,-3.517203241177255e-05,-2.681400199648157e-06
0.020194713734376916,-2.519172640556246e-05,-2.6964911393524907e-06
0.020599315623227282,-1.499321906616141e-05,-2.706537375720422e-06
0.02094379797553912,-4.607440666469809e-06,-2.7114375406535797e-06
0.02123244474337492,5.936620013258701e-06,-2.7111052458168824e-06
0.021470223210747343,1.6612287001789267e-05,-2.7054680190631204e-06
0.021662658360381802,2.7395507394571553e-05,-2.6944660704640302e-06
0.02181570412052674,3.826509801479869e-05,-2.678050919111688e-06
0.02193561551353344,4.9202927923313736e-05,-2.65618391262716e-06
0.02202882457431739,6.0194037945276444e-05,-2.6288346711600124e-06
0.022101821334727198,7.122669942253759e-05,-2.595979486818059e-06
0.02216104047681585,8.229241487542335e-05,-2.5575997082435686e-06
0.022212754715906093,9.338586367360384e-05,-2.513680138606312e-06
0.022262976439601092,0.00010450479646248063,-2.464207473572291e-06
0.022317368177190412,0.0001156498826166785,-2.4091688038025012e-06
0.022381159995947756,0.00012682451465996305,-2.3485502044833408e-06
0.022459069184275645,0.0001380345719550189,-2.2823354328295954e-06
0.02255521621813694,0.00014928814330562203,-2.210504754014435e-06
0.022673032607977654,0.00016059520551215068,-2.1330339168099917e-06
0.02281516148300092,0.0001719672540348953,-2.04989330192323e-06
0.02298335890742624,0.0001834168841325021,-1.961047267381381e-06
0.023178409400590645,0.00019495732620950632,-1.8664537147958788e-06
0.023400070597752298,0.00020660194620909206,-1.766063896691229e-06
0.023647059537140885,0.00021836372874281534,-1.6598224779532522e-06
0.023917088151963792,0.00023025476566509152,-1.5476678543512755e-06
0.024206949735798504,0.0002422857751370321,-1.4295327191507446e-06
0.024512652282111524,0.0002544656756415096,-1.3053448564561091e-06
0.024829589033601423,0.00026680123597043785,-1.1750281285531222e-06
0.025152732321648313,0.0002792968163092503,-1.0385036154832e-06
0.025476835233660046,0.00029195420819807735,-8.956908593563682e-07
0.0257966270124439,0.00030477257375960333,-7.46509163866948e-07
0.02610699123475526,0.0003177484783214031,-5.908789008466964e-07
0.02640311948121151,0.0003308760060003948,-4.2872277976624693e-07
0.0266806365370175,0.00034414694500495204,-2.599670420149102e-07
0.02693569573805824,0.000357551028073721,-8.454254874524195e-08
0.02716504497132371,0.00037107621325106646,9.76142615859549e-08
0.027366065242835056,0.00038470899080460616,2.865605625998731e-07
0.02753678460030473,0.0003984347032653911,4.823464861173724e-07
0.027675870506090976,0.00041223786704199005,6.850146286942176e-07
0.027782603879483028,0.00042610248563838355,8.94599716864311e-07
0.0278568384560585,0.00044001234622226894,1.1111284248294742e-06
0.027898949497715406,0.0004539512932107124,1.3346193346877195e-06
0.027909775140869928,0.00046790347437035873,1.5650830265829873e-06
0.027890551532341372,0.00048185355603866154,1.8025222841852423e-06
0.02784284063505097,0.0004957869040805096,2.046932399215035e-06
0.027768448680521043,0.0005096897264094026,2.2983015568375134e-06
0.027669334154507043,0.0005235491721181596,2.556611281469404e-06
0.02754750640101242,0.0005373533822570395,2.821836920063204e-06
0.027404918291542787,0.0005510914884301782,3.0939481377350083e-06
0.027243357482168967,0.0005647535573736061,3.3729093991859545e-06
0.027064339867786787,0.0005783304817110951,3.6586804089571297e-06
0.0268690071387093,0.0005918138184627191,3.951216484000583e-06
0.0266580300078901,0.000605195577749369,4.2504688330536055e-06
0.026431520336848695,0.0006184679653355536,4.556384718824836e-06
0.02618895758943208,0.0006316230848171238,4.868907481363006e-06
0.025929136162433575,0.0006446526082550902,5.1879764046310595e-06
0.02565013966057044,0.0006575474272108412,5.513526413497543e-06
0.025349346594510398,0.0006702972987746114,5.845487594993906e-06
0.02502347057588239,0.0006828905030672097,6.183784545454361e-06
0.024668637762274355,0.0006953135301517488,6.528335553759101e-06
0.024280504025503778,0.0007075508155986933,6.879051640196711e-06
0.023854412179595656,0.0007195845446499681,7.235835480258877e-06
0.023385585496513157,0.0007313945440689954,7.598580252438618e-06
0.02286934928981366,0.0007429582777655771,7.967168457897261e-06
0.022301368626721538,0.0007542509572447108,8.341470766649833e-06
0.021677887309971125,0.000765245771228884,8.721344948768232e-06
0.02099595187148782,0.0007759142310242488,9.106634949331515e-06
0.02025360577894319,0.0007862266204368566,9.497170162196791e-06
0.019450043288511878,0.0007961525327037204,9.892764950481936e-06
0.018585717337995463,0.0008056614728603472,1.0293218451872952e-05
0.017662399379792536,0.0008147235020397941,1.0698314695597987e-05
0.016683190458385316,0.0008233098994993386,1.110782304598277e-05
0.01565248306911634,0.000831393817881214,1.1521498975327908e-05
0.014575873733098486,0.0008389509070817676,1.1939085156568653e-05
0.013460027619129029,0.0008459598824198246,1.236031285394405e-05
0.012312499452109046,0.0008524030141876341,1.2784903578095916e-05
0.011141519444542856,0.0008582665189117971,1.3212570961370773e-05
0.009955757600227396,0.0008635408381729897,1.3643022800641969e-05
0.00876408193287443,0.0008682207980562651,1.4075963209699284e-05
0.007575324786622811,0.0008723056497361394,1.4511094821647384e-05
0.006398067644096921,0.0008757989978438194,1.4948120983542374e-05
0.0052404504633036305,0.0008787086273706696,1.5386747889845995e-05
0.004110008290278194,0.0008810462420590651,1.582668660720343e-05
0.0030135362984218227,0.0008828271282062401,1.6267654949769754e-05
0.0019569836193428863,0.0008840697581856813,1.6709379171367734e-05
0.000945375018616013,0.000884795347845171,1.7151595447875447e-05
-1.7242129085009234e-05,0.0008850273810675537,1.7594051130103628e-05
-0.0009278287083520142,0.0008847911133581945,1.8036505753710065e-05
-0.0017843652672223892,0.0008841130648643008,1.847873179826569e-05
-0.00258584608309121,0.0008830205120267224,1.8920515192488448e-05
-0.0033322571612798032,0.0008815409862156297,1.9361655567049037e-05
-0.004024537522501112,0.0008797017875446844,1.9801966260489114e-05
-0.004664520922536427,0.000877529522933425,2.0241274088108643e-05
-0.00525485456393718,0.0008750496790618066,2.0679418888607452e-05
-0.005798893282839789,0.0008722862421001123,2.1116252868897932e-05
-0.006300571114554849,0.0008692613760007637,2.155163977342315e-05
-0.006764255295976899,0.0008659951693981308,2.1985453909772874e-05
-0.007194589797571466,0.0008625054581247437,2.241757906665359e-05
-0.0075963368549040455,0.0008588077264616249,2.2847907362800184e-05
-0.00797422607812488,0.0008549150857283676,2.327633806584768e-05
-0.008332820677501187,0.0008508383240394611,2.3702776418289637e-05
-0.008676407918240526,0.0008465860168905256,2.4127132503522133e-05
-0.009008916336680297,0.0008421646858267954,2.4549320179201462e-05
-0.009333857358433839,0.0008375789924030168,2.4969256098758913e-05
-0.009654285689359337,0.0008328319566410685,2.5386858836019934e-05
-0.009972772107665345,0.0008279251921918123,2.5802048123228155e-05
-0.010291383858702078,0.0008228591532002205,2.6214744209576163e-05
-0.010611670776423734,0.000817633389541439,2.662486734526158e-05
-0.01093465856347733,0.0008122468072064638,2.7032337394448556e-05
-0.01126085379300777,0.0008066979291173425,2.7437073578529508e-05
-0.011590267483902397,0.0008009851487981149,2.783899434800837e-05
-0.011922464568155792,0.0007951069657851004,2.8238017376654175e-05
-0.012256644622446095,0.0007890621884874499,2.8634059665222314e-05
-0.01259175527242159,0.000782850088513733,2.902703773447261e-05
-0.012926634673215436,0.0007764704910273238,2.9416867879357872e-05
-0.013260174091648341,0.0007699237888361078,2.9803466449323728e-05
-0.013591486490896698,0.0007632108736904716,3.018675011495537e-05
-0.01392006379137408,0.0007563329861199039,3.056663607990797e-05
-0.014245906081978933,0.0007492914936515656,3.094304219985084e-05
-0.014569610521893466,0.0007420876145005975,3.1315886976888876e-05
-0.014892413765929707,0.0007347221084286418,3.1685089407621185e-05
-0.015216186801327814,0.0007271949582868274,3.205056867430005e-05
-0.015543383831731558,0.0007195050656285625,3.24122436802789e-05
-0.01587694797302951,0.0007116499826773723,3.277003244235538e-05
-0.01622017786250587,0.0007036257012184885,3.3123851363329344e-05
-0.016576561924414507,0.0006954265162717584,3.347361441770191e-05
-0.01694959009241732,0.0006870449782675505,3.3819232291336735e-05
-0.017342554496854082,0.0006784719421202326,3.416061152143368e-05
-0.017758350522499747,0.0006696967158653941,3.449765368593009e-05
-0.018199288778432767,0.000660707306040161,3.483025469140648e-05
-0.018666927841089302,0.0006514907518852804,3.515830420588784e-05
-0.019161937094664013,0.000642033535651342,3.5481685277771995e-05
-0.01968399794681253,0.0006323220518909729,3.5800274174657576e-05
-0.020231749762859658,0.0006223431149635549,3.611394046637121e-05
-0.020802784544623105,0.0006120844813866841,3.642254736545877e-05
-0.021393692257431773,0.0006015353621861704,3.6725952326351985e-05
-0.022000156328627077,0.0005906869000396557,3.7024007891908444e-05
-0.022617095603401385,0.0005795325870566486,3.731656276368252e-05
-0.023238845526444965,0.000568068601774187,3.760346306089023e-05
-0.023859368542306445,0.0005562940482569992,3.7884553723398024e-05
-0.024472482032454727,0.0005442110856133089,3.81596800068656e-05
-0.025072091772868274,0.0005318249421619782,3.842868901380942e-05
-0.02565242037626006,0.0005191438141246961,3.8691431202881086e-05
-0.026208223039202224,0.0005061786532708305,3.8947761819729965e-05
-0.02673498553761401,0.0004929428511266264,3.919754219582933e-05
-0.027229100699234548,0.0004794518295674143,3.944064086600284e-05
-0.027688019912631704,0.00046572254941444776,3.967693446074831e-05
-0.02811037657574776,0.0004517729502923529,3.9906308335675006e-05
-0.0284960792026221,0.0004376213363477604,4.012865690733503e-05
-0.028846372847117097,0.00042328572333532563,4.03438836722558e-05
-0.02916386782082262,0.00040878316316834073,4.055190089388172e-05
-0.029452534185740245,0.0003941290626667,4.075262895034048e-05
-0.02971765987989348,0.0003793365141502916,4.094599534454472e-05
-0.029965770230636644,0.00036441565662265906,4.113193338723796e-05
-0.03020450686326681,0.0003493730873491832,4.131038057323092e-05
-0.030442464178250504,0.0003342113445888039,4.148127668121541e-05
-0.03068898189488579,0.0003189284830705198,4.1644561638130246e-05
-0.03095389351459421,0.0003035177642181498,4.180017319995241e-05
-0.03124723333900624,0.00028796748250474967,4.194804451163314e-05
-0.0315789082402722,0.00027226094710993006,4.208810161903681e-05
-0.03195834367085105,0.00025637663413214924,4.222026101434733e-05
-0.03239411576596556,0.00024028851927294508,4.23444273026986e-05
-0.0328935828839983,0.0002239665946104541,4.246049108116945e-05
-0.033462531215062326,0.00020737756608568895,4.256832712134349e-05
-0.03410485072521399,0.00019048572060061987,4.266779294301507e-05
-0.034822258959422675,0.0001732539431794607,4.2758727858960094e-05
-0.03561408928575606,0.00015564485611816603,4.28409525587845e-05
-0.036477156373547356,0.00013762204470334018,4.291426928398988e-05
-0.0374057067350942,0.00011915132892617979,4.297846262739726e-05
-0.03839145807728018,0.0001002020377230862,4.303330096905958e-05
-0.039423728315927754,8.074824112478421e-05,4.3078538538771544e-05
-0.040489652471195244,6.076989592800346e-05,4.311391807303474e-05
-0.041574482572508856,4.025386216707743e-05,4.3139174012558514e-05
-0.042661961811515825,1.9194751071071262e-05,4.315403616586805e-05
-0.04373475927133246,-2.40442919964081e-06,4.315823374633591e-05
-0.04477494637124813,-2.453185561028596e-05,4.3151499675133424e-05
-0.04576449285633891,-4.716671541718272e-05,4.3133575032376555e-05
-0.046685760487766376,-7.027927875320904e-05,4.310421353383396e-05
-0.04752197599664418,-9.383121287431169e-05,4.306318591092708e-05
-0.04825766938482424,-0.00011777612421967879,4.301028407665358e-05
-0.04887906771533276,-0.00014206030849471803,4.2945324968474984e-05
-0.0493744371897456,-0.0001666236847209876,4.2868153970171055e-05
-0.04973436738893923,-0.0001914008858656588,4.2778647827524395e-05
-0.049951992178720185,-0.00021632247575757366,4.2676716987118585e-05
-0.05002314322540373,-0.00024131625960860462,4.256230730327704e-05
-0.049946434064756545,-0.0002663086539311447,4.2435401074892105e-05
-0.04972327401935486,-0.00029122608095217254,4.2296017391171277e-05
-0.04935781158576935,-0.0003159963523534536,4.214421178284487e-05
-0.04885680696106879,-0.0003405500069901632,4.1980075193008966e-05
-0.048229434085574674,-0.00036482156725182405,4.180373229944847e-05
-0.04748701434380591,-0.0003887506793591692,4.161533923779572e-05
-0.04664268686031661,-0.00041228310466019983,4.1415080791790876e-05
-0.0457110243097545,-0.0004353715324527176,4.120316713251265e-05
-0.0447076082835965,-0.00045797619060105536,4.0979830201749207e-05
-0.043648582924348575,-0.0004800652384030416,4.074531984449818e-05
-0.04255020727682173,-0.0005016149359533342,4.049989980090909e-05
-0.04142842495760569,-0.000522609594011941,4.024384366841777e-05
-0.04029846594523895,-0.0005430413167376522,3.9977430940730366e-05
-0.039174491170691994,-0.000562909556016635,3.9700943222541795e-05
-0.03806928659400408,-0.000582220500457809,3.9414660708423186e-05
-0.036994009918782024,-0.0006009863245860056,3.9118859002162235e-05
-0.035957990858988244,-0.0006192243247804482,3.881380633982062e-05
-0.03496858532291074,-0.0006369559688259229,3.849976126641903e-05
-0.0340310842657006,-0.0006542058862230758,3.817697080265678e-05
-0.033148678198804786,-0.0006710008268392021,3.784566912439121e-05
-0.0323224779032635,-0.0006873686158647192,3.750607676371523e-05
-0.031551590608239075,-0.0007033371329925949,3.7158400326500904e-05
-0.030833248658982,-0.0007189333428094002,3.6802832707550406e-05
-0.030162984838314293,-0.0007341824011837243,3.643955377155213e-05
-0.029534845981446962,-0.0007491068588886645,3.606873145653403e-05
-0.02894163529455357,-0.0007637259792076646,3.569052324700995e-05
-0.02837517417165545,-0.0007780551815742169,3.530507795681448e-05
-0.027826575882959823,-0.0007921056190878707,3.491253775664896e-05
-0.0272865252210725,-0.0008058838943638787,3.451304037828602e-05
-0.026745558867539085,-0.0008193919153860316,3.4106721425848546e-05
-0.026194340696208514,-0.0008326268902769684,3.36937167244328e-05
-0.025623925620007953,-0.0008455814568560225,3.327416463764955e-05
-0.025026006118064947,-0.0008582439397905407,3.2848208288487906e-05
-0.02439313698112685,-0.0008705987255653387,3.241599762214893e-05
-0.02371893462526156,-0.0008826267434669358,3.197769125489086e-05
-0.022998246596652713,-0.0008943060387724143,3.153345805933102e-05
-0.022227285111496634,-0.0009056124216994516,3.1083478444213054e-05
-0.021403717112640778,-0.0009165201722554859,3.0627945295724316e-05
-0.02052670395085387,-0.0009270027775213596,3.0167064558280106e-05
-0.019596887128082746,-0.0009370336752910938,2.9701055445076992e-05
-0.01861632183575516,-0.0009465869775320533,2.9230150281871206e-05
-0.01758836571831954,-0.0009556381494205719,2.875459400013305e-05
-0.016517535019827917,-0.0009641646246051087,2.8274643306626628e-05
-0.015409342947494886,-0.0009721463440969394,2.7790565564451117e-05
-0.014270134793788788,-0.0009795662135322603,2.7302637425043816e-05
-0.013106930956059169,-0.0009864104799697222,2.681114325166832e-05
-0.0119272835566653,-0.0009926690335979034,2.6316373373276416e-05
-0.010739146651253686,-0.0009983356411498831,2.581862220458947e-05
-0.009550755615673603,-0.001003408116716615,2.5318186265122843e-05
-0.00837050909179645,-0.0010078884328934825,2.481536212772032e-05
-0.007206846698933027,-0.001011782771841165,2.4310444326536657e-05
-0.0060681169073252975,-0.0010151015127427294,2.3803723255390683e-05
-0.0049624318277105995,-0.0010178591499264884,2.329548308972338e-05
-0.0038975093260810857,-0.0010200741352149364,2.2785999768438023e-05
-0.0028805069981785525,-0.0010217686392960013,2.227553907481029e-05
-0.0019178553028985999,-0.0010229682298712706,2.1764354857518472e-05
-0.0010150975697464863,-0.001023701468089432,2.1252687433028296e-05
-0.0001767437635807819,-0.0010239994284227637,2.074076220890025e-05
0.000593855273582447,-0.0010238951505452632,2.0228788564158243e-05
