acceleration,velocity,displacement
-0.012977108213709862,0.0,0.0
-0.01268388458001211,-6.415248198430493e-06,-1.6038120496076233e-09
-0.012396376595081953,-1.268531349220401e-05,-6.378952472266249e-09
-0.012115441834850003,-1.8813268099687e-05,-1.4253597870239002e-08
-0.01184191960539324,-2.480260845974781e-05,-2.5157567010097705e-08
-0.011576605039866239,-3.065723962106268e-05,-3.902252903030033e-08
-0.011320216404796858,-3.638144498222845e-05,-5.5782200181123114e-08
-0.01107335273232217,-4.1979837266508206e-05,-7.537252074330728e-08
-0.010836439599401457,-4.745728534943911e-05,-9.77318013972941e-08
-0.01060966404158708,-5.281881125968624e-05,-1.2280082554957545e-07
-0.010392903492032757,-5.80694531430912e-05,-1.5052289165026982e-07
-0.01018565618809074,-6.321409306312208e-05,-1.8084377820182314e-07
-0.00998698089581323,-6.825725233409807e-05,-2.1371161455112819e-07
-0.00979545263648925,-7.320286071717369e-05,-2.4907664281394615e-07
-0.009609139292923225,-7.805400869952681e-05,-2.8689086016812126e-07
-0.009425601959573801,-8.281269401265106e-05,-3.271075358461657e-07
-0.009241919552553447,-8.747957439068288e-05,-3.696806029469992e-07
-0.009054735392931647,-9.205373812705416e-05,-4.145639310764335e-07
-0.008860320547961474,-9.653250211227743e-05,-4.617104911362664e-07
-0.008654646514327072,-0.00010091124387784957,-5.110714276337981e-07
-0.008433459456777507,-0.00010518327037062571,-5.625950561959169e-07
-0.008192350151430203,-0.00010933972277267764,-6.162258044817427e-07
-0.007926817240053112,-0.00011336951462054846,-6.719031138300492e-07
-0.007632324983026901,-0.00011725930017631846,-7.29560317529266e-07
-0.007304359387822054,-0.0001209934712690307,-7.891235103906033e-07
-0.006938487945925485,-0.0001245541831024676,-8.505104239834778e-07
-0.006530428310623184,-0.00012792141216660477,-9.13629322800746e-07
-0.006076130551009488,-0.00013107305188201295,-9.783779388129003e-07
-0.005571876318747552,-0.0001339850535994522,-1.0446424651832665e-06
-0.005014396014796278,-0.00013663162168283814,-1.1122966340038392e-06
-0.00440100172398176,-0.00013898547111753265,-1.1812009072039319e-06
-0.0037297298628416447,-0.0001410181540142385,-1.2512018134868746e-06
-0.002999483874524672,-0.0001427004574485801,-1.3221314663525794e-06
-0.002210164492194834,-0.00014400286954025998,-1.3938072980997895e-06
-0.001362773972634581,-0.00014489610415646732,-1.4660320415239713e-06
-0.0004594824352692243,-0.00014535166825844326,-1.538593984627699e-06
0.0004963508162324804,-0.00014534245116320244,-1.6112675144831104e-06
0.0015002022838583417,-0.00014484331288817974,-1.683813955495956e-06
0.0025464526229119753,-0.00014383164916148715,-1.7559826960083726e-06
0.0036284935721844548,-0.00014228791261271305,-1.8275125864519228e-06
0.0047388679149812174,-0.00014019607224092164,-1.8981335826653314e-06
0.0058694356350921005,-0.00013754399635340333,-1.967568599813913e-06
0.007011557685373351,-0.00013432374802328697,-2.0355355359080855e-06
0.008156287913438752,-0.00013053178662358395,-2.1017494195698032e-06
0.009294564715295432,-0.0001261690734664004,-2.1659246345922993e-06
0.010417396676035693,-0.00012124108311856761,-2.2277771737385413e-06
0.011516039631088522,-0.00011575772404178655,-2.28702687552863e-06
0.012582164906047709,-0.0001097331729075025,-2.343399599765952e-06
0.013608019027599633,-0.00010318562692409067,-2.3966292997238504e-06
0.014586573742939958,-9.613697873145577e-05,-2.446459951137737e-06
0.015511662572133506,-8.861241965268741e-05,-2.492647300733773e-06
0.016378098033303624,-8.063997950132812e-05,-2.534960400522277e-06
0.0171817635569584,-7.225001410376261e-05,-2.5731828989235495e-06
0.01791967596046625,-6.347465422440646e-05,-2.6071140660055917e-06
0.018590016888940863,-5.434723101205468e-05,-2.636569537314707e-06
0.019192133551398503,-4.490169340196984e-05,-2.661381768418213e-06
0.01972651028962872,-3.5172032441713034e-05,-2.681400199879134e-06
0.02019471373371625,-2.519172643587679e-05,-2.6964911395985314e-06
0.0205993156227358,-1.4993219096763778e-05,-2.7065373759816917e-06
0.02094379797521036,-4.607440697277238e-06,-2.711437540930202e-06
0.02123244474320081,5.9366199823255545e-06,-2.71110524610894e-06
0.021470223210723033,1.6612286970806516e-05,-2.705468019370657e-06
0.02166265836050405,2.7395507363613285e-05,-2.6944660707870517e-06
0.021815704120784263,3.8265097983935365e-05,-2.6780509194501647e-06
0.02193561551390691,4.920292789260816e-05,-2.6561839129810286e-06
0.022028824574777818,6.019403791477934e-05,-2.628834671529182e-06
0.022101821335243993,7.12266993922848e-05,-2.595979487202416e-06
0.022161040477363253,8.22924148454366e-05,-2.5575997086429858e-06
0.022212754716464785,9.338586364389361e-05,-2.513680139020653e-06
0.022262976440159808,0.00010450479643304976,-2.4642074740014174e-06
0.02231736817775237,0.0001156498825875278,-2.4091688042462728e-06
0.022381159996527452,0.00012682451463109776,-2.3485502049416165e-06
0.02245906918489239,0.00013803457192645272,-2.282335433302229e-06
0.022555216218808457,0.00014928814327737794,-2.210504754501271e-06
0.022673032608721656,0.00016059520548426047,-2.1330339173108614e-06
0.022815161483831902,0.00017196725400739886,-2.0498933024379466e-06
0.022983358908358703,0.0001834168841054465,-1.9610472679097354e-06
0.023178409401637474,0.00019495732618294556,-1.8664537153376375e-06
0.023400070598919947,0.00020660194618308492,-1.76606389724613e-06
0.02364705953843097,0.00021836372871742265,-1.659822478521003e-06
0.0239170881533715,0.00023025476564037328,-1.547667854931554e-06
0.024206949737317403,0.00024228577511304551,-1.4295327197431992e-06
0.024512652283727135,0.00025446567561830663,-1.3053448570603613e-06
0.024829589035292827,0.00026680123594806165,-1.1750281291687692e-06
0.025152732323386537,0.0002792968162877315,-1.038503616109821e-06
0.025476835235417727,0.0002919542081774325,-8.956908599935301e-07
0.025796627014192067,0.00030477257373983497,-7.465091645142132e-07
0.026106991236469763,0.00031774847830250044,-5.908789015036294e-07
0.02640311948286659,0.00033087600598233455,-4.2872278043242066e-07
0.026680636538587394,0.00034414694498769805,-2.599670426899125e-07
0.02693569573951718,0.0003575510280572242,-8.454254942868194e-08
0.027165044972645935,0.00037107621323526497,9.761426089444036e-08
0.027366065243996412,0.00038470899078942554,2.86560561900613e-07
0.027536784601279445,0.0003984347032507445,4.823464854106555e-07
0.027675870506858116,0.00041223786702777887,6.850146279802864e-07
0.02778260388002487,0.00042610248562449963,8.94599716143356e-07
0.02785683845636537,0.0004400123462085972,1.1111284241016302e-06
0.027898949497788907,0.00045395129319713575,1.3346193339530635e-06
0.027909775140721307,0.0004679034743567633,1.5650830258415382e-06
0.0278905515319851,0.0004818535560249399,1.8025222834369641e-06
0.027842840634511184,0.000495786904066564,2.04693239845984e-06
0.02776844867982992,0.0005096897263951493,2.2983015560752684e-06
0.027669334153701597,0.0005235491721035323,2.556611280699939e-06
0.027547506400129654,0.0005373533822419901,2.8218369192863196e-06
0.02740491829062455,0.0005510914884146787,3.093948136950487e-06
0.027243357481258706,0.0005647535573576495,3.3729093983935687e-06
0.027064339866924733,0.0005783304816946954,3.658680408156655e-06
0.02686900713793247,0.0005918138184459096,3.951216483191806e-06
0.026658030007233897,0.0006051955777322013,4.250468832236333e-06
0.026431520336342086,0.0006184679653180952,4.556384717998907e-06
0.026188957589092763,0.0006316230847994539,4.8689074805282946e-06
0.02592913616226959,0.0006446526082372945,5.187976403787482e-06
0.02565013966058661,0.0006575474271930086,5.5135264126450574e-06
0.025349346594711535,0.0006702972987568331,5.845487594132518e-06
0.025023470576278146,0.0006828905030495805,6.183784544584121e-06
0.02466863776287598,0.000695313530134369,6.528335552880109e-06
0.024280504026316093,0.000707550815581667,6.879051639309117e-06
0.023854412180615424,0.0007195845446333999,7.235835479362884e-06
0.02338558549772426,0.0007313945440529849,7.59858025153448e-06
0.022869349291191932,0.0007429582777502139,7.96716845698528e-06
0.022301368628236375,0.000754250957230071,8.34147076573035e-06
0.021677887311583873,0.000765245771215026,8.721344947841624e-06
0.020995951873153385,0.0007759142310112103,9.106634948398183e-06
0.020253605780613256,0.000786226620424652,9.497170161257149e-06
0.01945004329014457,0.0007961525326923415,9.892764949536398e-06
0.018585717339552117,0.0008056614728497657,1.0293218450921926e-05
0.01766239938124094,0.000814723502029964,1.0698314694641858e-05
0.016683190459696472,0.0008233098994901983,1.1107823045021899e-05
0.01565248307026447,0.0008313938178726886,1.152149897436262e-05
0.014575873734065863,0.0008389509070737711,1.1939085155599235e-05
0.0134600276199092,0.0008459598824122649,1.2360312852970745e-05
0.012312499452705213,0.0008524030141804185,1.2784903577118916e-05
0.01114151944496467,0.000858266518904836,1.3212570960390229e-05
0.009955757600492554,0.0008635408381662003,1.3643022799657988e-05
0.008764081933003853,0.0008682207980495744,1.4075963208711931e-05
0.0075753247866406455,0.0008723056497294856,1.4511094820656696e-05
0.0063980676440321465,0.0008757989978371537,1.4948120982548356e-05
0.005240450463182007,0.0008787086273639573,1.5386747888848634e-05
0.004110008290120659,0.000881046242052283,1.5826686606202694e-05
0.00301353629823966,0.0008828271281993731,1.6267654948765607e-05
0.0019569836191345026,0.0008840697581787167,1.670937917036013e-05
0.0009453750183701614,0.0008847953478380928,1.7151595446864334e-05
-1.7242129386012858e-05,0.0008850273810603388,1.759405112908894e-05
-0.0009278287087226333,0.0008847911133508116,1.803650575269173e-05
-0.0017843652676754766,0.0008841130648567121,1.847873179724361e-05
-0.00258584608363318,0.000883020512018885,1.8920515191462508e-05
-0.00333225716191546,0.0008815409862074978,1.9361655566019103e-05
-0.004024537523228822,0.0008797017875362118,1.980196625945503e-05
-0.004664520923351339,0.0008775295229245668,2.0241274087070224e-05
-0.005254854564836052,0.0008750496790525199,2.0679418887564497e-05
-0.005798893283824211,0.0008722862420903548,2.1116252867850217e-05
-0.006300571115624801,0.0008692613759904926,2.1551639772370427e-05
-0.006764255297133975,0.000865995169387303,2.1985453908714875e-05
-0.007194589798815651,0.0008625054581133156,2.241757906559003e-05
-0.0075963368562288885,0.0008588077264495544,2.2847907361730747e-05
-0.007974226079520714,0.000854915085715617,2.327633806477204e-05
-0.008332820678955122,0.0008508383240259981,2.3702776417207444e-05
-0.008676407919742902,0.0008465860168763237,2.4127132502433025e-05
-0.009008916338223061,0.0008421646858118322,2.4549320178105062e-05
-0.00933385736000894,0.0008375789923872742,2.496925609765484e-05
-0.009654285690957113,0.0008328319566245326,2.538685883490779e-05
-0.009972772109271309,0.0008279251921744755,2.5802048122107544e-05
-0.010291383860303354,0.0008228591531820818,2.6214744208446682e-05
-0.010611670778007447,0.0008176333895225041,2.6624867344122828e-05
-0.010934658565032214,0.0008122468071867442,2.7032337393300142e-05
-0.011260853794516117,0.0008066979290968571,2.743707357737104e-05
-0.011590267485344898,0.0008009851487768918,2.783899434683948e-05
-0.01192246456950991,0.000795106965763178,2.8238017375474496e-05
-0.012256644623682861,0.0007890621884648799,2.863405966403151e-05
-0.012591755273512029,0.0007828500884905812,2.9027037733270378e-05
-0.012926634674140234,0.0007764704910036681,2.941686787814394e-05
-0.013260174092394621,0.0007699237888120344,2.980346644809787e-05
-0.0135914864914548,0.0007632108736660721,3.0186750113717396e-05
-0.013920063791745613,0.0007563329860952719,3.0566636078657734e-05
-0.014245906082175163,0.0007492914936267917,3.094304219858825e-05
-0.014569610521930489,0.0007420876144757653,3.131588697561389e-05
-0.014892413765828448,0.0007347221084038256,3.168508940633378e-05
-0.015216186801109196,0.0007271949582620911,3.2050568673000264e-05
-0.015543383831419727,0.0007195050656039588,3.2412243678966776e-05
-0.015876947972650227,0.0007116499826529414,3.2770032441031e-05
-0.016220177862088105,0.0007036257011942568,3.31238513619928e-05
-0.01657656192398402,0.0006954265162477388,3.34736144163533e-05
-0.016949590091995047,0.000687044978243744,3.381923228997617e-05
-0.01734255449645291,0.000678471942096632,3.4160611520061265e-05
-0.01775835052212612,0.0006696967158419873,3.449765368454592e-05
-0.01819928877808348,0.0006607073060169348,3.483025469001065e-05
-0.018666927840756315,0.0006514907518622249,3.515830420448044e-05
-0.019161937094332858,0.0006420335356284527,3.548168527635311e-05
-0.019683997946467118,0.0006323220518682527,3.580027417322728e-05
-0.020231749762483906,0.000622343114941015,3.61139404649296e-05
-0.020802784544200925,0.0006120844813643437,3.642254736400594e-05
-0.02139369225694869,0.0006015353621640563,3.672595232488804e-05
-0.02200015632807022,0.0005906869000178016,3.702400789043351e-05
-0.02261709560276432,0.000579532587035093,3.731656276219673e-05
-0.023238845525724475,0.0005680686017529707,3.760346305939375e-05
-0.023859368541499313,0.0005562940482361648,3.788455372189104e-05
-0.024472482031559335,0.0005442110855929001,3.81596800053483e-05
-0.02507209177188623,0.0005318249421420387,3.8428689012282035e-05
-0.025652420375192966,0.0005191438141052689,3.8691431201343863e-05
-0.026208223038050062,0.0005061786532519581,3.894776181818317e-05
-0.02673498553637517,0.0004929428511083518,3.919754219427325e-05
-0.02722910069789774,0.00047945182954978356,3.944064086443778e-05
-0.027688019911180813,0.00046572254939751393,3.96769344591746e-05
-0.028110376574163463,0.00045177295027617787,3.9906308334093026e-05
-0.028496079200886665,0.00043762133633241533,4.012865690574517e-05
-0.028846372845222467,0.00042328572332088807,4.03438836706585e-05
-0.029163867818775217,0.00040878316315488865,4.055190089227744e-05
-0.029452534183556152,0.0003941290626543058,4.075262894872974e-05
-0.029717659877593616,0.00037933651413901833,4.094599534292807e-05
-0.02996577022824514,0.00036441565661255864,4.1131933385615966e-05
-0.0302045068608062,0.0003493730873402958,4.131038057160418e-05
-0.03044246417574332,0.0003342113445811584,4.148127667958454e-05
-0.030688981892351353,0.00031892848306413476,4.1644561636495865e-05
-0.030953893512050235,0.0003035177642130344,4.180017319831516e-05
-0.031247233336473657,0.0002879674825009034,4.1948044509993644e-05
-0.03157890823776552,0.00027226094710734364,4.2088101617395706e-05
-0.03195834366837833,0.00025637663413080765,4.222026101270524e-05
-0.032394115763533286,0.00024028851927282975,4.234442730105615e-05
-0.032893582881616146,0.00022396659461154238,4.2460491079527246e-05
-0.03346253121274319,0.00020737756608795255,4.256832711970212e-05
-0.034104850722964354,0.00019048572060402567,4.2667792941375114e-05
-0.034822258957244175,0.00017325394318397353,4.2758727857322116e-05
-0.03561408928365195,0.0001556448561237495,4.284095255714905e-05
-0.036477156371519284,0.0001376220447099567,4.2914269282357476e-05
-0.03740570673314379,0.00011915132893379092,4.297846262576841e-05
-0.038391458075410695,0.00010020203773165229,4.303330096743477e-05
-0.039423728314144035,8.07482411342636e-05,4.307853853715125e-05
-0.040489652469494083,6.076989593835408e-05,4.31139180714194e-05
-0.04157448257088222,4.025386217826e-05,4.3139174010948556e-05
-0.042661961809949224,1.919475108305214e-05,4.3154036164263885e-05
-0.04373475926980657,-2.404429186886808e-06,4.315823374473793e-05
-0.04477494636974041,-2.4531855596773555e-05,4.315149967354202e-05
-0.04576449285483002,-4.716671540291616e-05,4.3133575030792095e-05
-0.04668576048623696,-7.027927873818291e-05,4.3104213532256824e-05
-0.0475219759950765,-9.383121285851127e-05,4.306318590935765e-05
-0.04825766938320056,-0.00011777612420308054,4.301028407509225e-05
-0.04887906771363208,-0.0001420603084772887,4.2945324966922156e-05
-0.04937443718795179,-0.00016662368470268465,4.2868153968627165e-05
-0.04973436738704417,-0.00019140088584643363,4.277864782598988e-05
-0.04995199217672704,-0.00021632247573737643,4.267671698559393e-05
-0.05002314322332531,-0.00024131625958738953,4.256230730176274e-05
-0.04994643406261532,-0.0002663086539088747,4.2435401073388676e-05
-0.04972327401718134,-0.00029122608092882387,4.229601738967925e-05
-0.049357811583589234,-0.0003159963523290165,4.214421178136479e-05
-0.04885680695890294,-0.00034055000696463954,4.1980075191541376e-05
-0.04822943408344073,-0.0003648215672252255,4.180373229799391e-05
-0.047487014341723144,-0.00038875067933151643,4.1615339236354726e-05
-0.046642686858304305,-0.0004122831046315233,4.1415080790363964e-05
-0.045711024307835135,-0.00043537153242305816,4.120316713110032e-05
-0.044707608281802244,-0.0004579761905704675,4.097983020035194e-05
-0.043648582922716415,-0.0004800652383715972,4.0745319843116426e-05
-0.042550207275380635,-0.0005016149359211215,4.0499899799543244e-05
-0.04142842495637977,-0.0005226095939790616,4.02438436670682e-05
-0.0402984659442411,-0.0005430413167042169,3.997743093939738e-05
-0.03917449116992865,-0.0005629095559827593,3.9700943221225635e-05
-0.038069286593478475,-0.0005822205004236111,3.941466070712404e-05
-0.03699400991849416,-0.0006009863245516043,3.9118859000880234e-05
-0.035957990858933316,-0.0006192243247459612,3.8813806338555844e-05
-0.034968585323079115,-0.0006369559687914643,3.849976126517149e-05
-0.03403108426608102,-0.0006542058861887544,3.817697080142644e-05
-0.03314867819937797,-0.0006710008268051191,3.784566912317797e-05
-0.03232247790400372,-0.0006873686158309645,3.7506076762518945e-05
-0.03155159060911899,-0.0007033371329592452,3.7158400325321394e-05
-0.03083324865997427,-0.0007189333427765186,3.680283270638745e-05
-0.030162984839389968,-0.0007341824011513596,3.643955377040548e-05
-0.029534845982577083,-0.0007491068588568514,3.606873145540343e-05
-0.028941635295707573,-0.0007637259791764226,3.569052324589511e-05
-0.028375174172801155,-0.0007780551815435498,3.530507795571512e-05
-0.027826575884071482,-0.0007921056190577679,3.491253775556479e-05
-0.027286525222130802,-0.0008058838943343185,3.451304037721677e-05
-0.026745558868526326,-0.0008193919153569827,3.410672142479394e-05
-0.026194340697103767,-0.0008326268902483902,3.36937167233926e-05
-0.02562392562079028,-0.0008455814568278637,3.3274164636623535e-05
-0.02502600611871824,-0.0008582439397627409,3.2848208287475884e-05
-0.024393136981639828,-0.0008705987255378304,3.241599762115074e-05
-0.023718934625626156,-0.0008826267434396469,3.197769125390637e-05
-0.02299824659686569,-0.0008943060387452699,3.153345805836014e-05
-0.022227285111561187,-0.0009056124216723766,3.108347844325573e-05
-0.02140371711256171,-0.0009165201722284073,3.062794529478053e-05
-0.0205267039506376,-0.0009270027774942072,3.0167064557349878e-05
-0.019596887127735687,-0.0009370336752638005,2.9701055444160377e-05
-0.01861632183528534,-0.0009465869775045557,2.923015028096829e-05
-0.017588365717733374,-0.0009556381493928104,2.8754593999243946e-05
-0.01651753501913182,-0.0009641646245770267,2.8274643305751487e-05
-0.015409342946698504,-0.0009721463440684843,2.7790565563590108e-05
-0.014270134792908205,-0.000979566213503386,2.730263742419714e-05
-0.013106930955113687,-0.0009864104799403915,2.6811143250836196e-05
-0.011927283555667788,-0.000992669033568087,2.6316373372459076e-05
-0.010739146650213801,-0.0009983356411195573,2.5818622203787166e-05
-0.009550755614605829,-0.0010034081166857623,2.5318186264335838e-05
-0.008370509090718497,-0.0010078884328620934,2.4815362126948876e-05
-0.007206846697867436,-0.00101178277180924,2.4310444325781042e-05
-0.006068116906293004,-0.00101510151271028,2.3803723254651162e-05
-0.004962431826737373,-0.0010178591498935378,2.329548308900021e-05
-0.0038975093251943068,-0.0010200741351815206,2.2785999767731445e-05
-0.0028805069974088254,-0.0010217686392621713,2.2275539074120523e-05
-0.0019178553022781404,-0.0010229682298370931,2.1764354856845707e-05
-0.001015097569307513,-0.0010237014680549896,2.1252687432372686e-05
-0.0001767437633474674,-0.0010239994283881533,2.07407622082619e-05
0.0005938552736036342,-0.0010238951505105894,2.0228788563537216e-05
