acceleration,velocity,displacement
-0.014667961330059811,0.0,0.0
-0.014403165996291259,-7.267781831587768e-06,-1.816945457896942e-09
-0.014130078928751,-1.4401093062848333e-05,-7.234164181505967e-09
-0.01384907496847106,-2.139588153715385e-05,-1.6183407831506513e-08
-0.013560395229267054,-2.824824908658838e-05,-2.859444048744207e-08
-0.013264147339113398,-3.495438472868349e-05,-4.4395098941260035e-08
-0.012960307357670951,-4.151049840287958e-05,-6.35113197241508e-08
-0.012648723232155682,-4.791275605033624e-05,-8.586713333745477e-08
-0.012329119655562236,-5.415721677226572e-05,-1.1138462654310525e-07
-0.012001104277146546,-6.023977275544292e-05,-1.399838739250324e-07
-0.011664175326646502,-6.615609265639118e-05,-1.7158284027799093e-07
-0.011317730780149778,-7.190156918309026e-05,-2.0609725573786127e-07
-0.010961079190233557,-7.747127167568609e-05,-2.4344046595255537e-07
-0.010593452245492891,-8.28599045346177e-05,-2.8352326000513133e-07
-0.010214019046894679,-8.806177235771459e-05,-3.262536792282144e-07
-0.009821902005460823,-9.307075262080346e-05,-3.715368104728439e-07
-0.009416194173424847,-9.788027666552489e-05,-4.1927456779442597e-07
-0.008995977715533418,-0.00010248331963776445,-4.693654668702483e-07
-0.008560343119819513,-0.00010687239984660268,-5.2170439674134e-07
-0.008108408667205372,-0.0001110395877933589,-5.761823936513304e-07
-0.007639339664314411,-0.00011497652487623884,-6.326864218187298e-07
-0.0071523670102192904,-0.00011867445154487228,-6.910991659240076e-07
-0.006646804788905509,-0.00012212424449465348,-7.51298839933889e-07
-0.006122066707636388,-0.00012531646236878897,-8.131590166497496e-07
-0.005577681302601365,-0.0001282413993713484,-8.76548482084784e-07
-0.0050133058922473914,-0.0001308891461700606,-9.413311184701362e-07
-0.004428739278056828,-0.00013324965746263666,-1.0073658193783106e-06
-0.0038239331877192736,-0.0001353128255790807,-1.0745064401387399e-06
-0.0031990024330941706,-0.00013706855948428405,-1.142601786404581e-06
-0.002554233702994013,-0.0001385068685183061,-1.2114956434052285e-06
-0.0018900928243724092,-0.0001396179501501477,-1.281026848072342e-06
-0.0012072302237579064,-0.00014039228091218027,-1.351029405837924e-06
-0.0005064842277359264,-0.00014082070952505372,-1.4213326534472326e-06
0.0002111182235361424,-0.00014089455102610368,-1.491761468585022e-06
0.0009443638824529896,-0.0001406056804996064,-1.5621365264664496e-06
0.0016918588620463428,-0.00013994662481348156,-1.6322746027947215e-06
0.0024520378161718578,-0.000138910650643927,-1.7019889216590737e-06
0.003223176553717466,-0.00013749184705145467,-1.771089546082919e-06
0.004003407835734325,-0.00013568520095409172,-1.8393838080843057e-06
0.004790740015761677,-0.0001334866639912177,-1.906676774320633e-06
0.005583078132983472,-0.0001308932094540314,-1.972771742681945e-06
0.0063782470028232435,-0.00012790287817007973,-2.037470764587973e-06
0.007174015772311254,-0.00012451481247629612,-2.100575187249567e-06
0.007968123363586668,-0.00012072927769232164,-2.1618862097917215e-06
0.008758304253447256,-0.00011654767078806316,-2.221205446911818e-06
0.00954231412216029,-0.00011197251619416127,-2.278335493657374e-06
0.010317955010798949,-0.00010700744891092146,-2.3330804849336447e-06
0.011083099708057747,-0.00010165718523120728,-2.385246643469177e-06
0.011835715112695717,-9.59274815260189e-05,-2.4346428101584837e-06
0.012573884279582602,-8.982508167794933e-05,-2.4810809509594757e-06
0.013295826783949305,-8.335765391206635e-05,-2.5243766348569797e-06
0.013999916986693402,-7.653371796940567e-05,-2.564349477827348e-06
0.014684699802007579,-6.936256377223043e-05,-2.600823548262757e-06
0.015348903657151514,-6.185416290744065e-05,-2.6336277299326745e-06
0.0159914504485149,-5.4019074381024044e-05,-2.6625960392547908e-06
0.016611462393569105,-4.5868346170503045e-05,-2.6875678943926727e-06
0.017208265751091426,-3.741341413433791e-05,-2.708388334468883e-06
0.01778139145598804,-2.866599983256804e-05,-2.7249081879606096e-06
0.018330572792991936,-1.9638008770323047e-05,-2.736984190111332e-06
0.018855740286915543,-1.0341430500346176e-05,-2.7444790499289993e-06
0.01935701400036088,-7.882419285270688e-07,-2.7472614680362178e-06
0.01983469343084255,9.009684929273787e-06,-2.745206107286031e-06
0.0202892452269257,1.904066959371585e-05,-2.7381935186552836e-06
0.020721288992927075,2.9293303148679044e-05,-2.7261100254696847e-06
0.021131581479430322,3.975652076676839e-05,-2.708847569490823e-06
0.02152099943862983,5.0419665996283424e-05,-2.6863035228000598e-06
0.021890521387740638,6.127254620287604e-05,-2.65838046975027e-06
0.022241208514366555,7.230547867840283e-05,-2.6249859635299503e-06
0.02257418498372984,8.350932705292693e-05,-2.5860322620971177e-06
0.022890617930314786,9.487552778143809e-05,-2.5414360483885262e-06
0.023191697387174297,0.00010639610661081037,-2.4911181397904643e-06
0.02347861632136767,0.00011806368503794585,-2.435003191878275e-06
0.023752550846875317,0.0001298714768300066,-2.373019401411287e-06
0.024014640632520734,0.0001418132746998556,-2.3050982135288212e-06
0.024265969566219327,0.00015388342724954063,-2.2311740380414724e-06
0.024507546902148267,0.00016607680636663254,-2.151183979637429e-06
0.024740289344053132,0.00017838876542818289,-2.065067586688725e-06
0.024965004686004783,0.00019081508893569737,-1.972766623097755e-06
0.02518237766204393,0.00020335193452270954,-1.8742248672331531e-06
0.025392958551926855,0.00021599576857620224,-1.7693879414584252e-06
0.025597154901713853,0.0002287432969396124,-1.6582031750794714e-06
0.025795226498416805,0.0002415913922896451,-1.540619502772157e-06
0.025987283516445435,0.00025453701979336063,-1.4165873997514057e-06
0.026173287542792387,0.00026757716255817007,-1.286058854163523e-06
0.026353055022515115,0.00028070874819949694,-1.1489873764741062e-06
0.026526262593831555,0.0002939285776035836,-1.005328045023336e-06
0.02669245381024886,0.0003072332567046037,-8.550375864462892e-07
0.026851046837156858,0.00032061913186645516,-6.980744893035244e-07
0.02700134281987114,0.0003340822292807122,-5.343991490167326e-07
0.027142534720035024,0.0003476181986656887,-3.6397404203013234e-07
0.027273716493580357,0.00036122226146909254,-1.8676392699643703e-07
0.02739389253850853,0.00037488916372711476,-2.7360706973852224e-09
0.027501987380991657,0.0003886131337069898,1.8813950366114094e-07
0.027596855592177245,0.00040238784445028203,3.858897482004589e-07
0.027677291934366886,0.00041620638133191805,5.905383046460089e-07
0.027742041736584944,0.000430061214749656,8.021052036664024e-07
0.027789811512443224,0.0004439441780619131,1.0206065518692946e-06
0.027819279845652817,0.0004578464509014371,1.2460542091101321e-06
0.027829108543208955,0.00047175854799865255,1.4784554588351545e-06
0.027817953984270394,0.0004856703136305224,1.7178126742424483e-06
0.027784478516737918,0.0004995709217557744,1.9641229830890223e-06
0.02772736172387794,0.0005134488818159283,2.217377933981948e-06
0.02764531141548901,0.0005272920501007701,2.4775631669611226e-06
0.027537074273963593,0.0005410876465231332,2.7446580911170984e-06
0.027401446166805205,0.0005548222766333254,3.018635571906213e-06
0.027237282174550792,0.0005684819587186644,3.2994616307442106e-06
0.02704350635267479,0.0005820521558504708,3.587095159386494e-06
0.026819121188625377,0.0005955178127357958,3.881487651533061e-06
0.026563216704188417,0.0006088633972089993,4.18258295401926e-06
0.026274979210296808,0.0006220729461876205,4.490317039868415e-06
0.0259536997968742,0.0006351301159394133,4.804617805400174e-06
0.025598782679516947,0.000648018236558511,5.125404893524655e-06
0.025209753510207763,0.0006607203706059423,5.452589545315768e-06
0.024786267707698807,0.0006732193759104189,5.786074481944858e-06
0.02432811881907605,0.0006854979725421126,6.1257538190579906e-06
0.02383524691776361,0.0006975388139763225,6.471513015687599e-06
0.02330774703984799,0.0007093245624657254,6.823228859798112e-06
0.022745877595585388,0.0007208379686245838,7.180769492570689e-06
0.02215006856268158,0.0007320619551641505,7.543994473517872e-06
0.02152092912776758,0.0007429797045867628,7.9127548884556e-06
0.02085925432882218,0.0007535747504509102,8.286893502215019e-06
0.020166030166503156,0.0007638310715747415,8.666244957721433e-06
0.019442436620710452,0.0007737331882715449,9.050636022683005e-06
0.018689848075627315,0.0007832662594456294,9.439885884612299e-06
0.017909830818667885,0.0007924161791692032,9.833806494266007e-06
0.017104137466633185,0.0008011696712405285,1.023220295686844e-05
0.01627469831123025,0.0008095143801849943,1.0634873969724821e-05
0.01542360964376103,0.000817438957173742,1.1041612304064505e-05
0.0145531191462266,0.000824933139371239,1.145220532820075e-05
0.013665608468413245,0.000831987821274899,1.1866435568362283e-05
0.01276357317558886,0.0008385951166858995,1.2284081302852483e-05
0.011849600366275642,0.0008447484100713656,1.2704917184541798e-05
0.010926344426371937,0.0008504423962695275,1.3128714886127021e-05
0.00999650155417579,0.0008556731077646644,1.355524376213557e-05
0.009062783774435205,0.0008604379290968172,1.398427152135094e-05
0.0081278931194387,0.0008647355983202857,1.4415564903205216e-05
0.007194496529008326,0.0008685661957323975,1.4848890351718387e-05
0.006265201873403493,0.0008719311203330005,1.5284014680734738e-05
0.005342535387704605,0.0008748330546482774,1.5720705724480057e-05
0.0044289207454182525,0.0008772759186815582,1.6158732967812516e-05
0.0035266599625753433,0.0008792648138585565,1.6597868150947544e-05
0.002637916266508731,0.0008808059579158275,1.703788584389114e-05
0.0017646989940021088,0.0008819066117309552,1.7478563986302834e-05
0.0009088505457228085,0.0008825749991158864,1.7919684389014545e-05
7.20354197595286e-05,0.0008828202206072569,1.836103319394533e-05
-0.0007442686545976343,0.0008826521622985474,1.880240128967178e-05
-0.001538777454771337,0.0008820814007712051,1.9243584680439218e-05
-0.00231040480413165,0.0008811191052064794,1.968438480693364e-05
-0.003058264790035914,0.0008797769378079375,2.0124608817687242e-05
-0.0037816715412231686,0.0008780669537251227,2.0564069790570507e-05
-0.004480136532678432,0.0008760015017066473,2.1002586904428448e-05
-0.0051533635236311525,0.0008735931266925699,2.143998556152825e-05
-0.005801241361440385,0.0008708544754713021,2.187609746206922e-05
-0.006423834971557952,0.0008677982063880525,2.2310760632534058e-05
-0.007021374916917065,0.0008644369039159338,2.2743819410110056e-05
-0.007594245961974755,0.0008607829986962108,2.317512438576309e-05
-0.008142975087255056,0.0008568486934339034,2.360453230879562e-05
-0.00866821932729725,0.0008526458948302653,2.403190595586166e-05
-0.009170753656415918,0.000848186151584337,2.445711396746531e-05
-0.00965145898511833,0.0008434805984239535,2.4880030654967384e-05
-0.010111310221120213,0.0008385399061223938,2.530053578110397e-05
-0.010551364323744438,0.0008333742374861776,2.5718514317006112e-05
-0.010972748331651723,0.0008279932093223286,2.6133856178708238e-05
-0.011376647439038224,0.0008224058603796561,2.6546455946133733e-05
-0.01176429330190086,0.0008166206251944213,2.695621256752725e-05
-0.01213695285487673,0.0008106453136552269,2.7363029052239664e-05
-0.012495917988158875,0.0008044870959444681,2.776681215463959e-05
-0.012842496440000892,0.0007981524923374281,2.8167472051710065e-05
-0.01317800418351887,0.0007916473671815481,2.856492201658981e-05
-0.013503759440538226,0.0007849769262755339,2.895907808995408e-05
-0.013821078273484149,0.0007781457168470283,2.934985875073472e-05
-0.014131271511736895,0.000771157629400723,2.9737184587296657e-05
-0.014435642582749366,0.0007640159008771015,3.0120977969866113e-05
-0.01473548569678268,0.0007567231188072185,3.0501162724787192e-05
-0.015032083842826687,0.0007492812264223161,3.0877663811094576e-05
-0.015326706193594743,0.0007416915289132107,3.125040699992846e-05
-0.015620604713451858,0.0007339547011864491,3.161931855745337e-05
-0.015915009924092907,0.0007260707975270628,3.198432493213175e-05
-0.01621112586583856,0.00071803926357958,3.234535244740841e-05
-0.016510124320745643,0.000709858951032934,3.270232700106154e-05
-0.016813138399608466,0.0007015281353528455,3.305517377265799e-05
-0.017121255675380646,0.0006930445368340982,3.3403816940704726e-05
-0.017435511140697378,0.0006844053451300787,3.374817941119577e-05
-0.01775688031681995,0.0006756072472656994,3.408818255929471e-05
-0.01808627283007321,0.0006666464589789762,3.442374598585588e-05
-0.018424526735387418,0.000657518759087611,3.475478729037252e-05
-0.018772403837072772,0.000648219526444496,3.508122186175555e-05
-0.019130586233296804,0.0006387437789269035,3.54029626880984e-05
-0.01949967427089709,0.0006290862138008551,3.571992018628034e-05
-0.01988018602851201,0.0006192412487260029,3.603200205191205e-05
-0.02027255836581496,0.0006092030626274212,3.6339113129750406e-05
-0.02067714950486853,0.0005989656356597502,3.66411553043222e-05
-0.02109424303096457,0.0005885227875257919,3.6938027410118586e-05
-0.021524053094713155,0.0005778682134943725,3.722962516037363e-05
-0.02196673048421319,0.0005669955175996409,3.751584109314713e-05
-0.022422369150730107,0.0005558982426909051,3.779656453321977e-05
-0.022891012725729906,0.0005445698972217901,3.807168156819794e-05
-0.023372660569319362,0.0005330039788980277,3.8341075037227894e-05
-0.02386727295626302,0.0005211939955166321,3.8604624530831555e-05
-0.02437477512062714,0.0005091334834974096,3.886220640058507e-05
-0.024895059988858756,0.0004968160247200382,3.9113693777639426e-05
-0.02542798949576896,0.00048423526234888124,3.935895659940665e-05
-0.025973394411269883,0.0004713849163721215,3.9597861644086905e-05
-0.02653107264003629,0.00045825879960929497,3.983027257308226e-05
-0.02710078600661938,0.00044485083494763105,4.005604998172149e-05
-0.02768225559267791,0.00043115507454780674,4.027505145909535e-05
-0.02827515572482828,0.0004171657217184302,4.048713165816191e-05
-0.028879106714089033,0.00040287715610870083,4.06921423776187e-05
-0.029493666443673357,0.00038828396281926026,4.088993265735069e-05
-0.03011832091245666,0.00037338096598022775,4.1080348889550564e-05
-0.03075247386061503,0.0003581632672869598,4.126323494786736e-05
-0.031395435616147445,0.0003426262899177692,4.1438432337168546e-05
-0.0320464113142963,0.0003267658281851583,4.160578036669428e-05
-0.03270448868544006,0.0003105781031852242,4.1765116349536875e-05
-0.033368625694092366,0.0002940598245903411,4.191627583148077e-05
-0.03403763842023242,0.0002772082585617599,4.205909285226879e-05
-0.034710189668400365,0.00026002130153960176,4.2193400242294135e-05
-0.03538477884799186,0.0002424975594105037,4.231902995753166e-05
-0.0360597336918296,0.00022463643127554832,4.243581345520317e-05
-0.03673320439255443,0.0002064381967544523,4.254358211221067e-05
-0.03740316075715393,0.00018790410546702522,4.264216768776604e-05
-0.038067392984889065,0.00016903646703151447,4.2731402830890675e-05
-0.038723516601943654,0.0001498387396348063,4.281112163255726e-05
-0.03936898191617974,0.00013031561500527545,4.288116022121728e-05
-0.04000108814532878,0.00011047309748989833,4.2941357399341073e-05
-0.04061700219236584,9.031857490547466e-05,4.2991555317439916e-05
-0.04121378190448876,6.986087888126102e-05,4.30316001808866e-05
-0.04178840352629163,4.911033252356592e-05,4.3061342983737806e-05
-0.042337792920142094,2.8078783411957492e-05,4.308064026272169e-05
-0.042858859966720786,6.779620190241774e-06,4.308935486362224e-05
-0.04334853536927698,-1.4772228643757668e-05,4.308735671150886e-05
-0.04380380889255363,-3.656031470921532e-05,4.307452357567061e-05
-0.044221767945194654,-5.856670891865239e-05,4.3050741819763646e-05
-0.04459963542293983,-8.077205976068602e-05,4.301590712759381e-05
-0.044934805850351214,-0.00010315567007900878,4.296992519513389e-05
-0.045224879024355624,-0.0001256955912976855,4.291271237978972e-05
-0.04546769051993019,-0.00014836873368375696,4.284419629854436e-05
-0.045661338534256475,-0.00017115099094730364,4.276431636738659e-05
-0.04580420661454833,-0.00019401737723450483,4.267302427534114e-05
-0.045894981873609235,-0.00021694217435654423,4.257028438744338e-05
-0.04593266838867952,-0.0002398990869221164,4.2456074072123714e-05
-0.045916595593151886,-0.0002628614029175743,4.233038394966379e-05
-0.04584642156555756,-0.00028580215720725165,4.219321805963259e-05
-0.045722131181765234,-0.00030869429539408233,4.2044593946482254e-05
-0.0455440291488728,-0.00033151083547674186,4.1884542663764545e-05
-0.0453127280134135,-0.0003542250247673134,4.171310869870353e-05
-0.04502913134467189,-0.0003768104896068348,4.153034982011e-05
-0.04469441243409217,-0.0003992413755515258,4.133633685382041e-05
-0.04430998902828405,-0.0004214924759171199,4.113115339095325e-05
-0.04387749482338136,-0.0004435393468800362,4.091489543525396e-05
-0.043398748637685884,-0.00046535840774530304,4.0687670996597625e-05
-0.04287572226276355,-0.0004869270254704154,4.0449599638293695e-05
-0.04231050794771412,-0.0005082235830230348,4.020081198617033e-05
-0.04170528635247904,-0.0005292275315980831,3.994144920751505e-05
-0.041062295668932804,-0.0005499194271034361,3.967166246783967e-05
-0.04038380246865238,-0.0005702809516378324,3.939161237315436e-05
-0.0396720747049441,-0.0005902949209312316,3.9101468405012094e-05
-0.038929357202999455,-0.0006099452789082175,3.880140835505223e-05
-0.03815784992956388,-0.0006292170806913583,3.8491617765152335e-05
-0.03735968931755784,-0.0006480964655031387,3.817228937860371e-05
-0.036536932895429246,-0.0006665706210563855,3.7843622606963825e-05
-0.035691547418655545,-0.0006846277411349066,3.7505823016416e-05
-0.03482540061701463,-0.0007022569781438241,3.715910183659631e-05
-0.033940256553333194,-0.0007194483924364111,3.6803675493951254e-05
-0.03303777444959315,-0.0007361929001871427,3.6439765170795365e-05
-0.032119510708073,-0.0007524822214765593,3.606759639037944e-05
-0.03118692377210328,-0.0007683088300966033,3.568739862748615e-05
-0.030241381444883416,-0.00078366590640085,3.529940494336178e-05
-0.02928417030204132,-0.0007985472943375811,3.490385164317718e-05
-0.02831650685908416,-0.0008129474636278625,3.450097795368582e-05
-0.027339550149330982,-0.0008268614778799663,3.409102571830886e-05
-0.026354415325543157,-0.0008402849692486848,3.3674239106526696e-05
-0.025362187859081547,-0.0008532141200448411,3.325086433420331e-05
-0.024363937915027625,-0.0008656456514883684,3.282114939132001e-05
-0.023360734521418073,-0.0008775768195974799,3.238534377354855e-05
-0.022353659175819895,-0.0008890054180217894,3.194369821414373e-05
-0.02134381851053117,-0.0008999297874433772,3.149646441277744e-05
-0.02033235558512254,-0.0009103488309672906,3.104389475817477e-05
-0.019320459341163665,-0.0009202620346988621,3.058624204175823e-05
-0.018309371791878717,-0.0009296694924821227,3.0123759159962988e-05
-0.0173003926529001,-0.0009385719335933175,2.965669880344413e-05
-0.016294881323477055,-0.0009469707520874118,2.9185313132023944e-05
-0.015294256346769234,-0.0009548680365049733,2.870985343487585e-05
-0.014299992665867442,-0.0009622665987581325,2.8230569776060072e-05
-0.013313617111511848,-0.0009691700012024773,2.774771062606992e-05
-0.012336702576320175,-0.0009755825811244354,2.7261522480488194e-05
-0.01137086124317962,-0.0009815094720793103,2.6772249467187258e-05
-0.010417737078290962,-0.000986956621659678,2.628013294375251e-05
-0.009478997631224916,-0.0009919308053370568,2.5785411087003327e-05
-0.008556325058922058,-0.0009964396360095935,2.5288318476666665e-05
-0.007651406237090085,-0.0010004915688335966,2.4789085675455868e-05
-0.006765921835250117,-0.0010040959008516817,2.428793880803455e-05
-0.0059015342878059665,-0.0010072627648824457,2.378509914160102e-05
-0.00505987468582456,-0.0010100031171258533,2.3280782671098946e-05
-0.004242528747378534,-0.001012328717984154,2.2775199712321443e-05
-0.0034510221697784233,-0.0010142521057134432,2.2268554506397045e-05
-0.0026868057629528975,-0.0010157865626966261,2.1761044839294526e-05
-0.0019512407760511568,-0.0010169460743313771,2.1252861680037526e-05
-0.00124558479663764,-0.0010177452807245493,2.0744188841273544e-05
-0.0005709785890318437,-0.0010181994215709667,2.0235202665699664e-05
