frame_number,force
0,691.8609754660415
1,691.8797974386399
2,691.8990189220625
3,691.9186137108939
4,691.9385671234909
5,691.9588759801118
6,691.9795484432957
7,692.0006037329099
8,692.0220717278623
9,692.043992458146
10,692.066415480153
11,692.0893991217239
12,692.1130095837135
13,692.137319890095
14,692.1624086858044
15,692.1883588892177
16,692.2152562147588
17,692.2431875910077
18,692.2722395097542
19,692.3024963489704
20,692.3340387141051
21,692.3669418359086
22,692.4012740516724
23,692.4370953847824
24,692.474456228086
25,692.5133961311744
26,692.5539426900441
27,692.5961105382571
28,692.6399004410721
29,692.6852984991823
30,692.7322754771001
31,692.780786281067
32,692.8307696204022
33,692.8821478925728
34,692.934827333169
35,692.9886984637166
36,693.0436368524099
37,693.0995041815946
38,693.1561495997554
39,693.2134113276267
40,693.2711184834607
41,693.3290930865328
42,693.3871521908175
43,693.4451100967391
44,693.5027805913004
45,693.5599791749704
46,693.6165252437329
47,693.672244202376
48,693.7269694874349
49,693.7805444745326
50,693.8328242378442
51,693.8836771244104
52,693.9329861075978
53,693.9806498921688
54,694.0265837539845
55,694.0707201061389
56,694.1130087899373
57,694.1534170958463
58,694.1919295266296
59,694.2285473196438
60,694.2632877462493
61,694.2961832061206
62,694.3272801365842
63,694.3566377615585
64,694.384326707043
65,694.4104275081496
66,694.4350290290939
67,694.4582268164813
68,694.4801214085129
69,694.5008166247137
70,694.5204178579066
71,694.5390303820719
72,694.556757680516
73,694.5736997936605
74,694.5899516898792
75,694.6056016783887
76,694.6207299045951
77,694.6354069842022
78,694.6496928353157
79,694.6636357580816
80,694.6772717937821
81,694.6906243747922
82,694.7037042561134
83,694.7165096995452
84,694.7290268661735
85,694.7412303662773
86,694.7530839186232
87,694.7645410798335
88,694.7755460150634
89,694.7860342908796
90,694.7959336786481
91,694.8051649621598
92,694.813642747232
93,694.8212762734968
94,694.8279702293726
95,694.8336255715434
96,694.8381403516577
97,694.8414105542913
98,694.8433309479833
99,694.8437959444935
100,694.8427004543736
101,694.839940724243
102,694.8354151442526
103,694.8290250214088
104,694.8206753221049
105,694.8102753907315
106,694.7977396483551
107,694.7829882700064
108,694.765947838024
109,694.7465519741779
110,694.7247419603107
111,694.7004673608033
112,694.6736866586588
113,694.6443679119923
114,694.6124894333813
115,694.5780404937681
116,694.5410220520885
117,694.501447505473
118,694.4593434423844
119,694.4147503676319
120,694.367723357276
121,694.3183325932182
122,694.2666637240773
123,694.2128180050257
124,694.1569121843327
125,694.0990781218416
126,694.0394621374971
127,693.978224094217
128,693.9155362218177
129,693.8515816915909
130,693.7865529571167
131,693.7206498875918
132,693.6540777355672
133,693.587044996762
134,693.5197612274322
135,693.4524348809648
136,693.3852712134673
137,693.3184702942082
138,693.2522251459236
139,693.1867200343266
140,693.1221289228014
141,693.0586141029794
142,692.9963250054635
143,692.9353971915364
144,692.8759515264522
145,692.8180935349056
146,692.7619129400965
147,692.7074833919675
148,692.6548623952862
149,692.6040914481426
150,692.5551963933665
151,692.5081879726007
152,692.4630625609753
153,692.4198030522667
154,692.3783798586464
155,692.3387519843983
156,692.3008681321326
157,692.2646678070311
158,692.2300823987757
159,692.1970362361412
160,692.1654476195826
161,692.1352298396113
162,692.1062921839871
163,692.0785409278419
164,692.0518802908605
165,692.0262133363399
166,692.001442780464
167,691.9774716795514
168,691.9542039702571
169,691.9315448514247
170,691.909401013369
171,691.8876807386524
172,691.8662939158928
173,691.8451520195234
174,691.8241681075372
175,691.8032568759596
176,691.7823347902664
177,691.7613202987211
178,691.7401341247214
179,691.7186996324969
180,691.6969432570617
181,691.6747949816781
182,691.6521888370695
183,691.629063391889
184,691.6053622049627
185,691.5810342132204
186,691.5560340319716
187,691.5303221463859
188,691.503864976767
189,691.476634806672
190,691.4486095704682
191,691.4197725036906
192,691.3901116669736
193,691.3596193642983
194,691.3282914869537
195,691.2961268226748
196,691.2631263737474
197,691.2292927276891
198,691.1946295179149
199,691.1591410010088
200,691.1228317670038
201,691.0857065930023
202,691.0477704473518
203,691.0090286483688
204,690.9694871768661
205,690.9291531366379
206,690.8880353540469
207,690.846145107605
208,690.8034969787963
209,690.7601098143529
210,690.7160077883314
211,690.6712215511076
212,690.6257894510767
213,690.5797588106437
214,690.533187229778
215,690.4861438800592
216,690.4387107431395
217,690.3909837419479
218,690.3430737105956
219,690.2951071476198
220,690.2472266951038
221,690.1995912856062
222,690.1523759054618
223,690.1057709388961
224,690.0599810770633
225,690.0152237929198
226,689.9717273956848
227,689.9297286904193
228,689.8894702811486
229,689.8511975709998
230,689.8151555306467
231,689.7815853245064
232,689.75072089567
233,689.7227856098076
234,689.6979890470225
235,689.676524015141
236,689.6585638432578
237,689.6442600035712
238,689.6337401032334
239,689.6271062825684
240,689.6244340475948
241,689.6257715542515
242,689.6311393530119
243,689.6405305969885
244,689.6539117118998
245,689.6712235195062
246,689.6923827961324
247,689.7172842348895
248,689.7458027637672
249,689.7777961521252
250,689.8131078204433
251,689.851569760474
252,689.8930054773335
253,689.9372328763367
254,689.9840670303578
255,690.0333227767085
256,690.08481710489
257,690.1383713053921
258,690.193812853664
259,690.2509770048242
260,690.309708077002
261,690.3698604060339
262,690.4312989620124
263,690.4938996291511
264,690.5575491634636
265,690.6221448546762
266,690.6875939264653
267,690.7538127114157
268,690.8207256353136
269,690.8882640428372
270,690.9563648970858
271,691.0249693892415
272,691.0940214982498
273,691.1634665398534
274,691.2332497404791
275,691.3033148690383
276,691.3736029616987
277,691.4440511795979
278,691.5145918426356
279,691.5851516788952
280,691.6556513166886
281,691.7260050271051
282,691.7961207043243
283,691.8659000533017
284,691.9352389432604
285,692.0040278837265
286,692.0721525881465
287,692.1394946050243
288,692.2059320124578
289,692.271340183873
290,692.3355926379019
291,692.3985619842455
292,692.4601209721909
293,692.5201436398442
294,692.5785065497021
295,692.63509008256
296,692.6897797528011
297,692.742467506974
298,692.7930529707061
299,692.8414446102513
300,692.8875607729319
301,692.9313305698975
302,692.9726945692702
303,693.0116052774464
304,693.0480273980069
305,693.0819378689808
306,693.1133256889821
307,693.1421915515781
308,693.1685473168518
309,693.1924153590157
310,693.2138278356688
311,693.2328259256608
312,693.2494590799189
313,693.2637843245133
314,693.2758656468444
315,693.2857734835675
316,693.2935843150934
317,693.2993803595326
318,693.3032493498325
319,693.3052843716035
320,693.305583738148
321,693.3042508854456
322,693.3013942786563
323,693.2971273250495
324,693.2915682840402
325,693.2848401572708
326,693.2770705338908
327,693.2683913607707
328,693.2589386092575
329,693.2488518225332
330,693.2382735458038
331,693.2273486561809
332,693.216223615057
333,693.2050456634363
334,693.193961973348
335,693.1831187612962
336,693.1726603673596
337,693.1627283057895
338,693.1534602945928
339,693.1449892691778
340,693.1374423820282
341,693.1309399918138
342,693.1255946508763
343,693.1215101051309
344,693.118780323236
345,693.1174885735714
346,693.1177065686674
347,693.119493697208
348,693.1228963640258
349,693.127947457783
350,693.134665961952
351,693.1430567170127
352,693.1531103349948
353,693.1648032672049
354,693.1780980321837
355,693.192943616652
356,693.2092760598999
357,693.2270192213022
358,693.2460857181231
359,693.2663780135762
360,693.2877896350221
361,693.3102065067227
362,693.333508386612
363,693.3575703971578
364,693.3822646328636
365,693.4074618134239
366,693.4330329399951
367,693.4588509097479
368,693.4847920515646
369,693.510737558707
370,693.5365748064003
371,693.5621985488225
372,693.5875119899063
373,693.6124277192097
374,693.6368685024402
375,693.6607679169995
376,693.6840708249247
377,693.706733679077
378,693.728724663916
379,693.7500236766986
380,693.7706221536464
381,693.7905227388547
382,693.809738788397
383,693.8282937039575
384,693.8462200988132
385,693.8635588103772
386,693.8803577844591
387,693.8966708638376
388,693.9125565151885
389,693.9280765229865
390,693.9432946689399
391,693.9582754076924
392,693.9730825508317
393,693.9877779804259
394,694.0024204220005
395,694.0170643083372
396,694.0317587586302
397,694.0465466852005
398,694.061464027618
399,694.0765391070862
400,694.091792093808
401,694.1072345844349
402,694.1228692931084
403,694.1386898672088
404,694.1546808478689
405,694.1708178032237
406,694.1870676624983
407,694.2033892659894
408,694.2197341235409
409,694.2360473522302
410,694.2522687488834
411,694.2683339441047
412,694.2841755790994
413,694.2997244443363
414,694.3149105219984
415,694.3296638838303
416,694.343915411637
417,694.357597326255
418,694.3706435286158
419,694.3829897713738
420,694.3945736920895
421,694.40533475049
422,694.415214121041
423,694.4241545927223
424,694.4321005177973
425,694.4389978343722
426,694.444794170774
427,694.4494390280407
428,694.4528840313359
429,694.4550832404431
430,694.45599351067
431,694.4555748949782
432,694.4537910735826
433,694.450609789115
434,694.4460032579434
435,694.4399485270341
436,694.4324277529377
437,694.4234283918098
438,694.4129433016335
439,694.400970766593
440,694.3875144578183
441,694.3725833456721
442,694.3561915791711
443,694.3383583496957
444,694.319107757306
445,694.298468695043
446,694.2764747570205
447,694.2531641613176
448,694.2285796637767
449,694.2027684293121
450,694.1757818262189
451,694.1476751165037
452,694.1185070292345
453,694.0883392202963
454,694.0572356367225
455,694.0252618138016
456,693.9924841360031
457,693.9589690879951
458,693.9247825127678
459,693.8899888857436
460,693.8546506118998
461,693.81882735792
462,693.7825754369218
463,693.7459472606466
464,693.7089908617198
465,693.6717494756167
466,693.6342611679064
467,693.5965584969821
468,693.5586682089745
469,693.5206109675281
470,693.4824011301023
471,693.444046595151
472,693.4055487554729
473,693.3669025964986
474,693.3280969734142
475,693.2891150900003
476,693.2499351860878
477,693.2105314202901
478,693.1708749140513
479,693.1309349086368
480,693.0906799823385
481,693.0500792787097
482,693.0091037035232
483,692.9677270560861
484,692.925927068626
485,692.8836863333808
486,692.840993098868
487,692.797841915848
488,692.7542341130106
489,692.7101780850772
490,692.6656893836388
491,692.6207906138815
492,692.5755111543847
493,692.5298867259655
494,692.4839588364582
495,692.4377741239296
496,692.3913836153797
497,692.3448419147933
498,692.2982063347625
499,692.2515359890928
500,692.2048908685091
501,692.1583309254803
502,692.1119151940181
503,692.0657009666683
504,692.0197430489771
505,691.9740931142518
506,691.9287991853122
507,691.8839052714017
508,691.8394511862675
509,691.7954725670348
510,691.752001102115
511,691.7090649608489
512,691.6666894006979
513,691.6248975136626
514,691.5837110663145
515,691.5431513885975
516,691.5032402724837
517,691.4640008484906
518,691.425458413795
519,691.3876411899635
520,691.3505809917103
521,691.3143137915874
522,691.2788801696464
523,691.2443256408374
524,691.2107008550076
525,691.178061665905
526,691.1464690690194
527,691.1159890133173
528,691.0866920951305
529,691.058653140557
530,691.031950677498
531,691.0066662946986
532,690.982883886119
533,690.9606887847452
534,690.9401667982419
535,690.9214031658382
536,690.9044814585809
537,690.8894824442882
538,690.8764829374061
539,690.8655546538471
540,690.8567630902138
541,690.8501664447897
542,690.8458145961242
543,690.8437481546318
544,690.8439976017434
545,690.8465825307273
546,690.8515110073978
547,690.8587790781759
548,690.8683704621643
549,690.8802564672454
550,690.8943961655388
551,690.9107368514342
552,690.929214788544
553,690.9497562342456
554,690.972278714207
555,690.9966925047491
556,691.0229022704481
557,691.050808801597
558,691.0803108005678
559,691.1113066723974
560,691.1436962782305
561,691.1773826106468
562,691.2122733501724
563,691.2482822632031
564,691.2853304031389
565,691.323347081196
566,691.3622705830277
567,691.4020486193855
568,691.4426385094832
569,691.4840071031907
570,691.526130453382
571,691.5689932533978
572,691.6125880575852
573,691.656914306947
574,691.7019771888332
575,691.7477863692695
576,691.7943546457186
577,691.8416965720794
578,691.889827103874
579,691.9387603013848
580,691.9885081168698
581,692.0390792832244
582,692.0904783153331
583,692.1427046287095
584,692.1957517719054
585,692.2496067616669
586,692.304249504863
587,692.3596522899641
588,692.4157793343466
589,692.4725863811766
590,692.5300203474799
591,692.5880190301723
592,692.646510879512
593,692.7054148515297
594,692.7646403538462
595,692.8240873032332
596,692.8836463166413
597,692.9431990563759
598,693.0026187425582
599,693.0617708350621
600,693.1205138784454
601,693.1787004993905
602,693.2361785448586
603,693.2927923480227
604,693.3483841076193
605,693.4027953647889
606,693.4558685586857
607,693.5074486365584
608,693.5573846859421
609,693.605531548865
610,693.6517513729235
611,693.6959150519738
612,693.7379035109747
613,693.7776087982344
614,693.8149349652384
615,693.8497987358636
616,693.8821299869031
617,693.9118720749387
618,693.9389820471108
619,693.9634307646619
620,693.9852029527196
621,694.004297176102
622,694.0207257350963
623,694.0345144753335
624,694.0457025057817
625,694.0543418166666
626,694.0604967884223
627,694.0642435857555
628,694.0656694363586
629,694.0648718014954
630,694.0619574563909
631,694.0570415097122
632,694.0502463973219
633,694.0417008806348
634,694.031539064747
635,694.0198994322501
636,694.0069238727565
637,693.9927566797032
638,693.9775434850357
639,693.9614301070482
640,693.9445612948109
641,693.9270793620861
642,693.9091227135541
643,693.8908242772735
644,693.8723098694729
645,693.8536965286941
646,693.8350908644532
647,693.8165874721196
648,693.7982674721513
649,693.7801972377215
650,693.7624273774685
651,693.7449920356199
652,693.7279085580902
653,693.7111775528826
654,693.6947833508168
655,693.6786948516481
656,693.662866724633
657,693.6472409238758
658,693.6317484729981
659,693.6163114632427
660,693.6008451946211
661,693.5852603803042
662,693.5694653358478
663,693.553368083874
664,693.5368783158781
665,693.5199091637622
666,693.5023787455581
667,693.4842114645355
668,693.4653390589731
669,693.4457014175887
670,693.4252471863543
671,693.4039341930537
672,693.3817297107623
673,693.3586105767895
674,693.3345631802943
675,693.3095833256256
676,693.2836759679208
677,693.256854807261
678,693.2291417243972
679,693.2005660483164
680,693.1711636621393
681,693.1409759723367
682,693.1100487793725
683,693.0784310936745
684,693.0461739436786
685,693.0133292261204
686,692.9799486507593
687,692.9460828279811
688,692.9117805366175
689,692.8770881930088
690,692.8420495251769
691,692.8067054431249
692,692.7710940916731
693,692.7352510754804
694,692.6992098511906
695,692.6630022817925
696,692.6266593408641
697,692.5902119434179
698,692.5536918705685
699,692.5171327472282
700,692.4805710223228
701,692.444046890067
702,692.4076050839735
703,692.3712954787104
704,692.3351734518335
705,692.2992999848943
706,692.2637415125988
707,692.2285695502484
708,692.1938601391658
709,692.1596931483222
710,692.1261514632932
711,692.0933200871308
712,692.0612851738697
713,692.0301330128624
714,691.99994898187
715,691.970816492712
716,691.9428159653538
717,691.9160238767574
718,691.8905119297655
719,691.866346372648
720,691.8435874786551
721,691.8222891750027
722,691.8024987961832
723,691.7842569294486
724,691.7675973223276
725,691.7525468318166
726,691.7391254074594
727,691.7273461104562
728,691.7172151759521
729,691.7087321267204
730,691.7018899448731
731,691.6966753047287
732,691.6930688668206
733,691.6910456327638
734,691.690575362285
735,691.6916230533186
736,691.6941494818705
737,691.6981117920042
738,691.7034641202629
739,691.7101582343469
740,691.718144164021
741,691.7273708052045
742,691.7377864875666
743,691.7493395091999
744,691.7619786524833
745,691.7756536972073
746,691.7903159400554
747,691.8059187188669
748,691.8224179318833
749,691.8397725384863
750,691.8579450272778
751,691.8769018386802
752,691.8966137324608
753,691.9170560937309
754,691.9382091711926
755,691.9600582385718
756,691.9825936665948
757,692.0058108905475
758,692.0297102595437
759,692.0542967609942
760,692.079579627331
761,692.1055718458705
762,692.1322895998852
763,692.1597516684322
764,692.1879788086567
765,692.216993140537
766,692.2468175496793
767,692.2774751173317
768,692.3089885794278
769,692.3413798106295
770,692.3746693258846
771,692.4088757900471
772,692.4440155247013
773,692.4801020009978
774,692.5171453094604
775,692.5551516021485
776,692.594122506784
777,692.6340545142334
778,692.6749383398702
779,692.7167582570471
780,692.7594913997552
781,692.803107035031
782,692.847565815418
783,692.8928190350493
784,692.9388079240749
785,692.9854630204512
786,693.0327036538539
787,693.0804375652273
788,693.1285606717668
789,693.176956976917
790,693.225498622197
791,693.2740460817477
792,693.3224485073937
793,693.3705442374095
794,693.418161484152
795,693.4651192145825
796,693.5112282332692
797,693.5562924694344
798,693.6001104608977
799,693.6424770228894
800,693.683185089537
801,693.7220277172216
802,693.7588002382413
803,693.7933025481278
804,693.8253415008444
805,693.8547333752555
806,693.8813063663031
807,693.9049030472778
808,693.9253827460512
809,693.9426237768937
810,693.9565254696788
811,693.9670099410085
812,693.9740235579576
813,693.9775380538772
814,693.9775512657075
815,693.9740874725799
816,693.9671973255621
817,693.9569573690238
818,693.9434691676971
819,693.926858070891
820,693.9072716626114
821,693.8848779571719
822,693.8598634012232
823,693.8324307370815
824,693.8027967726971
825,693.7711900937402
826,693.73784874554
827,693.7030179088983
828,693.6669475943365
829,693.6298903815193
830,693.5920992299206
831,693.5538253803172
832,693.515316356101
833,693.4768140638437
834,693.4385529879626
835,693.4007584745179
836,693.3636451026455
837,693.3274151490607
838,693.2922571606795
839,693.2583446585459
840,693.2258349987392
841,693.1948684122538
842,693.1655672392103
843,693.1380353682031
844,693.1123578923967
845,693.0886009976217
846,693.0668120972729
847,693.0470202205
848,693.0292366473344
849,693.0134557730181
850,692.9996561769985
851,692.9878018699203
852,692.9778436929937
853,692.9697208451529
854,692.9633625113541
855,692.9586895602929
856,692.9556162750819
857,692.9540520792948
858,692.9539032226251
859,692.955074391362
860,692.9574702072974
861,692.9609965776365
862,692.9655618616054
863,692.971077827045
864,692.9774603810806
865,692.9846300716059
866,692.9925123686911
867,693.0010377450448
868,693.0101415818064
869,693.0197639301454
870,693.0298491600302
871,693.0403455257773
872,693.051204675512
873,693.0623811300397
874,693.0738317568012
875,693.0855152672683
876,693.0973917700528
877,693.1094224129847
878,693.1215691414395
879,693.1337945876847
880,693.1460620925559
881,693.1583358522948
882,693.1705811806023
883,693.182764874541
884,693.1948556690113
885,693.2068247585238
886,693.2186463601379
887,693.230298289652
888,693.241762523226
889,693.2530257163696
890,693.2640796518752
891,693.2749215910384
892,693.2855545107566
893,693.2959872207631
894,693.306234365548
895,693.3163163210578
896,693.3262589958457
897,693.3360935405758
898,693.3458559621616
899,693.3555866347764
900,693.3653297026378
901,693.3751323769353
902,693.385044136734
903,693.395115847794
904,693.4053988136627
905,693.4159437714922
906,693.42679984256
907,693.438013445963
908,693.449627183958
909,693.461678709261
910,693.4741995895781
911,693.4872141932958
912,693.5007386293979
913,693.514779778519
914,693.5293344467228
915,693.5443886601577
916,693.559917102565
917,693.575882684895
918,693.5922362302053
