frame_number,force
0,647.3768300038739
1,647.6491238020268
2,647.9208984859963
3,648.1916382272597
4,648.4608337160972
5,648.7279852934709
6,648.9926059388118
7,649.2542240773483
8,649.5123861770037
9,649.7666591110607
10,650.0166322684751
11,650.261919398926
12,650.5021601846214
13,650.7370215356303
14,650.9661986099875
15,651.1894155640227
16,651.4064260422256
17,651.6170134189339
18,651.8209908057854
19,652.018200839486
20,652.2085152649133
21,652.3918343295259
22,652.5680860064795
23,652.7372250654357
24,652.8992320112105
25,653.0541119104067
26,653.2018931245896
27,653.3426259659994
28,653.4763812894685
29,653.6032490329454
30,653.7233367191212
31,653.836767932093
32,653.9436807851581
33,654.0442263971188
34,654.1385673935807
35,654.2268764469319
36,654.3093348655599
37,654.3861312405487
38,654.4574601566393
39,654.5235209733763
40,654.5845166819302
41,654.6406528426496
42,654.6921366073731
43,654.7391758287899
44,654.7819782571041
45,654.8207508223246
46,654.8556989988546
47,654.8870262476956
48,654.9149335305459
49,654.9396188894005
50,654.9612770851617
51,654.9800992893995
52,654.9962728244097
53,655.009980947081
54,655.0214026712235
55,655.0307126215272
56,655.038080911217
57,655.0436730350342
58,655.0476497692094
59,655.0501670707985
60,655.05137597045
61,655.0514224551915
62,655.0504473403241
63,655.048586131081
64,655.0459688751017
65,655.042720006549
66,655.0389581824195
67,655.0347961113714
68,655.0303403753397
69,655.0256912445312
70,655.0209424869413
71,655.0161811740511
72,655.0114874849643
73,655.006934512277
74,655.0025880742861
75,654.9985065389649
76,654.9947406647935
77,654.991333462144
78,654.9883200772481
79,654.9857276997881
80,654.9835754955883
81,654.9818745677367
82,654.9806279515764
83,654.9798306498559
84,654.9794697133316
85,654.9795243699325
86,654.9799662031243
87,654.9807593776371
88,654.9818609083871
89,654.9832209669833
90,654.9847832205438
91,654.9864851992508
92,654.9882586907277
93,654.9900301600464
94,654.9917211941425
95,654.9932489692408
96,654.9945267398674
97,654.9954643480187
98,654.99596875074
99,654.995944563635
100,654.9952946170451
101,654.9939205214866
102,654.9917232397582
103,654.9886036643253
104,654.9844631990422
105,654.9792043435511
106,654.9727312774414
107,654.964950440438
108,654.9557711049679
109,654.9451059381541
110,654.9328715508665
111,654.9189890314595
112,654.903384461363
113,654.8859894091657
114,654.8667413995829
115,654.8455843537865
116,654.8224689979636
117,654.7973532374159
118,654.7702024938171
119,654.7409900033228
120,654.7096970732327
121,654.6763132950866
122,654.6408367125994
123,654.6032739435285
124,654.5636402550268
125,654.521959591959
126,654.4782645571659
127,654.432596341944
128,654.3850046043037
129,654.335547292331
130,654.2842904107999
131,654.2313077311966
132,654.1766804480808
133,654.1204967874454
134,654.062851574556
135,654.0038457691844
136,653.943585975321
137,653.882183930985
138,653.8197559822598
139,653.7564225444718
140,653.6923075526851
141,653.6275379035923
142,653.5622428914504
143,653.4965536415823
144,653.430602545515
145,653.3645227016699
146,653.2984473648014
147,653.2325094066348
148,653.166840789765
149,653.10157205684
150,653.0368318372659
151,652.972746373993
152,652.9094390731277
153,652.8470300790976
154,652.7856358780829
155,652.7253689324587
156,652.6663373486867
157,652.6086445802614
158,652.5523891663415
159,652.4976645060642
160,652.4445586681097
161,652.3931542345033
162,652.3435281769819
163,652.2957517639591
164,652.2498904964039
165,652.2060040715373
166,652.1641463737234
167,652.1243654921313
168,652.0867037648163
169,652.0511978487359
170,652.0178788145159
171,651.9867722632415
172,651.957898460454
173,651.9312724806987
174,651.9069043553288
175,651.8847992171811
176,651.864957437696
177,651.8473747542082
178,651.8320423867644
179,651.8189471445291
180,651.8080715216863
181,651.7993937823953
182,651.7928880344701
183,651.7885242922256
184,651.7862685301291
185,651.7860827301113
186,651.7879249262454
187,651.7917492508388
188,651.7975059858068
189,651.805141622788
190,651.81459893552
191,651.8258170691623
192,651.838731653284
193,651.8532749470763
194,651.8693760261618
195,651.8869610198176
196,651.9059534054645
197,651.9262743640312
198,651.9478431957973
199,651.970577792209
200,651.9943951554709
201,652.0192119548415
202,652.0449451067742
203,652.071512365434
204,652.0988329105257
205,652.1268279203508
206,652.1554211191277
207,652.1845392887401
208,652.2141127365367
209,652.2440757128087
210,652.2743667739938
211,652.3049290900682
212,652.3357106964646
213,652.3666646915983
214,652.397749380435
215,652.4289283630912
216,652.460170566391
217,652.4914502164457
218,652.5227467514969
219,652.554044675642
220,652.5853333549543
221,652.6166067577301
222,652.6478631404987
223,652.6791046815171
224,652.7103370640799
225,652.7415690131018
226,652.7728117897451
227,652.804078649983
228,652.8353842739141
229,652.8667441739003
230,652.8981740914948
231,652.9296893950606
232,652.961304491013
233,652.9930322616378
234,653.0248835419573
235,653.0568666471618
236,653.0889869601932
237,653.1212465860851
238,653.1536440763223
239,653.1861742236167
240,653.2188279254982
241,653.2515921139129
242,653.2844497472138
243,653.3173798598608
244,653.3503576632812
245,653.3833546888366
246,653.4163389618265
247,653.4492751950381
248,653.4821249916876
249,653.5148470498604
250,653.5473973627917
251,653.5797294111951
252,653.611794345581
253,653.6435411583891
254,653.6749168478909
255,653.7058665779739
256,653.7363338393915
257,653.7662606179961
258,653.7955875737424
259,653.8242542316921
260,653.8521991839978
261,653.8793603005289
262,653.9056749454136
263,653.9310801968089
264,653.9555130670578
265,653.9789107199572
266,654.0012106817137
267,654.0223510427019
268,654.0422706480385
269,654.0609092756027
270,654.0782077999716
271,654.094108339884
272,654.1085543859436
273,654.1214909052333
274,654.1328644206402
275,654.1426230644519
276,654.1507166073395
277,654.1570964649595
278,654.1617156854564
279,654.1645289226019
280,654.1654924009538
281,654.1645638805909
282,654.1617026291333
283,654.1568694080388
284,654.1500264791408
285,654.141137636416
286,654.1301682670022
287,654.1170854443593
288,654.1018580548935
289,654.0844569571254
290,654.0648551699205
291,654.0430280842396
292,654.0189536918855
293,653.9926128246808
294,653.963989397885
295,653.9330706518633
296,653.8998473857279
297,653.8643141760713
298,653.8264695737571
299,653.7863162726222
300,653.7438612456737
301,653.6991158463842
302,653.6520958748648
303,653.6028216109898
304,653.5513178184467
305,653.497613724515
306,653.4417429801705
307,653.3837436043386
308,653.3236579151194
309,653.2615324498549
310,653.1974178752112
311,653.1313688877848
312,653.06344410478
313,652.9937059434238
314,652.9222204877562
315,652.8490573422584
316,652.7742894725583
317,652.6979930335982
318,652.6202471856153
319,652.5411338989973
320,652.4607377507944
321,652.3791457175699
322,652.2964469701818
323,652.2127326753757
324,652.1280958070877
325,652.0426309681387
326,651.9564342214487
327,651.8696029290767
328,651.7822355967942
329,651.6944317211829
330,651.6062916357704
331,651.5179163531774
332,651.4294074017133
333,651.340866656416
334,651.2523961653426
335,651.1640979720567
336,651.0760739353119
337,650.9884255470442
338,650.9012537496403
339,650.8146587528964
340,650.7287398502808
341,650.6435952335161
342,650.5593218043448
343,650.4760149824
344,650.393768508111
345,650.3126742397666
346,650.232821944653
347,650.1542990854067
348,650.0771906038483
349,650.0015787054209
350,649.9275426480744
351,649.8551585396945
352,649.7844991472635
353,649.7156337188476
354,649.6486278172796
355,649.5835431632263
356,649.5204374853118
357,649.45936437548
358,649.4003731483898
359,649.3435087044078
360,649.2888113966084
361,649.2363169026889
362,649.1860561026475
363,649.138054962863
364,649.0923344273483
365,649.0489103173456
366,649.0077932406748
367,648.9689885123822
368,648.9324960888786
369,648.8983105190052
370,648.8664209164831
371,648.8368109581586
372,648.8094589115715
373,648.7843376942351
374,648.7614149657829
375,648.7406532526019
376,648.7220101028959
377,648.705438268733
378,648.6908859105594
379,648.6782968187397
380,648.6676106462069
381,648.6587631467427
382,648.6516864146249
383,648.6463091227854
384,648.6425567579246
385,648.6403518521603
386,648.6396142116931
387,648.6402611436907
388,648.642207683177
389,648.6453668221086
390,648.6496497430926
391,648.6549660605956
392,648.6612240728479
393,648.66833102747
394,648.6761934029909
395,648.6847172072809
396,648.6938082928232
397,648.7033726875648
398,648.7133169385266
399,648.7235484635512
400,648.7339759053721
401,648.7445094825039
402,648.7550613330804
403,648.7655458494877
404,648.7758800023398
405,648.7859836519573
406,648.7957798445998
407,648.8051950898812
408,648.8141596154471
409,648.8226075953419
410,648.8304773495155
411,648.837711513585
412,648.844257180059
413,648.8500660141108
414,648.8550943478886
415,648.8593032570901
416,648.862658622481
417,648.865131177612
418,648.8666965423796
419,648.8673352405965
420,648.8670326989028
421,648.8657792242585
422,648.863569957442
423,648.8604048000097
424,648.8562883121871
425,648.8512295795049
426,648.8452420468801
427,648.8383433199812
428,648.830554934568
429,648.8219020945265
430,648.8124133786396
431,648.8021204155432
432,648.7910575267481
433,648.7792613393862
434,648.7667703728804
435,648.7536246059304
436,648.739865031201
437,648.7255332048811
438,648.7106707976561
439,648.6953191535189
440,648.6795188632706
441,648.663309359601
442,648.6467285397314
443,648.6298124202176
444,648.6125948274965
445,648.5951071273157
446,648.577377996075
447,648.5594332371392
448,648.5412956453827
449,648.5229849234901
450,648.5045176534585
451,648.485907326171
452,648.4671644311787
453,648.4482966082101
454,648.4293088610151
455,648.4102038325807
456,648.3909821387108
457,648.3716427547281
458,648.3521834475927
459,648.3326012433384
460,648.3128929183541
461,648.2930555035487
462,648.2730867927281
463,648.2529858493765
464,648.2327535079434
465,648.2123928658395
466,648.191909760952
467,648.1713132276539
468,648.1506159230145
469,648.1298345148299
470,648.1089900243859
471,648.0881081190028
472,648.0672193513591
473,648.0463593435163
474,648.0255689137676
475,648.0048941451362
476,647.9843863963445
477,647.9641022585963
478,647.9441034630476
479,647.9244567437839
480,647.9052336601078
481,647.8865103806667
482,647.8683674304527
483,647.8508893999658
484,647.8341646146126
485,647.8182847625674
486,647.8033444806663
487,647.7894408993455
488,647.7766731485416
489,647.7651418272401
490,647.754948440447
491,647.7461948084821
492,647.7389824539574
493,647.7334119712914
494,647.7295823824875
495,647.72759048206
496,647.7275301741605
497,647.7294918061289
498,647.7335615040037
499,647.7398205160376
500,647.7483445697944
501,647.7592032474342
502,647.7724593827878
503,647.7881684828947
504,647.806378175924
505,647.8271276870474
506,647.8504473443056
507,647.8763581181483
508,647.9048712008503
509,647.9359876342412
510,647.9696979950056
511,648.0059821462286
512,648.0448090627442
513,648.0861367365209
514,648.1299121665083
515,648.176071434967
516,648.2245398697981
517,648.2752322904348
518,648.328053333737
519,648.3828978560756
520,648.4396514082138
521,648.4981907804123
522,648.5583846159624
523,648.6200940914971
524,648.6831736614812
525,648.747471862261
526,648.8128321688476
527,648.879093896085
528,648.9460931351424
529,649.0136637159278
530,649.0816381857624
531,649.1498487944261
532,649.218128475571
533,649.2863118149486
534,649.3542359972625
535,649.4217417253537
536,649.4886741070486
537,649.5548835060466
538,649.6202263538461
539,649.6845659199413
540,649.7477730372408
541,649.8097267790155
542,649.8703150830759
543,649.9294353185896
544,649.9869947911264
545,650.0429111822629
546,650.0971129212963
547,650.1495394878364
548,650.2001416448499
549,650.248881602153
550,650.2957331103452
551,650.3406814846787
552,650.3837235576574
553,650.4248675589307
554,650.4641329216876
555,650.5015500160255
556,650.5371598112625
557,650.5710134707
558,650.6031718840001
559,650.633705143818
560,650.662691973801
561,650.6902191141331
562,650.7163806691282
563,650.7412774201629
564,650.7650161070418
565,650.7877086811386
566,650.809471533732
567,650.8304247030832
568,650.8506910645901
569,650.8703955096729
570,650.8896641200639
571,650.9086233442297
572,650.927399181863
573,650.9461163815147
574,650.9648976563893
575,650.983862924409
576,651.0031285800899
577,651.0228068066034
578,651.0430049364625
579,651.063824869041
580,651.0853625526195
581,651.1077075376422
582,651.130942606381
583,651.155143482176
584,651.1803786189864
585,651.2067090699401
586,651.2341884326664
587,651.2628628689341
588,651.2927711953104
589,651.3239450399428
590,651.3564090588234
591,651.3901812035756
592,651.4252730318963
593,651.4616900513096
594,651.4994320872606
595,651.5384936679046
596,651.5788644194866
597,651.6205294669738
598,651.6634698344336
599,651.7076628390894
600,651.7530824724261
601,651.7996997612679
602,651.8474831015491
603,651.89639855792
604,651.9464101236014
605,651.9974799366115
606,652.0495684499759
607,652.1026345545968
608,652.1566356543967
609,652.211527694432
610,652.267265144042
611,652.3238009388427
612,652.3810863871671
613,652.439071047843
614,652.4977025868926
615,652.5569266213337
616,652.6166865589682
617,652.67692344344
618,652.7375758136383
619,652.798579585841
620,652.8598679660829
621,652.9213713995152
622,652.9830175634058
623,653.0447314105808
624,653.1064352696787
625,653.1680490071386
626,653.2294902537201
627,653.2906746962383
628,653.3515164334498
629,653.4119283936901
630,653.471822810718
631,653.5311117528853
632,653.5897076990447
633,653.6475241529156
634,653.7044762866332
635,653.7604816040106
636,653.8154606140547
637,653.8693375046009
638,653.9220408042736
639,653.9735040189355
640,654.0236662274647
641,654.0724726217226
642,654.1198749767402
643,654.1658320388218
644,654.2103098210579
645,654.253281797653
646,654.2947289905976
647,654.3346399445486
648,654.3730105882929
649,654.4098439839861
650,654.4451499688143
651,654.4789446978058
652,654.5112501004195
653,654.5420932660486
654,654.5715057741212
655,654.599522983759
656,654.6261832971857
657,654.6515274108209
658,654.6755975679639
659,654.6984368269028
660,654.7200883581871
661,654.7405947844036
662,654.7599975744882
663,654.7783365019931
664,654.7956491729695
665,654.8119706248574
666,654.8273329939382
667,654.8417652465412
668,654.8552929686872
669,654.8679382097049
670,654.8797193766015
671,654.8906511768241
672,654.9007446070564
673,654.9100069847605
674,654.9184420178353
675,654.9260499067641
676,654.932827473291
677,654.9387683100462
678,654.9438629467747
679,654.9480990307858
680,654.951461521196
681,654.953932897702
682,654.9554933848495
683,654.9561211924381
684,654.9557927721621
685,654.954483090116
686,654.9521659145478
687,654.9488141182106
688,654.944399994551
689,654.9388955865522
690,654.9322730263846
691,654.9245048834299
692,654.9155645179808
693,654.9054264378533
694,654.8940666550152
695,654.8814630389502
696,654.8675956629447
697,654.8524471389969
698,654.8360029368921
699,654.8182516835479
700,654.799185440148
701,654.7787999563478
702,654.757094902112
703,654.734074078234
704,654.7097456068242
705,654.6841221037525
706,654.6572208363945
707,654.6290638714828
708,654.599678218553
709,654.5690959739421
710,654.5373544685809
711,654.5044964202723
712,654.4705700884336
713,654.4356294270997
714,654.3997342307418
715,654.3629502671098
716,654.3253493915031
717,654.2870096372923
718,654.2480152780164
719,654.2084568569865
720,654.1684311808624
721,654.1280412741603
722,654.0873962924242
723,654.0466113928792
724,654.0058075620756
725,653.9651113999616
726,653.9246548596226
727,653.8845749422707
728,653.8450133477011
729,653.8061160804242
730,653.7680330106222
731,653.7309173874727
732,653.6949253012837
733,653.6602150910444
734,653.6269466954982
735,653.5952809483005
736,653.5653788207824
737,653.537400618847
738,653.5115051429916
739,653.4878488219159
740,653.4665848307438
741,653.4478622050674
742,653.4318249619239
743,653.4186112381035
744,653.4083524546871
745,653.4011725147478
746,653.3971870392148
747,653.3965026442354
748,653.3992162621167
749,653.4054145073986
750,653.4151730901095
751,653.4285562796484
752,653.4456164242455
753,653.4663935316051
754,653.4909149157122
755,653.5191949135829
756,653.5512346751412
757,653.587022029651
758,653.6265314324456
759,653.6697239954109
760,653.7165476038585
761,653.7669371212838
762,653.8208146819564
763,653.8780900694276
764,653.9386611773257
765,654.0024145476899
766,654.0692259812937
767,654.1389612132524
768,654.2114766455505
769,654.2866201268491
770,654.3642317700584
771,654.4441447995496
772,654.5261864212089
773,654.6101787086619
774,654.6959394980005
775,654.7832832821986
776,654.8720220959391
777,654.9619663819503
778,655.0529258305927
779,655.144710184598
780,655.2371300006653
781,655.3299973601876
782,655.423126523309
783,655.5163345228972
784,655.6094416966941
785,655.7022721566929
786,655.7946541951941
787,655.886420627525
788,655.9774090723398
789,656.0674621717558
790,656.1564277548334
791,656.2441589485358
792,656.3305142402387
793,656.4153574954111
794,656.4985579334149
795,656.5799900635844
796,656.6595335832592
797,656.7370732397552
798,656.8124986593302
799,656.8857041476169
800,656.9565884675038
801,657.0250546019474
802,657.0910095103943
803,657.1543638877646
804,657.2150319338823
805,657.2729311392153
806,657.3279820908249
807,657.3801083014404
808,657.4292360647945
809,657.4752943412843
810,657.5182146788975
811,657.5579311745917
812,657.5943804805293
813,657.6275018577842
814,657.6572372781218
815,657.6835315730299
816,657.7063326281366
817,657.7255916197481
818,657.7412632886811
819,657.7533062458762
820,657.7616833048412
821,657.7663618368839
822,657.7673141451191
823,657.7645178521299
824,657.7579562949026
825,657.7476189202014
826,657.7335016737561
827,657.7156073768383
828,657.6939460836543
829,657.6685354126572
830,657.6394008447829
831,657.6065759821694
832,657.570102762254
833,657.5300316238818
834,657.4864216235642
835,657.4393405010144
836,657.3888646939156
837,657.3350793031384
838,657.2780780113294
839,657.2179629593496
840,657.1548445857811
841,657.088841434417
842,657.0200799334312
843,656.9486941481529
844,656.874825507534
845,656.7986225031798
846,656.7202403595459
847,656.6398406742974
848,656.5575910281449
849,656.473664563459
850,656.3882395309857
851,656.3014988043697
852,656.213629362864
853,656.1248217433562
854,656.0352694634465
855,655.9451684174923
856,655.8547162472549
857,655.7641116886493
858,655.6735538966963
859,655.5832417521259
860,655.4933731546894
861,655.4041443097437
862,655.3157490158777
863,655.2283779618746
864,655.1422180408127
865,655.0574516876819
866,654.974256245019
867,654.8928033592584
868,654.813258409306
869,654.7357799686827
870,654.6605193033246
871,654.5876199082991
872,654.5172170878658
873,654.4494375840537
874,654.3843992589817
875,654.3222108354488
876,654.2629716989553
877,654.2067717624661
878,654.1536913932281
879,654.1038013991924
880,654.0571630713553
881,654.0138282777826
882,653.9738396053128
883,653.9372305458381
884,653.90402572532
885,653.8742411748322
886,653.8478846436743
887,653.8249559550553
888,653.8054474051119
889,653.7893442059305
890,653.776624972542
891,653.767262252553
892,653.7612230953387
893,653.7584696557379
894,653.758959825476
895,653.762647884868
896,653.7694851681395
897,653.7794207372422
898,653.7924020602276
899,653.8083756904215
900,653.8272879417669
901,653.849085553963
902,653.8737163388859
903,653.9011297981018
904,653.9312777008599
905,653.9641146127789
906,653.999598366817
907,654.0376904695071
908,654.0783564368494
909,654.1215660557183
910,654.1672935678868
911,654.2155177748064
912,654.2662220624741
913,654.3193943472661
914,654.3750269452203
915,654.4331163686047
916,654.493663054697
917,654.5566710325357
918,654.6221475340077
