acceleration,velocity,displacement
0.09936557754433557,0.0,0.0
0.08816166481975798,9.376362118204679e-05,4.6881810591023395e-08
0.07733388426251217,0.0001765113957231819,1.8201931904363774e-07
0.06722240526214705,0.0002487895404855115,3.9466978714798443e-07
0.058100889932413816,0.00031145118808279193,6.747901514321361e-07
0.050155414873047775,0.00036557934048552274,1.0133054157162934e-06
0.04347486020359345,0.00041239447802384334,1.4022923249709765e-06
0.038052790664449936,0.000453158303457865,1.8350687157118307e-06
0.03379926856958433,0.0004890843330748821,2.3061900339782043e-06
0.030559854204489544,0.000521263894461919,2.811364147746605e-06
0.028138349386677,0.0005506129962575023,3.3473025931063154e-06
0.026319855153389533,0.0005778420985275356,3.911530140498834e-06
0.02489147598492628,0.0006034477640966935,4.502175071810948e-06
0.02365911047397425,0.0006277230573261438,5.117760482522367e-06
0.022459641464352864,0.0006507824332953073,5.757013227833092e-06
0.02116820473560578,0.0006725963563952867,6.418702622678389e-06
0.019700372962260307,0.0006930306452442197,7.1015161234981424e-06
0.01800957559640528,0.0007118856195235525,7.803974255882029e-06
0.01608097529809498,0.0007289308949708026,8.524382513129207e-06
0.01392381817589883,0.0007439332917077995,9.260814606468508e-06
0.011564369893694911,0.0007566773857425964,1.0011119945193707e-05
0.009040800706992902,0.0007669799710429403,1.0772948623586475e-05
0.006400205622150274,0.0007747004742075118,1.1543788846211701e-05
0.0036969963456306384,0.0007797490751914023,1.2321013620911158e-05
0.0009915764063626008,0.0007820933615673989,1.3101934839290558e-05
-0.0016515974129025978,0.0007817633510641289,1.3883863195606323e-05
-0.004167125585723561,0.0007788539895648159,1.4664171865920796e-05
-0.006493185551922419,0.0007735238339959928,1.54403607777012e-05
-0.008577251085085879,0.0007659886156774887,1.621011700253794e-05
-0.010382234135475264,0.0007565088730672081,1.6971365746910288e-05
-0.011891952069290425,0.0007453717799648252,1.7722306073426306e-05
-0.0131149447624814,0.0007328683315489394,1.8461426129183187e-05
-0.014085952100429748,0.0007192678831174838,1.91874942365164e-05
-0.014864622487406245,0.0007047925958235657,1.9899524475986923e-05
-0.015531430910507656,0.0006895945691246087,2.059671805846101e-05
-0.01618135265497697,0.0006737381773418665,2.1278384431694247e-05
-0.016916202121727918,0.000657189399953514,2.1943848220341936e-05
-0.017836478676769064,0.0006398130595542655,2.2592349450095827e-05
-0.01903327537160183,0.00062137818253008,2.3222945071138e-05
-0.020580646158698056,0.0006015712217649301,2.3834419773285504e-05
-0.022528929008032595,0.0005800164341815648,2.442521360125875e-05
-0.02489978924341506,0.0005563020750558409,2.4993372855877456e-05
-0.027683931963147033,0.0005300102144525599,2.5536529000631657e-05
-0.030842224473252623,0.0005007471362343601,2.6051907675975117e-05
-0.03431024951516727,0.0004681708992401502,2.6536366693712373e-05
-0.03800539268648169,0.0004320130781393257,2.698645868240211e-05
-0.041835005588418274,0.0003920928790018757,2.7398511660972713e-05
-0.04570427678122923,0.00034832323781705196,2.7768719719382178e-05
-0.04952299449180043,0.0003007096021805371,2.809323613938097e-05
-0.05321090886758639,0.00024934265050084373,2.8368262265721662e-05
-0.05670154163894073,0.00019438642524758016,2.8590126803595875e-05
-0.059944170546941074,0.00013606356915463926,2.8755351800796985e-05
-0.06290378226969845,7.46395927463195e-05,2.8860703381747464e-05
-0.06555927078286528,1.0408066220037645e-05,2.8903227211230642e-05
-0.06790079477862507,-5.6321966560707535e-05,2.8880270261060308e-05
-0.06992750769785622,-0.00012523611779894817,2.878949121888048e-05
-0.07164658664282031,-0.00019602316496928642,2.8628861577496363e-05
-0.07307381964762483,-0.000268383368114509,2.8396658310954466e-05
-0.0742353864954532,-0.00034203797118604804,2.8091447641304188e-05
-0.075170079799399,-0.00041674070433347416,2.7712058303544428e-05
-0.07593097778596344,-0.0004922912331261554,2.7257542334814614e-05
-0.0765855446054106,-0.0005685494943218424,2.6727121971090614e-05
-0.07721357145112748,-0.0006454490523501114,2.6120122697754637e-05
-0.07790323367800879,-0.0007230074549146796,2.5435894444122243e-05
-0.07874618113050666,-0.0008013321623189373,2.4673724635505435e-05
-0.07983245454273948,-0.0008806214801555604,2.3832747814268186e-05
-0.08124537920816098,-0.0009611603970310107,2.2911856875674902e-05
-0.08305613926329498,-0.0010433111562667386,2.1909621099026027e-05
-0.08531787130486544,-0.0011274981615508187,2.082421644011725e-05
-0.08805965630037493,-0.001214186925353439,1.965337389666512e-05
-0.09128130930162284,-0.0013038574081544378,1.839435172991118e-05
-0.09495008556416379,-0.0013969731055873311,1.7043936473040298e-05
-0.09900030802905575,-0.001493948302383941,1.5598475769054662e-05
-0.10333655158917955,-0.0015951167321930585,1.4053943251766163e-05
-0.10784046131401072,-0.0017007052386446536,1.2406032266347307e-05
-0.11238060567496193,-0.0018108157721391399,1.065027176095541e-05
-0.11682408126183036,-0.001925418115607536,8.782154817082072e-06
-0.12104806004273683,-0.0020443541862598196,6.797268666148394e-06
-0.12494935110618764,-0.0021673528918342818,4.691415127101344e-06
-0.12845054980562637,-0.002294052842290189,2.4607122600391084e-06
-0.1315023528323785,-0.0024240292936091915,1.0167119208941822e-07
-0.13408259223334126,-0.002556821766142051,-2.388754337786203e-06
-0.13619295467032955,-0.0026919595395938868,-5.0131449906541714e-06
-0.13785420957484862,-0.002828983121716476,-7.773616321309353e-06
-0.13910055234116847,-0.0029674605026744844,-1.0671838133504833e-05
-0.13997370303406628,-0.0031069976303621017,-1.3709067200023126e-05
-0.1405175230481089,-0.0032472432434031894,-1.6886187636905773e-05
-0.1407738508371497,-0.003387888930345819,-2.0203753723780278e-05
-0.14077998576707504,-0.0035286658486479313,-2.3662031113277155e-05
-0.1405678291500212,-0.0036693397561064793,-2.7261033915654358e-05
-0.14016421227057038,-0.003809705776816775,-3.100055668211599e-05
-0.1395916557567104,-0.003949583710830416,-3.4880201425939585e-05
-0.1388689169811346,-0.004088813997199338,-3.889940027995446e-05
-0.13801103855120972,-0.0042272539749655105,-4.3057434266036886e-05
-0.13702888877984673,-0.004364773938631039,-4.735344822283516e-05
-0.13592828241187235,-0.004501252524226899,-5.178646145426413e-05
-0.13470885871954957,-0.0046365710947926094,-5.6355373263773885e-05
-0.13336315472231328,-0.004770607101513541,-6.105896236192696e-05
-0.13187666137564025,-0.004903227009562518,-6.589587941746499e-05
-0.13022975551880558,-0.005034280218009741,-7.086463303125112e-05
-0.1284019974515273,-0.005163596094494907,-7.596357118750344e-05
-0.12637846403436517,-0.005290986325237853,-8.119086239736983e-05
-0.12415690581797627,-0.005416254010164024,-8.654448256507077e-05
-0.12175393568910586,-0.005539209430917565,-9.202221428561156e-05
-0.11920843873464046,-0.0056596906181294385,-9.762166431013506e-05
-0.11658101506116286,-0.00577758534502734,-0.00010334030229171345
-0.11394928305611646,-0.005892850494085979,-0.00010917552021127011
-0.11139985433005142,-0.0060055250627790635,-0.00011512470798970264
-0.1090184765592696,-0.006115734228223724,-0.00012118533763520403
-0.1068801643790404,-0.006223683548692879,-0.00012735504652366234
-0.10504103562301009,-0.006329644148693904,-0.00013363171037235574
-0.10353296437684648,-0.006433931148693833,-0.00014001349802104961
-0.10236122993996243,-0.006536878245852237,-0.00014649890271832265
-0.10150459340823983,-0.006638811157526339,-0.00015308674742001193
-0.10091711839113131,-0.006740022013426024,-0.0001597761640054881
-0.10053151226360145,-0.006840746328753391,-0.0001665665481765778
-0.10026432194302186,-0.006941144245856703,-0.00017345749346388284
-0.10002348125216826,-0.007041288147454298,-0.00018044870966053833
-0.09971823687230337,-0.007141159006516533,-0.00018753993323752374
-0.0992705012541891,-0.00724065337557978,-0.0001947308394285719
-0.09862565136965394,-0.007339601451891701,-0.00020202096684230765
-0.09776027462887513,-0.007437794414890966,-0.00020940966477569898
-0.09668476019546426,-0.007535016932303136,-0.00021689607044929603
-0.09543994724270388,-0.0076310792860222205,-0.0002244791185584587
-0.09408869611634603,-0.007725843607701745,-0.0002321575800053207
-0.09270437562142306,-0.00781924014357063,-0.00023993012188095687
-0.09135844539405644,-0.00791127155407837,-0.00024779537772978135
-0.09010893886224955,-0.008002005246206522,-0.0002557520161299238
-0.08899131030407717,-0.008091555370789686,-0.0002637987964384219
-0.08801286641273762,-0.008180057459148094,-0.00027193460285339084
-0.08715153097034453,-0.008267639657839635,-0.00028015845141188473
-0.08635889802911022,-0.008354394872339363,-0.00028846946867697426
-0.08556668167694906,-0.008440357662192394,-0.00029686684494424013
-0.08469508239330524,-0.00852548854422752,-0.0003053497680474501
-0.08366149843034167,-0.008609666834639344,-0.0003139173457368835
-0.08238851351824358,-0.008692691840613637,-0.00032256852507451
-0.08081091658977509,-0.008774291555667646,-0.0003313020167726506
-0.07888207134010705,-0.008854138049632587,-0.0003401162315753007
-0.07657985415859137,-0.008931869012381936,-0.00034900923510630796
-0.07391172935814573,-0.009007114804140305,-0.0003579787270145691
-0.07091782247511048,-0.009079529580056932,-0.0003670220492066677
-0.06767063133607114,-0.009148823806962523,-0.0003761362259001774
-0.06427052477480326,-0.00921479438501796,-0.00038531803499616764
-0.0608371844301255,-0.009277348239620425,-0.00039456410630848683
-0.0574981518751368,-0.009336515907773056,-0.0004038710383821836
-0.05437626617825372,-0.009392453116799752,-0.00041323552289447
-0.051577878987591946,-0.009445430189382676,-0.0004226544645475612
-0.04918337250555542,-0.00949581081512925,-0.0004321250850498171
-0.04724085558056891,-0.009544022929172311,-0.0004416450019219679
-0.04576321955683366,-0.009590524966741013,-0.00045121227586992455
-0.044728231057187255,-0.009635770692048023,-0.00046082542369931906
-0.044081118984636174,-0.009680175367068935,-0.00047048339672887756
-0.04373912385031588,-0.009724085488486411,-0.00048018552715665524
-0.04359761773126902,-0.009767753859277204,-0.0004899314468305371
-0.04353756172501266,-0.009811321449005345,-0.0004997209844846784
-0.04343413195003951,-0.009854807295842871,-0.0005095540488571025
-0.043166243937141906,-0.009898107483786462,-0.0005194305062469171
-0.04262643418987022,-0.009941003822849967,-0.0005293500619002353
-0.04173024324625756,-0.009983182161568032,-0.0005393121548924443
-0.04042410853920591,-0.010024259337460763,-0.0005493158756419587
-0.03869085396444228,-0.010063816818712587,-0.0005593599137200453
-0.03655199538460046,-0.010101438243387108,-0.0005694425412510951
-0.03406630488566647,-0.010136747393522242,-0.0005795616340695498
-0.03132461384720162,-0.010169442852888677,-0.0005897147291927553
-0.028441611378773518,-0.010199325965501665,-0.0005998991136019504
-0.025545950899047955,-0.010226319746640575,-0.0006101119364580216
-0.02276992549188037,-0.01025047768483604,-0.0006203503351737599
-0.020239425658099216,-0.01027198236041103,-0.0006306115651963835
-0.018064401610747755,-0.010291134274045453,-0.0006408931235136118
-0.01633007693049313,-0.010308331513316074,-0.0006511928564072925
-0.01508966328606863,-0.010324041383424356,-0.0006615090428556627
-0.014359842642459434,-0.01033876613638862,-0.0006718404466155692
-0.014120279271423779,-0.010353006197345561,-0.0006821863327824364
-0.01431769894271322,-0.01036722518645263,-0.0006925464484743354
-0.014873938439133262,-0.010381821005143553,-0.0007029209715701335
-0.015696381761270094,-0.010397106165243756,-0.0007133104351553271
-0.016688769231144148,-0.010413298740739964,-0.000723715637608319
-0.01776060803558075,-0.010430523429373326,-0.0007341375486933756
-0.01883415196633156,-0.010448820809374282,-0.0007445772208127494
-0.019848745280800252,-0.010468162257997848,-0.0007550357123464355
-0.02076283534856146,-0.010488468048312528,-0.0007655140274995906
-0.021554033243268694,-0.010509626482608444,-0.0007760130747650511
-0.02221742789610507,-0.010531512213178131,-0.0007865336441129444
-0.02276222525010561,-0.010554002039751237,-0.0007970764012394091
-0.023206920086085894,-0.010576986612419332,-0.0008076418955654944
-0.023573669454228282,-0.01060037690718949,-0.0008182305773252988
-0.02388306849209144,-0.01062410527616265,-0.0008288428184169748
-0.024150682962912604,-0.010648122151890153,-0.0008394789321310012
-0.024386213936966945,-0.010672390600340092,-0.0008501391885071164
-0.024595222585614654,-0.010696881318601383,-0.000860823824466587
-0.024782354400913486,-0.010721570107094647,-0.0008715330501794351
-0.024954402348857617,-0.010746438485469533,-0.0008822670544757172
-0.025121643031719244,-0.010771476508159822,-0.0008930260119725319
-0.025296738261828638,-0.010796685698806596,-0.0009038100930760151
-0.02549176463716269,-0.010822079950256093,-0.0009146194759005465
-0.025714903520233947,-0.01084768328433479,-0.000925454357517842
-0.025968389321638613,-0.010873524930755727,-0.0009363149616253872
-0.02624844538816461,-0.010899633348110628,-0.0009472015407648205
-0.026546737324122018,-0.010926030939466772,-0.0009581143729086092
-0.02685214309110138,-0.010952730379674383,-0.0009690537535681797
-0.027151735528372304,-0.01097973231898412,-0.000980019984917509
-0.027430543968732252,-0.011007023458732671,-0.0009910133628063674
-0.027670455416236483,-0.011034573958425156,-0.0010020341615149463
-0.02784917943847919,-0.011062333775852513,-0.0010130826153820851
-0.02794028674589598,-0.011090228508944701,-0.0010241588965244838
-0.027914895948852027,-0.011118156100292076,-0.0010352630888291023
-0.02774487344793594,-0.01114598598499047,-0.0010463951598717435
-0.027406773414891113,-0.011173561808421884,-0.0010575549337684498
-0.02688542427677774,-0.011200707907267718,-0.0010687420686262947
-0.02617620450072262,-0.011227238721656468,-0.0010799560419407568
-0.025285592605778624,-0.011252969620209718,-0.00109119614611169
-0.024230194324217542,-0.011277727513674717,-0.0011024614946786322
-0.023034803682212352,-0.011301360012677931,-0.0011137510384418084
-0.02173011674366731,-0.011323742472890872,-0.0011250635896845928
-0.020350677321817674,-0.011344782869923613,-0.001136397852356
-0.018933560138829724,-0.011364424988653938,-0.0011477524562852888
-0.017517994755799203,-0.011382650766101253,-0.0011591259941626665
-0.016145500206101265,-0.011399482513582204,-0.0011705170608025083
-0.014859537586679508,-0.011414985032478593,-0.0011819242945755387
-0.013703751112281375,-0.011429266676828073,-0.001193346420430192
-0.012718535727761191,-0.011442477820248095,-0.0012047822926787302
-0.011936397570220606,-0.011454805286897086,-0.0012162309342323028
-0.011376985201630226,-0.01146646197828301,-0.0012276915678648929
-0.011042822647076206,-0.011477671882207365,-0.001239163634795138
-0.010916825585784912,-0.011488651706323795,-0.0012506467965894036
-0.010962536939823183,-0.0114995913875866,-0.0012621409181363587
-0.011127423201036844,-0.01151063636765703,-0.0012736460320139805
-0.011348566628671121,-0.011521874362571884,-0.001285162287379095
-0.011559226679194018,-0.011533328259225817,-0.0012966898886899937
-0.011694636215864227,-0.011544955190673346,-0.0013082290304149433
-0.011696061033702347,-0.011556650539298129,-0.001319779833279929
-0.011513019904208768,-0.011568255079767085,-0.0013313422860894617
-0.011104142306509612,-0.011579563660872445,-0.0013429161954597814
-0.010437428898653907,-0.011590334446475026,-0.0013545011445134552
-0.009490807537880192,-0.011600298564693292,-0.0013660964610190394
-0.008253685224423494,-0.011609170811074444,-0.0013777011957069232
-0.006729528132667469,-0.01161666241775299,-0.001389314112321337
-0.004938644378281986,-0.011622496504008465,-0.0014009336917822177
-0.002919811321415407,-0.011626425731858313,-0.001412558152900151
-0.0007294556290187427,-0.01162825036533353,-0.001424185490948747
0.0015622869288900922,-0.011627833949683595,-0.0014358135331062555
0.003878346010783996,-0.011625113633213757,-0.0014474400068977041
0.00614307715672409,-0.011620102921630003,-0.001459062615175126
0.008290398090042722,-0.01161288618400662,-0.0014706791097279443
0.010269953572752474,-0.011603606008175222,-0.0014822873558240353
0.01205016900161057,-0.01159244594688804,-0.0014938853818015668
0.013617979548176522,-0.011579611872613147,-0.0015054714107113174
0.014975952850527484,-0.011565314906413795,-0.0015170438741008308
0.01613803496731238,-0.011549757912504875,-0.0015286014105102901
0.01712503219895764,-0.011533126378921739,-0.0015401428526560035
0.017960508210236526,-0.011515583608717142,-0.001551667207649823
0.018667501047165667,-0.011497269604088442,-0.0015631736342562258
0.019266394072367358,-0.011478302656528674,-0.0015746614203865344
0.01977408809398887,-0.011458782415445496,-0.0015861299629225214
0.020204210964430473,-0.011438793265916286,-0.0015975787507632024
0.02056776783908986,-0.011418407276514527,-0.0016090073510344179
0.020873666614619275,-0.011397686559287672,-0.001620415397952319
0.021128863908301244,-0.011376685294026212,-0.0016318025838789759
0.02133816395636627,-0.01135545178009388,-0.0016431686524160359
0.021503788313721267,-0.011334030803958835,-0.0016545133937080623
0.021624800417950018,-0.011312466509593,-0.0016658366423648382
0.021696491438189913,-0.01129080586366493,-0.0016771382785514672
0.021709939414050354,-0.011269102648238811,-0.001688418232807419
0.02165201543718015,-0.011247421670813195,-0.001699676494966945
0.021506038934908926,-0.011225842643627151,-0.0017109131271241652
0.02125314133040084,-0.011204463053494497,-0.001722128279972726
0.020874317770388458,-0.011183399323944103,-0.0017333222111614453
0.020353163447079162,-0.01116278558333537,-0.001744495303615085
0.01967928047432592,-0.011142769361374667,-0.0017556480810874402
0.01885211826188113,-0.011123503662006562,-0.0017667812175991308
0.01788447669351992,-0.011105135364528862,-0.0017778955371123984
0.01680428810381162,-0.011087790982130197,-0.001788992000285728
0.01565322182930591,-0.011071562227163639,-0.0018000716768903748
0.014481558886726508,-0.011056494836805623,-0.0018111357054223594
0.013340267195624863,-0.011042583923764447,-0.0018221852448026443
0.012272317782656899,-0.011029777631275306,-0.0018332214255801643
0.011305434449293453,-0.01101798875515933,-0.0018442453087733816
0.010447887739299444,-0.011007112094065033,-0.001855257859197994
0.00968816331106771,-0.01099704406853985,-0.0018662599372792964
0.008998498074505302,-0.010987700737847064,-0.0018772523096824898
0.008341291954391001,-0.010979030842832617,-0.0018882356754728296
0.007676599733470737,-0.010971021896988686,-0.0018992107018427403
0.006968866608939475,-0.01096369916381748,-0.0019101780623731433
0.006191797202553083,-0.010957118831911734,-0.001921138471371008
0.005331101618173236,-0.010951357382501371,-0.0019320927094782145
0.004385323838293829,-0.010946499169773137,-0.0019430416377543517
0.003365059677780834,-0.0109426239780151,-0.0019539861993282458
0.002290918101466006,-0.010939795989125476,-0.001964927409311816
0.0011907077286543066,-0.010938055176210416,-0.0019758663348944843
9.635519368366787e-05,-0.010937411644749248,-0.001986804068304964
-0.0009592490763474956,-0.01093784309169058,-0.001997741695673184
-0.001945754224849583,-0.010939295593341178,-0.0020086802650156996
-0.0028395680091242285,-0.010941688254458164,-0.0020196207569395993
-0.003628572395219752,-0.010944922324660336,-0.0020305640622291584
-0.004316200986191753,-0.010948894711351041,-0.002041510970747164
-0.004923219110629016,-0.010953514421399451,-0.002052462175313539
-0.005485915980768531,-0.010958718988945149,-0.0020634182920187113
-0.006050545639842127,-0.010964487219755454,-0.0020743798951230615
-0.006665119443397408,-0.010970845052297073,-0.002085347561259088
-0.007370460856557943,-0.010977862842447051,-0.00209632191520646
-0.008192504927452073,-0.010985644325339055,-0.002107303668790353
-0.00913723750128505,-0.010994309196553424,-0.0021182936455512993
