frame_number,force
0,512.0610000000247
1,511.7787074527535
2,511.51117535159904
3,511.2719232987338
4,511.0721008928704
5,510.9195779162756
6,510.81835044770924
7,510.7683308702477
8,510.7655370602887
9,510.80263279988674
10,510.8697239807117
11,510.9552982373535
12,511.0472040604608
13,511.1335880231928
14,511.2037378616298
15,511.24880621171604
16,511.26240335162635
17,511.24104014054456
18,511.18438092365176
19,511.0952502348567
20,510.9793448789592
21,510.8446388499382
22,510.7005234709141
23,510.55677907992657
24,510.42250586154194
25,510.305143600195
26,510.2096933706514
27,510.1382312067697
28,510.08978004709047
29,510.0605749945852
30,510.04470419714715
31,510.0350345091738
32,510.0242647464803
33,510.00592074810015
34,509.97512586778413
35,509.92903946139734
36,509.8669359783274
37,509.78997390644656
38,509.70075786115365
39,509.60282039340075
40,509.50013656940826
41,509.3967353307849
42,509.2964128172294
43,509.20252067276624
44,509.1178055922043
45,509.0442893633877
46,508.9831798156121
47,508.93480162956826
48,508.8985490996541
49,508.87288495042714
50,508.8554190039333
51,508.84308753729135
52,508.8324279836033
53,508.8199205548999
54,508.80235520964527
55,508.7771773754695
56,508.74276906781074
57,508.69863044792163
58,508.6454309051738
59,508.5849017086435
60,508.5195632312763
61,508.4523225940878
62,508.38601910109804
63,508.32301224797135
64,508.2648982526518
65,508.21241434452327
66,508.16555041632085
67,508.1238379684311
68,508.0867350989656
69,508.05399108805716
70,508.0258761986398
71,508.0032106153443
72,507.9872012480378
73,507.979157519727
74,507.9801813280174
75,507.99091296448466
76,508.0113770192936
77,508.0409264302365
78,508.07825091627734
79,508.1214170696274
80,508.1679366197641
81,508.2148857852162
82,508.2590965576494
83,508.2974172809063
84,508.3270172238735
85,508.34569691449656
86,508.352160645225
87,508.34620712982706
88,508.3287978700762
89,508.30197632283324
90,508.2686410455146
91,508.232212496811
92,508.1962553232366
93,508.1641180461969
94,508.13863806771474
95,508.1219395418271
96,508.11532852399716
97,508.1192733330916
98,508.13345956055355
99,508.15692345727876
100,508.1882719033892
101,508.22597362927166
102,508.2686618171451
103,508.31535682123734
104,508.3655329886594
105,508.41901108507614
106,508.47571948227977
107,508.53540435374424
108,508.5973820154659
109,508.6604189161337
110,508.722785878874
111,508.78246613157233
112,508.83744172219593
113,508.88597826894954
114,508.92686041902516
115,508.959557904379
116,508.98431064672377
117,509.0021273184522
118,509.0147029167344
119,509.0242666165598
120,509.0333655909298
121,509.0445850647241
122,509.0602161954027
123,509.0819125830247
124,509.11040201115327
125,509.1453191650921
126,509.1851971273417
127,509.22761866884474
128,509.2695009316551
129,509.3074779532531
130,509.3383465908617
131,509.3595301097266
132,509.3694835067941
133,509.36794530283396
134,509.3559650447707
135,509.33569842549105
136,509.3100253225076
137,509.2820779435385
138,509.25476321406023
139,509.23034580072556
140,509.210142747288
141,509.194366145771
142,509.1821326949849
143,509.17164448884165
144,509.1605348051363
145,509.1463517792266
146,509.12711189202537
147,509.10181151346075
148,509.07077292442744
149,509.0357377426079
150,508.99968666317505
151,508.96642798981503
152,508.9400416473575
153,508.9242871910829
154,508.9220821955669
155,508.9351346188815
156,508.96377825929403
157,509.0070177362031
158,509.062744122837
159,509.128055923193
160,509.19962668916764
161,509.27407994461095
162,509.3483347497963
163,509.4198739203982
164,509.48688815723165
165,509.548273928428
166,509.6034981969089
167,509.6523770065835
168,509.69484291362824
169,509.7307874870279
170,509.76004440133187
171,509.78252404927713
172,509.79844311083843
173,509.8085466483088
174,509.8142178648545
175,509.8174034244478
176,509.8203300115248
177,509.8250456968761
178,509.83288776985046
179,509.84403073891025
180,509.8572605754771
181,509.8700454454786
182,509.8788742201115
183,509.8797635158383
184,509.86881172527933
185,509.8427023016545
186,509.7991100806922
187,509.737007096298
188,509.65687267240037
189,509.5607979806635
190,509.45246369020015
191,509.3369693167448
192,509.22050046675565
193,509.1098376295814
194,509.01174214909474
195,508.93229431033444
196,508.8762859299175
197,508.8467679664174
198,508.8448211959402
199,508.86957008726745
200,508.9184134282592
201,508.98741123950396
202,509.07175726687046
203,509.16628228497484
204,509.2659535141413
205,509.3663323818202
206,509.463930302772
207,509.55639127822263
208,509.6424567558244
209,509.7217334666553
210,509.7943599530399
211,509.86070228684025
212,509.92117347054074
213,509.9761896754003
214,510.02620725559535
215,510.07176153178614
216,510.113447023647
217,510.1518169828341
218,510.18721725796706
219,510.219597768988
220,510.2483663674999
221,510.2723582653724
222,510.28997148532835
223,510.29946225501976
224,510.29933266029064
225,510.28871364151314
226,510.2676635822204
227,510.23735003661227
228,510.2001287008826
229,510.15954880384703
230,510.1202804668856
231,510.087898422789
232,510.0684303247055
233,510.0676365231441
234,510.0901110123676
235,510.13840261710834
236,510.212383775226
237,510.30903214621446
238,510.4226791126742
239,510.5456683467338
240,510.66928793367504
241,510.7848080684794
242,510.8844732566681
243,510.96233731693496
244,511.0148621385347
245,511.0412259564351
246,511.0433210234387
247,511.02546682730923
248,510.9939022008212
249,510.95612558271137
250,510.9201336331918
251,510.893596753589
252,510.883027874731
253,510.8930353205965
254,510.9257704916691
255,510.9806690169072
256,511.05454128965334
257,511.1420018447928
258,511.23615378355777
259,511.3293959953929
260,511.4142182755082
261,511.4838851514454
262,511.53296266227926
263,511.55769325783797
264,511.55625327166086
265,511.5289230820713
266,511.4781653287674
267,511.4085630204705
268,511.3265504441795
269,511.23989640773465
270,511.15696056782286
271,511.08580806245544
272,511.0333088939643
273,511.0043570212337
274,511.0013248296181
275,511.02383267861137
276,511.0688679514273
277,511.13123283092716
278,511.20423977449497
279,511.2805309208203
280,511.3528941958405
281,511.41498014098755
282,511.4618640980266
283,511.49042735184804
284,511.49954520706456
285,511.49007774604434
286,511.4646670135834
287,511.42735709800405
288,511.38307339618603
289,511.3370187573708
290,511.2940574693666
291,511.2581597231551
292,511.23196989182907
293,511.21654123975867
294,511.2112536803917
295,511.21391406384515
296,511.2210335356697
297,511.2282660523049
298,511.2309604184333
299,511.22473911401084
300,511.2060047345574
301,511.1723068831037
302,511.12256071782826
303,511.05715259085736
304,510.97796653335325
305,510.88832193451856
306,510.7927690803432
307,510.6966901665801
308,510.60570689899345
309,510.52496749294534
310,510.45843344928767
311,510.4082939532022
312,510.3746125853767
313,510.35526991119315
314,510.3462135343728
315,510.34197291396526
316,510.3363525180966
317,510.3231948994009
318,510.29710998397866
319,510.2540943217513
320,510.1919954119377
321,510.1107867192016
322,510.0126098296001
323,509.90154555618955
324,509.78311860388476
325,509.66360096770654
326,509.54922422819726
327,509.4454285772495
328,509.35626935820477
329,509.28407006306236
330,509.22935783248795
331,509.1910596319768
332,509.1668931529159
333,509.15386549774274
334,509.1487934447129
335,509.1487729721255
336,509.15154395413805
337,509.1557158618965
338,509.1608437039384
339,509.1673686790867
340,509.1764543700126
341,509.1897456144449
342,509.2090598122175
343,509.23601237384634
344,509.2715965451543
345,509.3157780312205
346,509.3672016032542
347,509.4231112490885
348,509.4795458267766
349,509.53180320823003
350,509.5750965892453
351,509.6052806539242
352,509.61951077830224
353,509.6167119313115
354,509.59776951824705
355,509.56540896177336
356,509.52379859252983
357,509.4779742339199
358,509.43321906642234
359,509.3945222515463
360,509.3661879156825
361,509.35159867348125
362,509.3530898465324
363,509.3718815164435
364,509.4080407744756
365,509.4604844684406
366,509.52705601005925
367,509.6047028415278
368,509.68975355706453
369,509.77826663760084
370,509.8664055469185
371,509.95078439268616
372,510.0287263482957
373,510.0983927900833
374,510.15877372999233
375,510.2095650020957
376,510.25098197009197
377,510.283565409294
378,510.3080174393712
379,510.3250746272956
380,510.3354073870764
381,510.33954149932254
382,510.33781448157634
383,510.3303849685666
384,510.3172985957982
385,510.29858953909854
386,510.27438267458683
387,510.244967849621
388,510.2108401908148
389,510.1727248399901
390,510.13161173962243
391,510.08880380895835
392,510.0459429498712
393,510.00495350039773
394,509.96785502673976
395,509.9364479893732
396,509.91194470296256
397,509.8946613955548
398,509.8838694424389
399,509.8778326393815
400,509.8739842604422
401,509.8691719359779
402,509.85992145735463
403,509.842705028662
404,509.8142154210406
405,509.77164262961486
406,509.7129345191837
407,509.637009894371
408,509.5438922425826
409,509.4347465493146
410,509.311820940385
411,509.1783099272262
412,509.0381642484963
413,508.89587419338756
414,508.75624590099875
415,508.6241723428526
416,508.50438303493144
417,508.40115605163624
418,508.31799687801316
419,508.2573128811259
420,508.2201204462466
421,508.2058228419185
422,508.21211132676456
423,508.2350565948735
424,508.26943173958796
425,508.3092349418799
426,508.3483078124174
427,508.38092345272185
428,508.402250741315
429,508.40865741267794
430,508.3978649409459
431,508.36899598147875
432,508.32254980802503
433,508.2603094336004
434,508.18515572714125
435,508.10076663275925
436,508.0112143019199
437,507.92051752555744
438,507.832232651329
439,507.7491533439856
440,507.6731439451633
441,507.60508863175033
442,507.5449361358555
443,507.49185162045865
444,507.44450402109413
445,507.40148081356176
446,507.3617474339852
447,507.3250081564937
448,507.2918278272591
449,507.26344825816864
450,507.24134150156567
451,507.2266312741341
452,507.2195529525274
453,507.2191126567567
454,507.2230582525464
455,507.22819646961835
456,507.230993989863
457,507.22831609897656
458,507.21811640798205
459,507.1999071059498
460,507.17489778989795
461,507.1457692904956
462,507.116129997261
463,507.0897750611642
464,507.06992272697596
465,507.0586189012571
466,507.0564590262435
467,507.06267826965717
468,507.0755507909458
469,507.09296589833014
470,507.11302938541854
471,507.1345626591566
472,507.15742254886925
473,507.18261430245724
474,507.21219682483877
475,507.24898584545093
476,507.2960707540096
477,507.3561932368289
478,507.4310848825508
479,507.5208956135977
480,507.6238380637246
481,507.73613000880124
482,507.8522608413397
483,507.9655529305723
484,508.06894327933287
485,508.15588523105276
486,508.2212624908963
487,508.2622059137038
488,508.2787038153781
489,508.2739092885299
490,508.25407972380196
491,508.2281247988735
492,508.2067798724491
493,508.2014713535497
494,508.22300639011985
495,508.28027604674537
496,508.37917217619764
497,508.52187416672064
498,508.706582141667
499,508.9276879539825
500,509.1763129060301
501,509.4411154299448
502,509.70927666825844
503,509.9675876842197
504,510.2035658765295
505,510.40650984111767
506,510.568379694874
507,510.6843950037402
508,510.7532837363738
509,510.77717142845745
510,510.76114424774835
511,510.7125470734544
512,510.64010116671324
513,510.5529560680622
514,510.45981328055063
515,510.36824713197234
516,510.2842956074994
517,510.21232845242383
518,510.1551504992469
519,510.1142702236098
520,510.09025110766095
521,510.08307033437836
522,510.0924371759848
523,510.11804982969977
524,510.15976935473304
525,510.21767421191146
526,510.2919658028933
527,510.38273819864924
528,510.4896782333566
529,510.61178911359843
530,510.74721392469206
531,510.8931855453646
532,511.0460811639342
533,511.2015446220886
534,511.3546567479029
535,511.50015432280856
536,511.6326991443398
537,511.74718085662903
538,511.83902113031394
539,511.90444850628654
540,511.940725734905
541,511.9463170812279
542,511.92098179489363
543,511.8657895934768
544,511.78307781549836
545,511.6763815735524
546,511.55034581187374
547,511.41058884002535
548,511.2634696690596
549,511.11573453271353
550,510.97406395038286
551,510.84457782911323
552,510.73236686200795
553,510.6411161219949
554,510.57288077543325
555,510.52804811061
556,510.50546844294706
557,510.5026962274062
558,510.5162868866294
559,510.54212676283447
560,510.57579200025833
561,510.6129257232249
562,510.649605790547
563,510.68265944367624
564,510.70987572514207
565,510.7300816640668
566,510.7430798686313
567,510.7494739525039
568,510.7504203040532
569,510.74734312514676
570,510.74164592783
571,510.7344536839876
572,510.7264206174512
573,510.7176278656645
574,510.70757170412776
575,510.6952251714145
576,510.679165113272
577,510.65778359889583
578,510.62960527984325
579,510.5936852961917
580,510.5499976701502
581,510.49970172236925
582,510.4452153203978
583,510.3900893163937
584,510.33871438415963
585,510.2958879460388
586,510.26625784701713
587,510.25367929645296
588,510.2605739267218
589,510.2874220220571
590,510.3325059767601
591,510.391953187413
592,510.4600438480152
593,510.5297068647419
594,510.59314213991996
595,510.64254394068655
596,510.6709080783429
597,510.6728710939817
598,510.64547726569106
599,510.58873237047226
600,510.50580558607953
601,510.40279255188267
602,510.2880414151077
603,510.1711390652038
604,510.06172980142117
605,509.96837722945037
606,509.8976648051268
607,509.8536557482147
608,509.83773149592
609,509.8487481913158
610,509.88341013300703
611,509.9367441759864
612,510.0025660838291
613,510.0738705928974
614,510.1431427666486
615,510.2026396853132
616,510.2446981994942
617,510.2620972880845
618,510.2484737962026
619,510.1987699049446
620,510.1096706048636
621,509.9799693643177
622,509.81079699387726
623,509.60567111994334
624,509.370356299875
625,509.11254914792454
626,508.84141988234194
627,508.56705909571707
628,508.2998886100588
629,508.0500834240363
630,507.82702048130966
631,507.63874271599894
632,507.4914295862328
633,507.38890485583505
634,507.332264172022
635,507.3197240955149
636,507.3467552736695
637,507.4064906413577
638,507.49034425658175
639,507.58875792994723
640,507.69199543372343
641,507.7909101414389
642,507.877619688902
643,507.9460341493708
644,507.9921990827074
645,508.0144261404245
646,508.01319684725587
647,507.9908523687399
648,507.95112324770804
649,507.89858874906867
650,507.8381642104263
651,507.77469076741085
652,507.71265689188334
653,507.6560368461177
654,507.60820591211666
655,507.57188931392784
656,507.5491097686605
657,507.54111052315864
658,507.5482543656319
659,507.5699360316879
660,507.6045718545923
661,507.64972069559326
662,507.7023474819942
663,507.75918809905124
664,507.81713278459836
665,507.8735326585773
666,507.9263618296373
667,507.974222297053
668,508.0162265046702
669,508.0518101913
670,508.0805230880845
671,508.10183801668904
672,508.11502107334246
673,508.1191082807675
674,508.1130181062663
675,508.09578806261237
676,508.06687874857136
677,508.02647206864805
678,507.9757083659369
679,507.9168330227409
680,507.85323019820686
681,507.78931344941924
682,507.7302454275452
683,507.6814904167318
684,507.6482590628833
685,507.6349550698443
686,507.6447415265586
687,507.6792961646541
688,507.7387515318788
689,507.8217697685802
690,507.92570503776
691,508.04683492574145
692,508.1806536388611
693,508.32219931450186
694,508.46635880288716
695,508.60808883379536
696,508.7425214944093
697,508.8649695805896
698,508.97089356631324
699,509.0559185291065
700,509.1159811012578
701,509.1476404515951
702,509.148523514434
703,509.11782649849533
704,509.05677836268217
705,508.96897469939927
706,508.86049824158505
707,508.7397623131974
708,508.61705578315264
709,508.5038209657966
710,508.41173752128464
711,508.351706753136
712,508.33283901615573
713,508.36155293086796
714,508.4408994151074
715,508.57021320337304
716,508.7451552176808
717,508.95814204813365
718,509.19908448917215
719,509.4563052456139
720,509.71749826123136
721,509.9706272516491
722,510.20471281622696
723,510.41049244971697
724,510.5809404515671
725,510.71161906231936
726,510.800827151115
727,510.8495344770545
728,510.86112467986567
729,510.8409908368538
730,510.79602217141263
731,510.73400308262177
732,510.6629378064234
733,510.5903305614132
734,510.52249148363904
735,510.4639794048567
736,510.41729807838186
737,510.38291575158644
738,510.3595967494773
739,510.3449575785674
740,510.3361213270416
741,510.33034463703444
742,510.3255110199248
743,510.32041187615835
744,510.31477728076493
745,510.30906955413855
746,510.30409622361077
747,510.30052506619546
748,510.29840059485775
749,510.2967742296143
750,510.29355525381294
751,510.2856465404556
752,510.2693478491578
753,510.24092149269495
754,510.1971700745113
755,510.1359023120642
756,510.056235617012
757,509.958745909903
758,509.8454909488477
759,509.7199129193264
760,509.58660423468416
761,509.45092850480825
762,509.31852800737596
763,509.194788234822
764,509.084340345885
765,508.9906662289061
766,508.9158438707584
767,508.86044303276185
768,508.8235648650021
769,508.8030184077818
770,508.7956269308417
771,508.797646233468
772,508.80526180709444
773,508.8151152804077
774,508.8247875518684
775,508.83314602719605
776,508.84046929125344
777,508.84830209736276
778,508.85905327035266
779,508.87541057804964
780,508.89969348163135
781,508.9332847828891
782,508.9762709785574
783,509.0273765392804
784,509.08420202630657
785,509.14369159071924
786,509.20269608520334
787,509.2584849066062
788,509.30909103186514
789,509.353431651811
790,509.39120920378525
791,509.4226507247082
792,509.44818177690047
793,509.4681457685264
794,509.48265657819155
795,509.49161103254414
796,509.4948172240828
797,509.49215821169
798,509.48372267237113
799,509.4698699833897
800,509.45122857798845
801,509.42864325563863
802,509.4030913908126
803,509.3755876114504
804,509.3470974963968
805,509.31847664246874
806,509.2904350517522
807,509.263509940383
808,509.2380322351847
809,509.21409587670814
810,509.1915675953221
811,509.1701827933861
812,509.14974208355784
813,509.13036364935414
814,509.11270130053754
815,509.09804230728633
816,509.0882456451695
817,509.08553363251855
818,509.0921818738097
819,509.1101645988179
820,509.1408165373159
821,509.1845726543493
822,509.24083777116334
823,509.30801124631046
824,509.38364971037885
825,509.46471202638895
826,509.54781521127086
827,509.62944206276387
828,509.7060738759751
829,509.7742662219085
830,509.8307255775942
831,509.8724549807667
832,509.8970059484669
833,509.902818064589
834,509.8895783107348
835,509.85851005636925
836,509.81250920000696
837,509.7560758842306
838,509.69503220334224
839,509.63605140230936
840,509.5860417022281
841,509.55143718249076
842,509.537465396102
843,509.5474862846555
844,509.5825118014577
845,509.6410048867768
846,509.71901632086025
847,509.8106552329591
848,509.90882051475353
849,510.00606678779695
850,510.0954551021375
851,510.1712529089426
852,510.22939529264386
853,510.2676774081441
854,510.2856938385265
855,510.28457321366636
856,510.2665850396179
857,510.2347142720982
858,510.19229000478373
859,510.1427149050361
860,510.0892938651023
861,510.0351286525634
862,509.98303629596774
863,509.93545603528605
864,509.8943270551644
865,509.8609431277755
866,509.83581508439374
867,509.8185872215787
868,509.80804892515795
869,509.8022602751226
870,509.7987843400713
871,509.79499671485087
872,509.7884203923407
873,509.7770140756963
874,509.75934179300725
875,509.73458496281637
876,509.70241946693966
877,509.66284400747685
878,509.6160735360667
879,509.56257707276154
880,509.5032592330975
881,509.43970743080337
882,509.37438852089826
883,509.310685743752
884,509.2527094586444
885,509.20487757030236
886,509.1713235094115
887,509.1552336237561
888,509.1582336655975
889,509.1799385539589
890,509.2177618518143
891,509.26705789895266
892,509.321630394387
893,509.3745730487291
894,509.41932141487484
895,509.4507255311656
896,509.46593049771946
897,509.46488402380675
