frame_number,force
0,510.6588400000349
1,510.38481174326745
2,510.11899375505766
3,509.8687887195333
4,509.6401600770212
5,509.43728003171424
6,509.2624654171034
7,509.11633516299395
8,508.9980857323024
9,508.9057841459877
10,508.83661688338725
11,508.7870844184617
12,508.7531678238341
13,508.73050424988844
14,508.7145967853395
15,508.7010599196331
16,508.68587521681934
17,508.66561758849434
18,508.63762157278717
19,508.60008355000275
20,508.55211644517584
21,508.4937678906941
22,508.4259901325658
23,508.35054186015265
24,508.26982363101524
25,508.1866801605399
26,508.10421596930416
27,508.0256551303262
28,507.9542399074815
29,507.8931283506399
30,507.8452413416802
31,507.8130326800935
32,507.7981969474714
33,507.8013693508956
34,507.8218968936097
35,507.8577618500968
36,507.9057103308126
37,507.9615877880135
38,508.02083211907177
39,508.07904265128565
40,508.1325325675376
41,508.1787814709198
42,508.21673249229946
43,508.2469115719274
44,508.27136660152837
45,508.2934306666229
46,508.3173248076751
47,508.34764065657794
48,508.388768983965
49,508.4443499069987
50,508.5168121668818
51,508.60705097485624
52,508.714273186063
53,508.83601402070343
54,508.9683008422517
55,509.10592034948286
56,509.24275013070564
57,509.3721327676727
58,509.48727880321024
59,509.5816829989119
60,509.6495379583334
61,509.68613034743464
62,509.6882005711076
63,509.65423730071313
64,509.58466987988766
65,509.4819201009173
66,509.35028480074203
67,509.1956425660632
68,509.02500390124527
69,508.8459454314268
70,508.6659843847712
71,508.4919635575258
72,508.32952547677246
73,508.1827451622024
74,508.05395800374833
75,507.9437788182805
76,507.8512857382169
77,507.7743409211366
78,507.71001650584714
79,507.6550756569794
80,507.60643756140524
81,507.5615509096855
82,507.5186199677438
83,507.4766631559399
84,507.43541868464933
85,507.3951316550909
86,507.3562615236458
87,507.3191442785216
88,507.2836397663302
89,507.248805127336
90,507.2126617255316
91,507.17214132115265
92,507.1232807446739
93,507.06168080481086
94,506.98317256362117
95,506.8845670709495
96,506.7643317709885
97,506.62305767418286
98,506.46364390962714
99,506.29119162398933
100,506.11263918827945
101,505.9361907866736
102,505.7706097822108
103,505.62446737511186
104,505.5054374846626
105,505.4196993706531
106,505.3714629073695
107,505.36259619122194
108,505.3923377666409
109,505.45712161060106
110,505.5506023544068
111,505.6639880939332
112,505.7867368631658
113,505.90757210580506
114,506.0156765786846
115,506.1018757850502
116,506.1596314187415
117,506.18571452300137
118,506.18048951287614
119,506.14779678925504
120,506.0944690426109
121,506.0295511655253
122,505.96331207970854
123,505.90614361027787
124,505.8674496457648
125,505.8546416431836
126,505.8723604174607
127,505.9220272301191
128,506.00179112303823
129,506.1068857564398
130,506.2303385587878
131,506.3639064148499
132,506.49907635482344
133,506.6279825410025
134,506.74414281951897
135,506.8429840979552
136,506.92217531970687
137,506.9817975144808
138,507.02435457871934
139,507.054592468415
140,507.07908028578737
141,507.10553445943964
142,507.14193375071267
143,507.1955470969166
144,507.2720356571568
145,507.374772440337
146,507.50446183386623
147,507.65907550879547
148,507.83408203974665
149,508.0229338714051
150,508.2177627623887
151,508.4102125987506
152,508.5923169737757
153,508.75731670341577
154,508.90031032812055
155,509.0186457482781
156,509.1120047721755
157,509.1821997411893
158,509.232763500215
159,509.26843903043306
160,509.2946557074826
161,509.3170346510535
162,509.34092614521677
163,509.370971254092
164,509.41069877570993
165,509.4621959299127
166,509.52590343489203
167,509.60057676224847
168,509.6834337681667
169,509.770484110101
170,509.85701093528536
171,509.93815022738556
172,510.00949159247494
173,510.06761546032817
174,510.11049640987966
175,510.1377390825689
176,510.15064746370706
177,510.15213512160085
178,510.146472826717
179,510.13887335833715
180,510.1349414205998
181,510.1400485467269
182,510.15870887169734
183,510.19403181835736
184,510.2473203948765
185,510.3178687776001
186,510.40298213195416
187,510.49819642274605
188,510.597636392039
189,510.69443932109345
190,510.7811949846742
191,510.8503912253582
192,510.8948822009066
193,510.90838783320146
194,510.88599012107215
195,510.82455404306035
196,510.7230067211608
197,510.58245243207847
198,510.40614620030044
199,510.19937029448414
200,509.9692520030826
201,509.72453206921585
202,509.4752557123317
203,509.2323391806608
204,509.00698381013643
205,508.8099550803903
206,508.65078373795143
207,508.53696402276296
208,508.47323272174197
209,508.46102518319253
210,508.4982128852485
211,508.5792098292745
212,508.69547907475607
213,508.83639244421175
214,508.9903299163072
215,509.14586940804224
216,509.2929108743689
217,509.4235972879029
218,509.53293498937813
219,509.619066329124
220,509.6831977968374
221,509.72922932524875
222,509.76315564392087
223,509.79231397184145
224,509.82454519861204
225,509.8673348962142
226,509.9270089494139
227,510.0080665252303
228,510.11273341825887
229,510.2408082974887
230,510.3898461660828
231,510.5556712126124
232,510.7331399444051
233,510.9170043716254
234,511.102685054193
235,511.28678504659786
236,511.46726083230794
237,511.6432745061327
238,511.8148275745684
239,511.9823010891179
240,512.146019676953
241,512.3059383932767
242,512.4615208338279
243,512.6118313235327
244,512.7558110378527
245,512.8926601719763
246,513.022216830224
247,513.145218918857
248,513.263365095909
249,513.3791494765486
250,513.495510756048
251,513.6153814645693
252,513.7412325475689
253,513.874690976523
254,514.0162826674217
255,514.1653308989805
256,514.3200195958058
257,514.4776065821991
258,514.6347511031682
259,514.787911820043
260,514.9337678875353
261,515.069603703829
262,515.1935860329289
263,515.3048706403722
264,515.4035106361889
265,515.4901889932642
266,515.5658421389643
267,515.6312603918108
268,515.6867420339411
269,515.7318566707545
270,515.7653549341928
271,515.7852469456993
272,515.7890527357999
273,515.774196545369
274,515.7384789412164
275,515.6805337928605
276,515.6001763300821
277,515.4985734051049
278,515.3782066678051
279,515.2426438696724
280,515.0961748991804
281,514.9433935542293
282,514.788800616655
283,514.6364731547188
284,514.4898098202096
285,514.3513398328843
286,514.2225785373466
287,514.1039227915002
288,513.9946021310618
289,513.8927253010085
290,513.7954655496885
291,513.6994010509998
292,513.600982803543
293,513.4970663717069
294,513.3854262058162
295,513.2651651634828
296,513.1369354255689
297,513.0029138681932
298,512.8665327209646
299,512.7320318993337
300,512.6039345232575
301,512.4865407632469
302,512.3835081620257
303,512.2975564890489
304,512.2303050373393
305,512.1822264260819
306,512.1526908327179
307,512.1400731346475
308,512.1418949920494
309,512.154975159985
310,512.1755680104939
311,512.1994874084116
312,512.2222401414439
313,512.2392091130896
314,512.2459087756855
315,512.2382948467396
316,512.2130826178843
317,512.1680331274868
318,512.1021902854014
319,512.0160628964761
320,511.9117317384193
321,511.79284932815716
322,511.66451487034067
323,511.5330358364449
324,511.4056000225277
325,511.2898737827658
326,511.1935346122661
327,511.1237537311997
328,511.0866600534528
329,511.08682472734455
330,511.12680084012516
331,511.20675002715376
332,511.32419904226987
333,511.47398577311213
334,511.64845472466226
335,511.83793453600117
336,512.0314806320421
337,512.2178145714403
338,512.3863547606317
339,512.5282117604786
340,512.6370117353271
341,512.7094213654523
342,512.7452889620945
343,512.7473868263696
344,512.7208159286567
345,512.6721882553978
346,512.6087224007315
347,512.5373793636021
348,512.4641382865833
349,512.3934753836828
350,512.328075506911
351,512.2687842013365
352,512.2147937758357
353,512.1640338620103
354,512.1137000390034
355,512.0608218556495
356,512.0027663571407
357,511.9375953146568
358,511.86422983103796
359,511.78241894841
360,511.69255650985764
361,511.5954286995577
362,511.4919872612973
363,511.38322421431945
364,511.27017383539936
365,511.15400159853635
366,511.03609375429295
367,510.91806476946323
368,510.8016439846026
369,510.68845534297014
370,510.57974394307547
371,510.4761227003119
372,510.3774015940624
373,510.28252017051796
374,510.1895603363707
375,510.09580723777424
376,509.9978507276761
377,509.8917465248906
378,509.7732630929141
379,509.63822848182554
380,509.48296547834457
381,509.3047662918809
382,509.10232306599977
383,508.8760224930861
384,508.6280456294767
385,508.3622706588287
386,508.08402196256344
387,507.7997228028939
388,507.516497174059
389,507.2417490054475
390,506.98273924921267
391,506.7461809887715
392,506.53786677066114
393,506.36233216413365
394,506.2225622009064
395,506.11976710810274
396,506.05327147438067
397,506.02055761637365
398,506.01747709995567
399,506.0386037760509
400,506.0776662157013
401,506.127990339916
402,506.182909268181
403,506.2361304665248
404,506.282059402504
405,506.31606688292027
406,506.33468264440285
407,506.335709763885
408,506.3182632602512
409,506.2827336954665
410,506.23067996824557
411,506.1646708828736
412,506.08810213021917
413,506.00500039404596
414,505.91980370800275
415,505.8370990338902
416,505.7613107028382
417,505.69635808948976
418,505.6453248432466
419,505.61019377892467
420,505.59169328080424
421,505.5892743548991
422,505.6012064006899
423,505.6247623917577
424,505.656468543522
425,505.6924096580215
426,505.7285870679703
427,505.7613105374739
428,505.7875831281999
429,505.805428506621
430,505.81411425306754
431,505.8142354836436
432,505.8076436072983
433,505.7972355016159
434,505.78664090714284
435,505.7798438747115
436,505.780756990182
437,505.79275820368605
438,505.81821118928394
439,505.85801832451386
440,505.911288906035
441,505.9752227064799
442,506.0452861868734
443,506.1156901041522
444,506.1800929160885
445,506.2324030876928
446,506.2675581142481
447,506.28219595182094
448,506.2751653100195
449,506.24782522455195
450,506.2040745658631
451,506.1500597614207
452,506.0935540225314
453,506.0430727518732
454,506.0068557923641
455,505.9918806038952
456,506.00306064035306
457,506.04273736988824
458,506.1105152701642
459,506.20343824270753
460,506.31646582420024
461,506.4431696398698
462,506.5765368815056
463,506.7097550281022
464,506.83687227507073
465,506.9532724382596
466,507.0559486571022
467,507.1435856427863
468,507.21646061197487
469,507.2761679476818
470,507.3251886695179
471,507.36636640308075
472,507.4023919539205
473,507.4354093950472
474,507.46682740247513
475,507.49736259193605
476,507.5272770012557
477,507.55671735255737
478,507.58603667280096
479,507.6159928790087
480,507.6477708137465
481,507.68284035582525
482,507.7227139846935
483,507.76868513831096
484,507.8216158111804
485,507.8818125342752
486,507.9489984539335
487,508.02236377281025
488,508.1006634991594
489,508.1823358659192
490,508.26563099121347
491,508.34874650034214
492,508.4299526565384
493,508.5076716069336
494,508.58048198901696
495,508.6470556318967
496,508.7060745443573
497,508.756196604186
498,508.7961221599147
499,508.8247653122208
500,508.8414792218473
501,508.8462568178317
502,508.8398370686581
503,508.8236756441772
504,508.79977001694965
505,508.77036481467314
506,508.7376075105779
507,508.7032581348303
508,508.66854940690456
509,508.6342391964013
510,508.60082265964616
511,508.5688139878361
512,508.53898787474054
513,508.51248641119577
514,508.4907371944895
515,508.47518425716225
516,508.46689387789576
517,508.4661424764821
518,508.4721029679971
519,508.4827148808497
520,508.49476902314166
521,508.50418520728147
522,508.5064322158288
523,508.4970369737677
524,508.47213717654154
525,508.42902718259455
526,508.36663132158367
527,508.28582850448936
528,508.189555847753
529,508.0826344656265
530,507.97128762890355
531,507.86236620516223
532,507.762360786199
533,507.6763524516881
534,507.6071086780354
535,507.554535674889
536,507.5156333207271
537,507.4849775936494
538,507.4556270733971
539,507.42026466943713
540,507.37235887702076
541,507.30714662192736
542,507.2222855913253
543,507.11809003981693
544,506.99734386957584
545,506.86476459606956
546,506.72625173761264
547,506.58807725293264
548,506.45615994170356
549,506.33551815687764
550,506.22993505200407
551,506.1418239747957
552,506.0722610709148
553,506.02114257355606
554,505.9874080424624
555,505.9692608507841
556,505.9643371108711
557,505.9698165389492
558,505.9825046971299
559,505.99893221010194
560,506.0155151338101
561,506.0288014519235
562,506.0357931597747
563,506.03429464942315
564,506.02321304346634
565,506.0027343298269
566,505.97432223199513
567,505.9405272076395
568,505.90463334990187
569,505.87019793365505
570,505.84055485848876
571,505.81836317317004
572,505.80527556236
573,505.8017758657606
574,505.80720604545
575,505.8199809469366
576,505.83796212652294
577,505.858927146234
578,505.8810465700069
579,505.9032787703231
580,505.92560549471256
581,505.9490563580207
582,505.97551484441385
583,506.0073532677158
584,506.0469821084581
585,506.09640528769
586,506.15685718730026
587,506.2285738839812
588,506.31072532243354
589,506.4015070278533
590,506.49835960387907
591,506.5982584014933
592,506.69800897892594
593,506.7945040240805
594,506.8849324061956
595,506.9669605034396
596,507.0389163541347
597,507.0999891717649
598,507.15040835264733
599,507.19151365916696
600,507.2256194864845
601,507.2556323090888
602,507.28447248773955
603,507.3144298513354
604,507.3466128093618
605,507.38062747470156
606,507.41456558496014
607,507.4453140227158
608,507.4691375369972
609,507.48243297347625
610,507.4825164054649
611,507.46829654125384
612,507.4407119190575
613,507.402856268241
614,507.35977298043906
615,507.317957319479
616,507.2846545701537
617,507.2670664392575
618,507.2715667627565
619,507.3029990768851
620,507.36411079579307
621,507.4551749857849
622,507.57384485790544
623,507.715268968735
624,507.87246796245034
625,508.0369393631776
626,508.1994217724982
627,508.3507254842495
628,508.48253100398176
629,508.5880676783884
630,508.6626049315475
631,508.70371546817694
632,508.7113021954173
633,508.68741660448046
634,508.63592992182043
635,508.56213406548096
636,508.4723323780338
637,508.3734383336926
638,508.27256489412684
639,508.1765839403956
640,508.09166384716855
641,508.02283026173495
642,507.9736161934024
643,507.94586753353354
644,507.9397552348583
645,507.95401217997863
646,507.9863551720795
647,508.03398680651657
648,508.0940357054074
649,508.1638135566471
650,508.24083723832103
651,508.3226525654829
652,508.4065659657484
653,508.48941523521586
654,508.5674876291331
655,508.63664105059803
656,508.69262193846987
657,508.73151788598994
658,508.7502531842745
659,508.7470414070831
660,508.72173595694204
661,508.67604035556735
662,508.6135438330773
663,508.5395477807462
664,508.4606663676076
665,508.38422711301826
666,508.3175499464621
667,508.2672234266461
668,508.2385092465237
669,508.23498506307686
670,508.2584798248261
671,508.3092754583505
672,508.386473058879
673,508.48838388651694
674,508.6128195816668
675,508.75721145744046
676,508.91856151596096
677,509.093292999692
678,509.27710685784353
679,509.46495072101914
680,509.65116481445915
681,509.8297964096428
682,509.99500526835624
683,510.1414577730041
684,510.26463927492125
685,510.36107119088746
686,510.42845454644333
687,510.4657599894037
688,510.4732727614763
689,510.45260268281
690,510.40667138661263
691,510.33967523503867
692,510.2570011663316
693,510.1650608997094
694,510.0710134099849
695,509.9823646747682
696,509.9064585280676
697,509.84989546272493
698,509.81794073669414
699,509.8140097458025
700,509.8393304808776
701,509.8928630006507
702,509.9715077123612
703,510.070572603526
704,510.1844082773424
705,510.3070789918195
706,510.43294245074975
707,510.55706451268844
708,510.67546700470274
709,510.78525412913496
710,510.88466057023504
711,510.97302200618384
712,511.0506271141575
713,511.11841511535755
714,511.1775437558504
715,511.2289258093299
716,511.27286046022687
717,511.30885348468786
718,511.3356575242011
719,511.3515052759478
720,511.3544663073336
721,511.34283663751586
722,511.3154768234841
723,511.27204637779664
724,511.21312120719796
725,511.14020861546146
726,511.0556853034211
727,510.9626782968931
728,510.86489337225305
729,510.76638888004584
730,510.67131430286196
731,510.583673231627
732,510.50718730432106
733,510.4452992283217
734,510.40127954554805
735,510.3783472936004
736,510.3797103254387
737,510.40846165015375
738,510.46730635188743
739,510.558133663456
740,510.68149373846177
741,510.83607766745166
742,511.01831545654414
743,511.222195671106
744,511.4393790585027
745,511.65963317809224
746,511.871562756231
747,512.0635633227719
748,512.2248928564396
749,512.3467355094637
750,512.4231183997927
751,512.4515462704929
752,512.4332586225838
753,512.373086658574
754,512.2789564050638
755,512.1611194981475
756,512.0312012832123
757,511.90115693146936
758,511.7822248957361
759,511.68396126648184
760,511.61342922621975
761,511.57460301944644
762,511.56802902599134
763,511.59077971919277
764,511.6367362622653
765,511.6972180700172
766,511.76192924853825
767,511.82012694137796
768,511.8618644757655
769,511.8791462437706
770,511.8668531595243
771,511.8233382674611
772,511.75063186631627
773,511.6542298696959
774,511.54247748753556
775,511.42561024989106
776,511.3145651533344
777,511.21970475562216
778,511.14959859206976
779,511.10999128020023
780,511.10307160177916
781,511.1271459999794
782,511.1767972540655
783,511.2435516057061
784,511.31698532731946
785,511.3861073132303
786,511.44079709871863
787,511.47307468142134
788,511.4780209571845
789,511.45423493760705
790,511.403787680728
791,511.33170392494225
792,511.2450663232329
793,511.15188822237315
794,511.05993629777413
795,510.9757011262141
796,510.90369743896304
797,510.84620989969534
798,510.8034911827812
799,510.7742992919307
800,510.7565725565625
801,510.74802009958324
802,510.74646529901077
803,510.74989492158454
804,510.75628835896225
805,510.7633827366715
806,510.7685405367204
807,510.7688248834783
808,510.76128492587003
809,510.74335877229123
810,510.7132554419409
811,510.6701961220607
812,510.6144640318574
813,510.5472935039629
814,510.4706802585823
815,510.3871929633444
816,510.29982066381314
817,510.21183666617253
818,510.12663031150436
819,510.04746310027195
820,509.9771352933482
821,509.9175922102255
822,509.86954591557355
823,509.83222143816806
824,509.8033342291015
825,509.77935377135475
826,509.75602309611315
827,509.72902645145786
828,509.69466256499106
829,509.65039468898334
830,509.59519201346836
831,509.5296269988377
832,509.4557368929253
833,509.3766902966612
834,509.29631863946923
835,509.21857986510696
836,509.1470236598237
837,509.08432684169475
838,509.03195872115293
839,508.9900133257656
840,508.95721526987234
841,508.9310853602111
842,508.90824531213366
843,508.8848357790211
844,508.85700972035073
845,508.82145027011444
846,508.7758578886027
847,508.7193566800533
848,508.65277828612255
849,508.5787866187244
850,508.50180831164886
851,508.42774391023147
852,508.36346345553955
853,508.31612783325033
854,508.2924036986064
855,508.2976530246078
856,508.33519470705414
857,508.4057545043286
858,508.50721606124876
859,508.6347440469921
860,508.7812800902214
861,508.93833609018026
862,509.09695167357165
863,509.24865907187734
864,509.38631154157525
865,509.5046734093622
866,509.60072945037365
867,509.6737310201511
868,509.7250362836859
869,509.7578118785883
870,509.7766471324388
871,509.7871016427993
872,509.7951801708846
873,509.80672424736576
874,509.82673680234325
875,509.8587065756527
876,509.9040490297286
877,509.96179833659096
878,510.02865124018325
879,510.0993872561217
880,510.1676020700067
881,510.22662710815564
882,510.2704870511083
883,510.29475808466674
884,510.29720985169814
885,510.27813988645636
886,510.24035354541667
887,510.188803999464
888,510.1299646096283
889,510.07104047950975
890,510.0191357778314
891,509.9804891658975
892,509.9598767217208
893,509.9602554590241
894,509.98267764276153
895,510.0264548988044
896,510.08950934135095
897,510.16883024801984
898,510.2609558550648
