frame_number,force
0,561.0654900000334
1,561.1326503558191
2,561.2038042631559
3,561.2829637702378
4,561.3740999407992
5,561.4809602038467
6,561.606772495464
7,561.7538944538355
8,561.9234818396486
9,562.1152378623232
10,562.3272840312649
11,562.5561739547621
12,562.7970537527319
13,563.0439561288805
14,563.2902017257171
15,563.5288721082441
16,563.7533159319445
17,563.957654436832
18,564.1372529341444
19,564.28910967058
20,564.4120967134152
21,564.5069969451205
22,564.5763188461401
23,564.6239148338938
24,564.6544665021361
25,564.6729278974819
26,564.6840266033826
27,564.6919048496948
28,564.6999444117437
29,564.7107675472387
30,564.7263492009015
31,564.7481325395678
32,564.7770413565603
33,564.813345455301
34,564.8564321949535
35,564.9046090703458
36,564.9550668446348
37,565.0040776287593
38,565.047420307432
39,565.080948428461
40,565.1011709004022
41,565.1057203727697
42,565.0936311232746
43,565.0654099744123
44,565.0229280040886
45,564.9691749936818
46,564.9079192782181
47,564.8433207099416
48,564.7795491057128
49,564.7204555793252
50,564.6693329746618
51,564.6287899096759
52,564.600749837361
53,564.5865687686855
54,564.5872427086865
55,564.6036525966879
56,564.6367763034964
57,564.6877888980941
58,564.7579799726949
59,564.8484502223122
60,564.9596147333282
61,565.0906205265228
62,565.2388407910032
63,565.3996076544554
64,565.5662914532319
65,565.7307496487655
66,565.8840783391543
67,566.0175293719858
68,566.1234280715215
69,566.1959441366953
70,566.2316113598025
71,566.2295404964683
72,566.1913249337922
73,566.1207009885389
74,566.0230674611983
75,565.9049634401698
76,565.7735582165275
77,565.6361666449678
78,565.4998013185229
79,565.3707974603724
80,565.2545558963523
81,565.1554224424284
82,565.0766760584626
83,565.0205612688324
84,564.9882886033437
85,564.9799508038799
86,564.9943650421012
87,565.0289253794202
88,565.0795840781631
89,565.1410463409663
90,565.2071843941653
91,565.2716055191673
92,565.3282796305378
93,565.3721435494524
94,565.399624912589
95,565.4090433082062
96,565.4008426789547
97,565.377598012784
98,565.343741249322
99,565.3049874366014
100,565.2675164196105
101,565.2370479913777
102,565.2179929615746
103,565.2128455775542
104,565.2219189099046
105,565.24344506404
106,565.2739887155261
107,565.309067926746
108,565.3438523897993
109,565.3738228736003
110,565.3953158782331
111,565.405920105779
112,565.4047161515977
113,565.392353845112
114,565.3709576841857
115,565.3438610193867
116,565.3152004465313
117,565.2894387513606
118,565.2709037831324
119,565.2634150391767
120,565.2700255138855
121,565.2928584631877
122,565.3329893093174
123,565.3903252700215
124,565.4634769969964
125,565.5496815828327
126,565.6448765980049
127,565.7439975494109
128,565.8414837493531
129,565.9318854539802
130,566.0104266410702
131,566.0734087737998
132,566.1184096274578
133,566.1442970804371
134,566.1511217287823
135,566.1399666810772
136,566.112810368867
137,566.0724094943271
138,566.0221703557844
139,565.9659750300192
140,565.9079545240133
141,565.8522250323626
142,565.802610229919
143,565.7623685241838
144,565.7339455830547
145,565.7187847590873
146,565.717233303025
147,565.7285592602946
148,565.7510538963681
149,565.7821743735858
150,565.8186971990183
151,565.856883226367
152,565.8926747731007
153,565.9219505971163
154,565.9408568649266
155,565.9462104274376
156,565.93594247975
157,565.9095279990993
158,565.8683296852219
159,565.8157724743285
160,565.757267138138
161,565.6998340582804
162,565.6514394215309
163,565.6201235477289
164,565.6130488851318
165,565.6356119370325
166,565.6907518681419
167,565.7785543708088
168,565.896198274843
169,566.0382348405586
170,566.1971385962644
171,566.3640345648512
172,566.529499547777
173,566.6843593010508
174,566.8204419367125
175,566.9312659429123
176,567.0126250689988
177,567.06300864497
178,567.0837970052604
179,567.0791997549799
180,567.0559376046753
181,567.0226865006086
182,566.989309857229
183,566.9659239025583
184,566.9618771807752
185,566.9847506340858
186,567.0394832914263
187,567.1277221273427
188,567.2474968037341
189,567.3933022046524
190,567.5566098665035
191,567.7267484317964
192,567.8920328903929
193,568.0409919282175
194,568.1635331081062
195,568.2518963633328
196,568.3012807594017
197,568.3100838268967
198,568.2797570323294
199,568.2143390073613
200,568.1197634297662
201,568.003049087036
202,567.8714784516274
203,567.7318666552129
204,567.5900091571377
205,567.4503649441424
206,567.3159877615527
207,567.1886766981538
208,567.0692877953296
209,566.958125057241
210,566.8553114057797
211,566.7610418642627
212,566.6756531366381
213,566.5994971561632
214,566.5326645442773
215,566.474651321803
216,566.4240820934118
217,566.3785902853344
218,566.3349219566559
219,566.2892803514723
220,566.2378614249395
221,566.1774628362474
222,566.1060195837388
223,566.022951811224
224,565.9292832900411
225,565.8275557949153
226,565.7215949872099
227,565.6161835423899
228,565.5166882612426
229,565.4286787458116
230,565.3575634349969
231,565.308255035007
232,565.2848665546433
233,565.2904355431718
234,565.3266819518567
235,565.3938223940581
236,565.4904753139301
237,565.613685434204
238,565.7590818710127
239,565.9211763396681
240,566.0937951631087
241,566.270605796735
242,566.4456620232367
243,566.6138828250072
244,566.7714010237582
245,566.9157503060471
246,567.0458925991019
247,567.1621171430661
248,567.2658559069804
249,567.3594486034735
250,567.4458681291642
251,567.5284110184604
252,567.6103735811894
253,567.6947476459542
254,567.7839612267155
255,567.8796741446383
256,567.9826385413173
257,568.0926422162365
258,568.2085465547714
259,568.3284084000014
260,568.4496563089837
261,568.5692903615613
262,568.6840856381372
263,568.7907914572609
264,568.8863292428879
265,568.9680036683284
266,569.0337486690447
267,569.0824161029212
268,569.1140716261732
269,569.1302107815269
270,569.1337902079667
271,569.1290066462883
272,569.1208311946533
273,569.1143784852836
274,569.1142298389457
275,569.1238281537038
276,569.1450342938011
277,569.1779008714295
278,569.2206864651187
279,569.270096053924
280,569.3216929021918
281,569.3703955928752
282,569.4109650909694
283,569.4384083367482
284,569.4482721717825
285,569.4368532897627
286,569.4013785899114
287,569.3402009416251
288,569.25301718467
289,569.1410720744435
290,569.0072834819983
291,568.8562186315137
292,568.6938695141123
293,568.5272144345754
294,568.3636034654837
295,568.2100542509937
296,568.0725727605712
297,567.9556071042679
298,567.8617039595764
299,567.7913871908004
300,567.7432376825282
301,567.7141263402544
302,567.6995364513903
303,567.6939159766073
304,567.6910308335571
305,567.6843290221152
306,567.6673448780089
307,567.6341623247118
308,567.5799254765436
309,567.5013486595943
310,567.3971442731261
311,567.2682680375187
312,567.1179002375462
313,566.9511467332911
314,566.7745234041698
315,566.5953362923707
316,566.4210675253967
317,566.2588367321483
318,566.1149558751958
319,565.9945607164361
320,565.9013023525581
321,565.8371093910015
322,565.802057207358
323,565.7943846152154
324,565.8106802837959
325,565.846228832584
326,565.895465456149
327,565.9524521288671
328,566.0112825105192
329,566.0663605622924
330,566.1125632386081
331,566.1453522063724
332,566.160909869267
333,566.1563349641018
334,566.1298708417236
335,566.0810998488338
336,566.0110457858777
337,565.9221701856623
338,565.8182897099236
339,565.7044511564658
340,565.5867746867073
341,565.4722367966253
342,565.3683437880608
343,565.2826662444805
344,565.2222568706145
345,565.1930215800198
346,565.1991299209442
347,565.2425410355854
348,565.322702696215
349,565.4364620424301
350,565.5782096808152
351,565.7402629969829
352,565.9134727822377
353,566.0880032597624
354,566.2541980674215
355,566.4034233813621
356,566.5287820230154
357,566.6256115034835
358,566.6917099863866
359,566.7272756406836
360,566.7345873677508
361,566.7174915616182
362,566.6807910710376
363,566.6296488438145
364,566.5691004670495
365,566.5037151230669
366,566.4373786995661
367,566.3731339980361
368,566.3130299557859
369,566.2579959828219
370,566.2078147371217
371,566.161263150675
372,566.1164301812994
373,566.0711499627839
374,566.0234515569093
375,565.9719312166385
376,565.91599123437
377,565.8559377884862
378,565.7929566947948
379,565.7289804138693
380,565.6664483697871
381,565.6079742025838
382,565.5559637877686
383,565.5122504987544
384,565.4778126373026
385,565.4526163020921
386,565.4355987694505
387,565.4247843782181
388,565.4175143681799
389,565.410772610947
390,565.4015850960984
391,565.3874477390265
392,565.3667053987281
393,565.338795566673
394,565.3042989456269
395,565.264791072137
396,565.2225375060847
397,565.1801040904033
398,565.1399606800095
399,565.1041431731653
400,565.0740096960621
401,565.0500988433223
402,565.0320897444573
403,565.0188697047771
404,565.0087109340817
405,564.9995390451962
406,564.9892592043125
407,564.9760942349646
408,564.9588733186672
409,564.9371983563708
410,564.9114307216117
411,564.8824904055407
412,564.8515194944313
413,564.819500385066
414,564.786921752562
415,564.7535638017439
416,564.7184506241475
417,564.6799982854508
418,564.6363571930551
419,564.5858938499251
420,564.5277005700785
421,564.4620038373126
422,564.3903775362204
423,564.3157248353215
424,564.24203572329
425,564.1739550788407
426,564.1162255436261
427,564.0730985994383
428,564.047817013286
429,564.0422518045242
430,564.0567352633444
431,564.0900842349116
432,564.1397705933294
433,564.2021832290053
434,564.272939516302
435,564.347222035223
436,564.4201158428452
437,564.4869103960762
438,564.5433324913146
439,564.5856970450435
440,564.6109840735736
441,564.6168615253004
442,564.6016794794956
443,564.5644660909923
444,564.5049533082853
445,564.4236436067631
446,564.3219034481098
447,564.2020532245454
448,564.0674276746897
449,563.9223934030794
450,563.7723136844999
451,563.623443371604
452,563.4827272569831
453,563.3574700639465
454,563.2548522434474
455,563.1812946383676
456,563.141729365873
457,563.1388920387959
458,563.1727776468844
459,563.240382221708
460,563.3357946891668
461,563.4506295972077
462,563.5747249677537
463,563.69699511409
464,563.8063361053161
465,563.892508579586
466,563.9469349020536
467,563.9633428305144
468,563.9381905059812
469,563.8708301899298
470,563.7634012000725
471,563.6204738024113
472,563.4484927850513
473,563.2550957843326
474,563.0484041415255
475,562.8363867291696
476,562.6263681752478
477,562.424706530452
478,562.2366289359014
479,562.066198848472
480,561.9163873117094
481,561.7892197091459
482,561.6859577101777
483,561.607257414634
484,561.5532385650606
485,561.5234228868392
486,561.5165499371569
487,561.5303361747142
488,561.5612795631495
489,561.6046091173655
490,561.6544406715591
491,561.7041462671864
492,561.7468903253296
493,561.7762427105371
494,561.7867643127104
495,561.7744859966461
496,561.737250250549
497,561.6749183901807
498,561.5894399159
499,561.4847504483432
500,561.3664520173943
501,561.241260431653
502,561.1162684934201
503,560.9981352608991
504,560.8923375466057
505,560.8026020476466
506,560.7305888455883
507,560.6758417196271
508,560.635979626821
509,560.6070857240917
510,560.5842441583301
511,560.5621695560852
512,560.5358747061416
513,560.5013263469807
514,560.4560267635266
515,560.3994288721534
516,560.333083776518
517,560.2604669241424
518,560.1865149702332
519,560.1169789966284
520,560.0577239932395
521,560.0140785909606
522,559.9902919014977
523,559.9891249445717
524,560.0116052240716
525,560.0569764528942
526,560.1228547868175
527,560.205569552664
528,560.300642229129
529,560.4033421819535
530,560.5092434351092
531,560.6147010737814
532,560.7171841979857
533,560.815443451679
534,560.9095291012147
535,561.0006844311573
536,561.0911239889042
537,561.1836981482099
538,561.2814654124594
539,561.387231545871
540,561.5031418608079
541,561.6304076422339
542,561.7692064339482
543,561.9187363226594
544,562.077361563295
545,562.2427924895229
546,562.4122878623472
547,562.5829031003208
548,562.7517979363625
549,562.9165782679787
550,563.0756173123169
551,563.2282956109193
552,563.375110543185
553,563.5176299532826
554,563.6583005853868
555,563.8001548294035
556,563.9464684410183
557,564.100407592223
558,564.2646839039963
559,564.4412259355901
560,564.630879899743
561,564.8331683491529
562,565.0461504109774
563,565.2664238232828
564,565.4892854965201
565,565.709040171201
566,565.9194280336625
567,566.1141271727486
568,566.2872722152712
569,566.4339271614753
570,566.5504666180648
571,566.6348435442289
572,566.6867327190487
573,566.7075348737724
574,566.7002276917812
575,566.6690721171676
576,566.6192111885272
577,566.5562093218701
578,566.4855731920991
579,566.4122927392837
580,566.3404507484383
581,566.27295639511
582,566.2114466126427
583,566.1563724881313
584,566.1072577149482
585,566.0630847332544
586,566.022730707187
587,565.985354106366
588,565.9506450035929
589,565.9188974390627
590,565.8909133494025
591,565.8677806203452
592,565.8505780064073
593,565.8400553126311
594,565.836333971391
595,565.8386813723935
596,565.8454217962161
597,565.854037929537
598,565.8614845521854
599,565.8646895853734
600,565.8611674049171
601,565.849625198747
602,565.8304229752376
603,565.8057677149316
604,565.7795755854795
605,565.7570005989087
606,565.7436900286049
607,565.7448802579106
608,565.7644813304262
609,565.8043079819407
610,565.8636001004214
611,565.9389345036356
612,566.0245620404726
613,566.113121828539
614,566.1966083520603
615,566.2674133562897
616,566.3192461430247
617,566.3477649562942
618,566.3508293362946
619,566.3283894952576
620,566.282126269399
621,566.215001095094
622,566.1308501699154
623,566.0340835824784
624,565.9294749960333
625,565.8219830669175
626,565.7165406919028
627,565.6177809001374
628,565.5297284863475
629,565.4555404500674
630,565.3973798971446
631,565.3564468205742
632,565.3331130388284
633,565.3270768779738
634,565.3374743382088
635,565.3629202772356
636,565.4014794700148
637,565.4505890234966
638,565.5069787292614
639,565.5666551351122
640,565.6250107803448
641,565.6770840796322
642,565.7179427069993
643,565.7431248226015
644,565.7490646543652
645,565.7334406556148
646,565.6954008797507
647,565.6356436455183
648,565.5563650913234
649,565.4611092663957
650,565.3545457159073
651,565.2421654683088
652,565.129875104075
653,565.0235029462699
654,564.9282802712235
655,564.8483810506796
656,564.7865873292287
657,564.744113057733
658,564.7205890337468
659,564.714195662541
660,564.7219217082194
661,564.7399163683644
662,564.7638953563884
663,564.7895705112209
664,564.8130875850568
665,564.8314551900859
666,564.8429239745044
667,564.8472495744794
668,564.8457689374223
669,564.8412462323654
670,564.8374960431747
671,564.8388446659338
672,564.8495165469732
673,564.8730296544468
674,564.9116747069268
675,564.9661511748399
676,565.0354242959687
677,565.116837704979
678,565.2064678664035
679,565.2996521924923
680,565.3915831926278
681,565.4778586195365
682,565.5549147528902
683,565.6203233038916
684,565.6729729767072
685,565.7131631422459
686,565.7426048492368
687,565.7642848258904
688,565.7821534205241
689,565.8006598729197
690,565.8242258819049
691,565.8567609291454
692,565.9012741866151
693,565.9595730084727
694,566.0320077189341
695,566.1172483647758
696,566.2121431200898
697,566.3117622609213
698,566.4097308552813
699,566.498888833767
700,566.5722169157742
701,566.6238695774712
702,566.6500978411434
703,566.6498538272184
704,566.6249472730937
705,566.5797369728614
706,566.5204426815192
707,566.4542288954981
708,566.388236281591
709,566.3287276293318
710,566.2804814022948
711,566.2465090639521
712,566.2280996675298
713,566.2251275042863
714,566.236515032569
715,566.2607300116965
716,566.2962121219518
717,566.3416633672881
718,566.3961793061986
719,566.4592246572578
720,566.530464367575
721,566.6094654666217
722,566.6953040368016
723,566.7861487897176
724,566.8789310859669
725,566.9692232974605
726,567.0514136133288
727,567.1191891746
728,567.1662501005321
729,567.1871167837998
730,567.1778883533296
731,567.136847421949
732,567.0648446476634
733,566.9654144158173
734,566.84458621094
735,566.7103905467684
736,566.5721141251348
737,566.4394115429569
738,566.3214072435692
739,566.2259178362207
740,566.1588975288734
741,566.1241581547541
742,566.1233440780195
743,566.1560787689571
744,566.2201808833573
745,566.3118856285132
746,566.426079200098
747,566.5566137577387
748,566.6967720018032
749,566.839881604468
750,566.9799784761441
751,567.1123509074321
752,567.2338098710428
753,567.3426142023684
754,567.438086126865
755,567.5200430298731
756,567.5882232959501
757,567.6418786152906
758,567.6796367130322
759,567.699637699069
760,567.6998684607544
761,567.6785942732597
762,567.6347988705655
763,567.5685578040409
764,567.4812748871996
765,567.3757281406213
766,567.2559156040245
767,567.1267481361248
768,566.9936710308262
769,566.862286904929
770,566.7380123341524
771,566.6257647499687
772,566.5296687204636
773,566.4527945311556
774,566.3969785856981
775,566.3627898765368
776,566.3496752218839
777,566.356253554815
778,566.3806777830009
779,566.4209680492937
780,566.4752402434862
781,566.5417943963652
782,566.6190758235214
783,566.705562795183
784,566.7996529658803
785,566.8996099243667
786,567.0035957132756
787,567.1097675879352
788,567.2163781105489
789,567.3218116851056
790,567.4245257925359
791,567.5229189430901
792,567.6151876531691
793,567.6992463980534
794,567.7727681291815
795,567.8333643417574
796,567.878875708833
797,567.9077091745183
798,567.9191508072697
799,567.9135963975748
800,567.8926514849984
801,567.8590556540994
802,567.8164030709729
803,567.768678025107
804,567.7196879540123
805,567.6725243962791
806,567.6291867497936
807,567.5904594557294
808,567.5560607226925
809,567.5250101783582
810,567.4961128861875
811,567.4684361351117
812,567.4416696540873
813,567.4163060289021
814,567.3936328161691
815,567.3755628531648
816,567.3643387709328
817,567.3621506228516
818,567.3707180891564
819,567.3909059653437
820,567.4224460467433
821,567.463819716139
822,567.5123241574306
823,567.5643236847905
824,567.61568056871
825,567.662342231323
826,567.7010124068863
827,567.7297718198705
828,567.7484876663297
829,567.7588917217272
830,567.7642993599536
831,567.7690383191759
832,567.77771262128
833,567.7944333214206
834,567.8221249663293
835,567.8619887082697
836,567.9131766016889
837,567.9727059425047
838,568.0356234409664
839,568.0954170064015
840,568.1446509921252
841,568.1757575796753
842,568.1818718946197
843,568.1575822384282
844,568.0994874190108
845,568.006496540932
846,567.8798594454666
847,567.7229701866067
848,567.5410254415543
849,567.3406203699599
850,567.129321472355
851,566.9152052069669
852,566.7063391665182
853,566.5102187385471
854,566.333224836142
855,566.1801965180589
856,566.0541916484926
857,565.956451077152
858,565.8865321868764
859,565.8425643750401
860,565.8215813901414
861,565.8198795362848
862,565.8333510379774
863,565.8577628795376
864,565.8889738957687
865,565.9230902953217
866,565.9565659250403
867,565.9862683824782
868,566.009538961081
869,566.0242625666882
870,566.0289499361907
871,566.0228336879328
872,566.0059775920819
873,565.979372170901
874,565.944951205012
875,565.9054602687897
876,565.8641643792693
877,565.8244597627413
878,565.7894976814177
879,565.7619187185925
880,565.7437526689862
881,565.7364823512078
882,565.741214589117
883,565.7588698149304
884,565.7903104888543
885,565.8363691918615
886,565.897779005956
887,565.9750279358126
888,566.0681582924934
889,566.1765300476318
890,566.2985771306015
891,566.4316048290073
892,566.5716933490298
893,566.7137744304029
894,566.8519223655311
895,566.9798448303729
896,567.0914934668929
897,567.181676946346
898,567.2465720501406
899,567.2840757988033
900,567.2939883647242
901,567.2780396771634
902,567.2397757075036
903,567.1843200453193
904,567.1180315410827
905,567.0480830430847
906,566.9819797585725
907,566.927022852163
908,566.8897233153572
909,566.8751970138678
910,566.8866153501856
911,566.9248174386155
912,566.9881816942308
913,567.0728023826174
914,567.172937701906
915,567.2816243540374
916,567.3913252440364
917,567.4945011341273
918,567.5840501782004
