acceleration,velocity,displacement
-0.07879934772530482,0.0,0.0
-0.07763450884343169,-7.821692828436826e-05,-3.910846414218413e-08
-0.07640040522838373,-0.00015523438532027598,-1.5583412094450625e-07
-0.07502745133854727,-0.00023094831360374147,-3.4892547040651495e-07
-0.0734467724726755,-0.0003051854255093529,-6.169923399630621e-07
-0.07159337268244664,-0.00037770549808691393,-9.584378017611955e-07
-0.06941126617960248,-0.0004482078175179385,-1.3713944595636217e-06
-0.06685956174797107,-0.0005163432314817252,-1.8536699840634535e-06
-0.06391821370775962,-0.0005817321192095906,-2.4027076594091117e-06
-0.060592369637527975,-0.0006439874108822344,-3.0155674244550244e-06
-0.05691461034864769,-0.0007027409008753222,-3.6889315803338027e-06
-0.052944710555246494,-0.0007576705613272694,-4.419137311435099e-06
-0.0487668566524457,-0.0008085263449311155,-5.202235764564291e-06
-0.044484546286457975,-0.0008551520464005674,-6.034074960230133e-06
-0.04021362719543332,-0.000897501133141513,-6.910401550001173e-06
-0.03607409371223023,-0.0009356449935953448,-7.826974613369602e-06
-0.03218130771394599,-0.0009697726943084329,-8.779683457321491e-06
-0.02863723126032992,-0.0010001819637955709,-9.764660786373493e-06
-0.02552224906066857,-0.00102726170395607,-1.0778382620249314e-05
-0.022888423956481666,-0.0010514670404646452,-1.1817746992459671e-05
-0.020755318975353012,-0.0010732889119305627,-1.2880124968657274e-05
-0.01910935569097479,-0.0010932212492637265,-1.3963380049254418e-05
-0.017907026657301466,-0.0011117294404378647,-1.5065855394105214e-05
-0.017081514991855826,-0.0011292237112624434,-1.6186331969955367e-05
-0.016551622458405527,-0.001146040279987574,-1.7323963965580376e-05
-0.01623142535907656,-0.001162431803896315,-1.8478200007522322e-05
-0.01603892780571691,-0.0011785669804787117,-1.9648699399709834e-05
-0.01590228636720662,-0.0011945375875651735,-2.0835251683731778e-05
-0.01576284704532938,-0.0012103701542714414,-2.2037705554650084e-05
-0.01557512902476708,-0.0012260391423064897,-2.3255910202939048e-05
-0.015304878579873114,-0.0012414791461088097,-2.4489669347146698e-05
-0.0149270652172331,-0.0012565951180073629,-2.5738706479204785e-05
-0.014425666532430957,-0.001271271483882195,-2.7002639780149563e-05
-0.013796003016062942,-0.001285382318656442,-2.8280966681418883e-05
-0.013048700399017793,-0.0012988046703639824,-2.9573060175929096e-05
-0.012213113734719325,-0.0013114355774308509,-3.087818029982651e-05
-0.011337966831507132,-0.0013232111177139641,-3.219550364739892e-05
-0.010487916734073049,-0.0013341240594967542,-3.352417123600428e-05
-0.009736175073805593,-0.0013442361054006936,-3.4863351318453e-05
-0.009154658514612111,-0.0013536815221949024,-3.62123101322508e-05
-0.008803917049219309,-0.0013626608099768182,-3.7570481298336656e-05
-0.008725010345350073,-0.0013714252736741028,-3.893752434016212e-05
-0.008934688029451951,-0.001380255122861504,-4.0313364538429924e-05
-0.009424159699178652,-0.0013894345467258193,-4.1698209373223585e-05
-0.010160973109898209,-0.0013992271131303578,-4.3092540203151675e-05
-0.011093273062854556,-0.0014098542362167342,-4.449708087782522e-05
-0.012155701012711722,-0.0014214787232545174,-4.5912747357560844e-05
-0.013276107883124735,-0.0014341946277024356,-4.734058403303932e-05
-0.014382171770012364,-0.0014480237675290042,-4.878169323065504e-05
-0.015407098401177289,-0.0014629184026145991,-5.0237164315726844e-05
-0.01629377621814054,-0.001478768839924258,-5.1708007936996275e-05
-0.01699696097547705,-0.0014954142085210668,-5.319509946121894e-05
-0.017483292027490667,-0.0015126543350225507,-5.4699133732990745e-05
-0.01772925052467956,-0.0015302606062986357,-5.6220591203651336e-05
-0.017717561612254875,-0.0015479840123671029,-5.7759713512984204e-05
-0.017432946151727077,-0.0015655592662490937,-5.93164851522923e-05
-0.016858443811009757,-0.001582704961230462,-6.089061726603208e-05
-0.015973674024466967,-0.0015991210201482004,-6.248153025672141e-05
-0.01475626991904122,-0.0016144859921199545,-6.408833376285549e-05
-0.013187140881917393,-0.0016284576975204338,-6.570980560767568e-05
-0.011259087595110125,-0.0016406808117589477,-6.734437486231537e-05
-0.008986904253042249,-0.001650803807683024,-6.899011717203636e-05
-0.0064161506421009425,-0.0016585053351305956,-7.064477174344317e-05
-0.00362778701187672,-0.0016635273039575845,-7.230578806298726e-05
-0.0007367992033460252,-0.001665709597065196,-7.397040651349864e-05
0.0021155874220519706,-0.001665020202955843,-7.563577141350916e-05
0.004774942307563802,-0.001661574938091035,-7.72990689840326e-05
0.007089536238010283,-0.001655642698818248,-7.895767780248724e-05
0.00892625853222397,-0.0016476348014331308,-8.060931655261293e-05
0.010183987608947911,-0.001638079678362545,-8.225217379251076e-05
0.010802605062617779,-0.001627586382026762,-8.388500682270542e-05
0.010766687710743857,-0.0016168017356400814,-8.550720088153884e-05
0.010103871488629231,-0.0016063664560403948,-8.711878497737908e-05
0.00887895961227288,-0.0015968750404899439,-8.872040572564425e-05
0.007185589654798668,-0.001588842765856408,-9.031326462881742e-05
0.005137176507042624,-0.0015826813827754874,-9.189902670313337e-05
0.0028580653857713995,-0.0015786837618290803,-9.347970927543566e-05
0.000475126184185145,-0.001577017166044102,-9.505755973937225e-05
-0.0018900136743509274,-0.001577724609789185,-9.663493062728889e-05
-0.004127475166734909,-0.001580733354209728,-9.821415960928834e-05
-0.00614358559194399,-0.0015858688845890674,-9.979746072868774e-05
-0.0078629704920668,-0.0015928721626310728,-0.00010138683125229781
-0.009228759115089344,-0.001601418027434651,-0.00010298397634733067
-0.010202022106993851,-0.0016111334180456925,-0.00010459025207007084
-0.010761763864509596,-0.0016216153110314442,-0.00010620662643460942
-0.010906375859056882,-0.0016324493808932273,-0.00010783365878057176
-0.010656373235688712,-0.0016432307554406001,-0.00010947149884873867
-0.010056953768521563,-0.0016535874189427052,-0.00011111990793593031
-0.009178322002647588,-0.0016632050568282898,-0.00011277830417381581
-0.008112311665990683,-0.0016718503736626088,-0.00011444583188906126
-0.006965203747394427,-0.0016793891313693014,-0.00011612145164157721
-0.005847874478684948,-0.001685795670482341,-0.00011780404404250303
-0.004864910529974107,-0.0016911520629866706,-0.00011949251790923754
-0.004104128403893602,-0.0016956365824536044,-0.00012118591223195767
-0.0036274876843214654,-0.001699502390497712,-0.00012288348171843333
-0.0034641336744846906,-0.001703048201177115,-0.00012458475701427075
-0.003606366569115819,-0.0017065834512989154,-0.00012628957284050878
-0.004009525406424809,-0.0017103913972866857,-0.00012799806026480158
-0.004596741987301486,-0.001714694530983549,-0.0001297106032289367
-0.005268893695694957,-0.0017196273488250472,-0.00013142776416884099
-0.005918796410231116,-0.0017252211938780103,-0.00013315018844019252
-0.006447245216969514,-0.0017314042146916106,-0.00013487850114447735
-0.006777738397808376,-0.0017380167064989995,-0.00013661321160507266
-0.006867015367485148,-0.0017448390833816462,-0.000138354639500013
-0.006709646184634435,-0.001751627414157706,-0.00014010287274878266
-0.006336293467533703,-0.00175815038398379,-0.0001418577616478534
-0.005806539977856819,-0.0017642218007064853,-0.00014361894774019856
-0.0051981210870345775,-0.001769724131238931,-0.00014538592070617126
-0.004594814350858641,-0.0017746205989578776,-0.00014715809307126967
-0.004075001964049626,-0.0017789555071153317,-0.00014893488112430628
-0.0037022241966945296,-0.0017828441201957039,-0.0001507157809379618
-0.0035183029471231248,-0.0017864543837676128,-0.00015250043018994348
-0.0035391845018151974,-0.001789983127492082,-0.00015428864894557331
-0.0037535981256810427,-0.00179362951880583,-0.00015608045526872228
-0.004124696221845039,-0.0017975686659795931,-0.000157876054361115
-0.004594664678051151,-0.0018019283464295413,-0.00015967580286731955
-0.005091757780792445,-0.001806771557658963,-0.0001614801528193638
-0.005538572331529709,-0.0018120867227151242,-0.00016328958195955084
-0.005860045489524566,-0.0018177860316256514,-0.0001651045183367212
-0.005989931343075466,-0.0018237110200419514,-0.000166925266862555
-0.005875278317815441,-0.0018296436248723968,-0.00016875194418501218
-0.0054792603571608796,-0.001835320894209885,-0.00017058442644455333
-0.00478322518302476,-0.001840452136979978,-0.00017242231296014826
-0.003788782024165385,-0.001844738140583573,-0.00017426490809893002
-0.0025200279376278193,-0.0018478925455644698,-0.00017611122344200403
-0.0010248831873791225,-0.0018496650011269732,-0.00017796000221534974
0.0006261928638974683,-0.001849864346288714,-0.0001798097668890576
0.002345360918550358,-0.00184837856939749,-0.0001816588883469007
0.004036175608409621,-0.00184518780113401,-0.00018350567153216645
0.005604115791352916,-0.0018403676554341287,-0.0001853484492604505
0.0069663454502139266,-0.0018340824248133452,-0.00018718567430057426
0.008058716629733844,-0.0018265698937733714,-0.00018901600045986763
0.008839217915724779,-0.0018181209265006422,-0.00019083834587000462
0.009288213628004152,-0.0018090572107287777,-0.00019265193493861934
0.009406581311655645,-0.0017997098132589478,-0.0001944563184506132
0.00921310655792633,-0.0017903999693241568,-0.00019625137334190477
0.008742103568430023,-0.0017814223642609785,-0.00019803728450869734
0.00804138498266269,-0.0017730306199854322,-0.00019981451100082055
0.007170030129317124,-0.0017654249124294424,-0.000201583738767028
0.006195370307090147,-0.0017587422122112388,-0.00020334582232934835
0.005189054295942565,-0.0017530499999097225,-0.00020510171843540883
0.004222473967677706,-0.0017483442357779124,-0.00020685241555325266
0.0033619476895380552,-0.0017445520249493045,-0.00020859886368361627
0.0026639897504410594,-0.0017415390562293149,-0.00021034190922420557
0.002171018166580664,-0.0017391215522708041,-0.00021208223952845563
0.0019080666525229189,-0.0017370820098612523,-0.00021382034130952167
0.001881157975167653,-0.001735187397547407,-0.000215556476013226
0.002077597008995256,-0.0017332080200553254,-0.0002172906737220274
0.002467747216294538,-0.0017309353479426806,-0.00021902274540602638
0.003007505254521997,-0.0017281977217072724,-0.00022075231194085135
0.003640962398128333,-0.0017248734878809473,-0.00022247884754564548
0.004303266355271928,-0.0017209013735042472,-0.00022420173497633808
0.004924040095821388,-0.0017162877202787005,-0.00022592032952322956
0.005431804203281392,-0.001711109798129149,-0.0002276340282824335
0.005759717234695008,-0.001705514037410161,-0.00022934234020020316
0.005852570193801576,-0.0016997078936959126,-0.0002310449511657562
0.005674481430518767,-0.0016939443678837525,-0.00023274177729654604
0.005216344874414207,-0.001688498954731286,-0.00023443299895785355
0.004501795385946036,-0.001683639884601106,-0.00023611906837751976
0.003590235551946272,-0.0016795938691321597,-0.0002378006852543864
0.002575510576260635,-0.0016765109960680564,-0.0002394787376869865
0.001579382968818586,-0.0016744335492955168,-0.0002411542099596683
0.0007400194201822556,-0.0016732738481010164,-0.00024282806365836656
0.00019687239545894706,-0.0016728054021931957,-0.0002445011032835137
7.416842861951457e-05,-0.0016726698817811564,-0.00024617384092550087
0.00046550524987718867,-0.0016724000449419082,-0.0002478463758888624
0.0014218601552157348,-0.0016714563622393618,-0.000249518304092453
0.002944719405075762,-0.001669273072459216,-0.0002511886688098023
0.00498515221742551,-0.0016653081366479652,-0.0002528559594143559
0.007448654866535352,-0.0016590912331059847,-0.0002545181590992329
0.010204704487717025,-0.0016502645534288585,-0.0002561728369925003
0.013099372199990314,-0.0016386125150850048,-0.00025781727552675725
0.015969220690897748,-0.0016240782186395608,-0.0002594486208936195
0.018655130551560237,-0.0016067660430183319,-0.00026106404302444846
0.021015367380445953,-0.0015869307940523287,-0.0002626608914429838
0.0229375149026878,-0.001564954352910762,-0.0002642368340164653
0.024348619301286532,-0.0015413112858087747,-0.0002657899668358251
0.025222479298191117,-0.001516525736509036,-0.000267318885346984
0.02558303561260312,-0.0014911229790536388,-0.00026882270970476533
0.025503300241731076,-0.0014655798111264718,-0.0002703010610998554
0.02509983815708639,-0.0014402782419270631,-0.00027175399012638215
0.024523126219979353,-0.0014154667597385303,-0.00027318186262721494
0.023944236910950104,-0.0013912330781730656,-0.00027458521254617076
0.023538627545551437,-0.001367491645944815,-0.0002759645749082297
0.02346844062021565,-0.0013439881118619313,-0.0002773203147871331
0.0238651610882232,-0.001320321311007712,-0.00027865246949856795
0.024814452178667793,-0.0012959815043742664,-0.00027996062090625897
0.026344879255238797,-0.001270401838657313,-0.00028124381257777474
0.02842226849018396,-0.0012430182647846016,-0.0002825005226294957
0.03095113835976297,-0.001213331561359628,-0.00028372869754256783
0.03378356996329515,-0.001180964207198099,-0.0002849258454268467
0.03673447773977389,-0.0011457051833465644,-0.00028608918012211905
0.039601195190716955,-0.001107537346881319,-0.000287215801387233
0.042184762192923976,-0.0010666443681894985,-0.0002883028922447684
0.044310134062905175,-0.001023396920061584,-0.00028934791288889395
0.04584271908590818,-0.0009783204934871773,-0.00029034877159566833
0.046699249162705944,-0.0009320495093628702,-0.00029130395659709334
0.0468519308329858,-0.0008852739193650244,-0.0002922126183114573
0.04632593854093554,-0.0008386849846780637,-0.00029307459776347885
0.04519131889566121,-0.0007929263559597654,-0.00029389040343379776
0.043550986458919944,-0.0007485552032824748,-0.00029466114421341887
0.04152667609168243,-0.0007060163720071736,-0.00029538843000106367
0.0392446960449178,-0.0006656306859388735,-0.0002960742535300367
0.03682324894373647,-0.0006275967134445463,-0.0002967208672297284
0.03436285206956908,-0.0005920036629378935,-0.0002973306674179196
0.031940842730540736,-0.0005588518155378386,-0.00029790609515715745
0.029610185525323227,-0.0005280763014099066,-0.0002984495592156313
0.027402084108875124,-0.0004995701665928074,-0.0002989633824496327
0.025331385786229885,-0.0004732034316452549,-0.00029944976924875175
0.023403363249330088,-0.00044883605712747493,-0.0002999107889931381
0.021620148473168448,-0.0004263243012662257,-0.00030034836917233493
0.019985123970234858,-0.000405521665044524,-0.0003007642921554903
0.01850412958229379,-0.0003862770382682597,-0.0003011601915071467
0.01718326929043878,-0.0003684333388318934,-0.0003015375466956968
0.01602411484595886,-0.0003518296467636946,-0.0003018976781884946
0.015017925161431227,-0.00033630862675999954,-0.00030224174732525644
0.014140845182220354,-0.00032172924158817376,-0.0003025707662594305
0.013351828712083055,-0.0003079829046410221,-0.0003028856223325451
0.012594438931220647,-0.00029500977081937024,-0.00030318711867027533
0.011802824358501753,-0.00028281113917450905,-0.0003034760291252723
0.010911007092366622,-0.00027145422344907486,-0.0003037531618065841
0.009863445272663132,-0.00026106699726656,-0.0003040194224169419
0.008624323213288994,-0.0002518231130235839,-0.00030427586747208696
0.0071835838049906725,-0.00024391915951444407,-0.00030452373860835597
0.005558983485280951,-0.00023754787586930827,-0.00030476447212604785
0.003794607161007868,-0.00023287108054616387,-0.0003049996816042556
0.0019568076537555346,-0.00022999537313878217,-0.00030523111483109807
0.00012853637549625584,-0.00022895270112415628,-0.00030546058886822953
-0.0015971241080925181,-0.00022968699499045442,-0.00030568990871628684
-0.003123573817143417,-0.00023204734395307239,-0.0003059207758857586
-0.00435700800855361,-0.0002357876348659209,-0.0003061546933751681
-0.005212219998412164,-0.00024057224886940378,-0.00030639287331703577
-0.005617873169794767,-0.00024598729545350723,-0.00030663615308919724
-0.00552128383081791,-0.00025155687395381356,-0.0003068849251739009
-0.0048926208990865225,-0.00025676382631876577,-0.00030713908552403724
-0.003728127401287228,-0.00026107420046895266,-0.0003073980045374311
-0.002051765240958204,-0.00026396414679007537,-0.0003076605237110606
8.520882739060433e-05,-0.0002649474249968592,-0.0003079249794969541
0.002606985564561252,-0.00026360132780088325,-0.00030818925387335295
0.005418375370607342,-0.00025958864733329894,-0.00030845084886092
0.008412301101557709,-0.00025267330909721643,-0.0003087069798391353
0.011478930191993897,-0.00024272769345044063,-0.00030895468034040913
0.014515130592623155,-0.00022973066305813212,-0.00030919090951866344
0.01743277640241171,-0.0002137567095606147,-0.0003094126532049728
0.020164794724250378,-0.00019495792399728366,-0.00030961701052175175
0.022668409462638414,-0.00017354132190383926,-0.0003098012601447023
0.0249256161339359,-0.0001497443091055521,-0.000309962902960207
0.026941431360844436,-0.00012381078535816194,-0.00031009968050743885
0.028740691420608377,-9.596972396743554e-05,-0.00031020957076210163
0.03036397662598111,-6.641738994414079e-05,-0.00031029076431905744
0.031862849324015015,-3.530397696914273e-05,-0.0003103416250025141
0.03329448508218571,-2.7253097660423644e-06,-0.0003103606396458817
0.03471605557280825,3.127996056145461e-05,-0.00031034636232048397
0.03617945150199694,6.672771409885721e-05,-0.0003102973584831538
0.037726784693522315,0.00010368083219661683,-0.00031021215421000607
0.03938684332468409,0.00014223764620572004,-0.0003100891949708049
0.04117267264760981,0.000182517404191867,-0.00030992681744560613
0.043080592225993176,0.0002246440366286685,-0.00030972323672519584
0.045090853763824885,0.0002687297596235775,-0.0003094765498270697
0.047169754867661125,0.00031486006393932056,-0.00030918475491528827
0.04927269606080928,0.00036308128940355577,-0.00030884578423861684
0.05134764629608061,0.0004133914605820007,-0.00030845754786362403
0.05333867210358945,0.00046573461978183575,-0.0003080179848234421
0.05518939319616285,0.0005199986524317119,-0.0003075251181873353
0.05684641430756723,0.0005760165561835769,-0.00030697711058302765
0.05826298730356575,0.0006335712569891434,-0.00030637231667644127
0.059403278063303165,0.0006924043896725778,-0.0003057093288531104
0.06024737304459255,0.0007522297152265257,-0.00030498701180066087
0.060796410998286074,0.000812751607247965,-0.00030420452113942364
0.06107633083278715,0.0008736879781635016,-0.0003033613013467179
0.06113841292039898,0.0009347953500400948,-0.0003024570596826161
0.06105544613781288,0.0009958922795692006,-0.00030149171586781146
0.060913649927386314,0.0010568768276018002,-0.000300465331314226
0.06080173320688513,0.001117734519168936,-0.0002993780256408406
0.060799155063394617,0.0011785349633040758,-0.0002982298908996041
0.06096562961672191,0.001239417355644134,-0.00029702091474013
0.06133343196426472,0.0013005668864346273,-0.0002957509226190906
0.061903474619455424,0.0013621853397264873,-0.00029441954650601007
0.06264555411754684,0.0014244598540949884,-0.0002930262239090993
0.06350252114079277,0.0014875338917241581,-0.00029157022703618976
0.0643974243071211,0.001551483864448115,-0.00029005071815810365
0.06524213078754604,0.0016163036419954487,-0.0002884668244048819
0.06594577400452033,0.001681897594391482,-0.00028681772378668844
0.0664217536111498,0.0017480813581993168,-0.00028510273431039306
0.0665928333863811,0.0018145886516980822,-0.00028332139930544435
0.06639478265230447,0.001881082459717425,-0.0002814735637497366
0.06577950434970871,0.0019471696032184317,-0.00027955943771826867
0.06471843040821929,0.0020124185705973955,-0.00027757964363136074
0.06320630277308424,0.0020763809371880473,-0.000275535243877468
0.0612647106611646,0.0021386164439051716,-0.0002734277451869214
0.058944262048170624,0.002198720930259839,-0.0002712590764998389
0.05632417152794989,0.0022563551470478993,-0.000269031538461185
0.05350836505738522,0.002311271415340567,-0.0002667477251799908
0.05061787535948163,0.002363334535549,-0.000264410422204546
0.04778018315149333,0.0024125335648044876,-0.00026202248815436924
0.045117003464214295,0.0024589821581123415,-0.00025958673029291085
0.042732504696922566,0.00250290691219291,-0.0002571057857577582
