frame_number,force
0,482.46911000002655
1,482.73007242386257
2,482.9803761989974
3,483.210328106672
4,483.41205197049527
5,483.5801209923963
6,483.71189696193
7,483.8075571938141
8,483.8698380507476
9,483.90354111396175
10,483.91485080548097
11,483.91053040775773
12,483.89709602037567
13,483.88008775781435
14,483.8635459326939
15,483.8497641382814
16,483.83934740120696
17,483.83155490449445
18,483.82485066132836
19,483.8175371017906
20,483.80833194624256
21,483.7967779653653
22,483.7834336830109
23,483.76985294600485
24,483.7583977484198
25,483.7519349772893
26,483.75345610064727
27,483.7656475534101
28,483.7904441640509
29,483.82862252367147
30,483.87951580593034
31,483.9409248669441
32,484.00925647729474
33,484.0798646453712
34,484.1475339300953
35,484.20703431432185
36,484.2536862082142
37,484.2838824270907
38,484.2955105083377
39,484.2882113248528
40,484.26341815722395
41,484.2241556923077
42,484.1746283299251
43,484.11966636451467
44,484.06411480403125
45,484.0122476075215
46,483.9672776494168
47,483.9310129005238
48,483.9036856145419
49,483.8839644716489
50,483.8691579823083
51,483.8556180523884
52,483.83932999777267
53,483.8166227309698
54,483.78487308237675
55,483.7430475750001
56,483.69195087888966
57,483.634129952473
58,483.5734790661656
59,483.5146583166574
60,483.46245678301403
61,483.4212095720881
62,483.3943368852427
63,483.38403625994135
64,483.3911408667138
65,483.4151510132011
66,483.45443492584394
67,483.50657209676916
68,483.568785569718
69,483.63838558770277
70,483.7131341959632
71,483.7914549358574
72,483.87245976376244
73,483.9558220040292
74,484.04155314338175
75,484.12973483513514
76,484.22024296971813
77,484.31250527740013
78,484.4053523430057
79,484.4970229905149
80,484.58534621619117
81,484.66805560295086
82,484.7431391077622
83,484.80912068173126
84,484.86520782324567
85,484.9112919782339
86,484.9478324046604
87,484.9756805641712
88,484.9959071041279
89,485.009674235579
90,485.0181648291283
91,485.02255678869227
92,485.02402205981224
93,485.023725229499
94,485.022798503649
95,485.0222842667996
96,485.02305496000145
97,485.02572964851345
98,485.03060909324023
99,485.037652917046
100,485.04651713618944
101,485.05665059247076
102,485.0674277139329
103,485.0782897055769
104,485.08886980417935
105,485.0990772970772
106,485.1091186528233
107,485.11945285998144
108,485.13069772903214
109,485.1435072348485
110,485.1584308747651
111,485.1757589740577
112,485.19536205787705
113,485.21654664978126
114,485.23796384073574
115,485.25761167248186
116,485.272964600983
117,485.2812370122192
118,485.27974134248257
119,485.26625656521725
120,485.23931094193284
121,485.1983109784281
122,485.143496957392
123,485.07575221914976
124,484.9963265208242
125,484.9065491301438
126,484.80760394618864
127,484.70041521002764
128,484.58565193454785
129,484.4638223159559
130,484.33541730586063
131,484.2010688967351
132,484.0616905095914
133,483.9185603480802
134,483.77331278159176
135,483.6278312238932
136,483.4840791479887
137,483.34394053130825
138,483.20914501308187
139,483.0813157985293
140,482.962112347849
141,482.8533826773277
142,482.75723124793785
143,482.67595399605096
144,482.61185337567133
145,482.5669763739628
146,482.5428111837229
147,482.539965797315
148,482.5578572380476
149,482.5944546785058
150,482.64612682251817
151,482.7076421555924
152,482.7723635455519
153,482.83266000894724
154,482.8805216789745
155,482.9083171319159
156,482.90959365802024
157,482.8798054161569
158,482.8168660059709
159,482.7214550902819
160,482.5970483253589
161,482.44967005674476
162,482.28738674477313
163,482.11957800317145
164,481.95605217549473
165,481.8061091170515
166,481.6776714228901
167,481.57658754062084
168,481.5061660912725
169,481.4669605071901
170,481.45680472615453
171,481.4710977912234
172,481.5033269042788
173,481.5457874169917
174,481.5904131322539
175,481.6296039333999
176,481.656948404385
177,481.66776910296704
178,481.6594457744371
179,481.6315004688933
180,481.5854639194465
181,481.524569227037
182,481.4533249028605
183,481.37701640301674
184,481.3011846550101
185,481.23112502236245
186,481.171437483832
187,481.12565171512483
188,481.0959566803173
189,481.08306969512716
190,481.0862702159837
191,481.10360325145376
192,481.13223591841455
193,481.1689255424527
194,481.210526983855
195,481.25444661621606
196,481.2989598986172
197,481.3433461499877
198,481.38783626148637
199,481.43340087356904
200,481.4814277462098
201,481.5333490234285
202,481.5902784240682
203,481.6527078720095
204,481.7203035643072
205,481.7918386454757
206,481.86529652681725
207,481.93816071154447
208,482.00786446313646
209,482.0723184370937
210,482.1303969156271
211,482.1822664408273
212,482.2294809305102
213,482.2748259818616
214,482.3219534711537
215,482.37488527510186
216,482.43746591200716
217,482.51282148412656
218,482.6028734065066
219,482.70797247273276
220,482.8267327414649
221,482.95612580617774
222,483.0918451293678
223,483.22888714588794
224,483.36224243618744
225,483.48756503831646
226,483.60169991578624
227,483.70298991854065
228,483.79133404252946
229,483.86800998373536
230,483.93529968249436
231,483.9959736401972
232,484.0527102502387
233,484.10755011650855
234,484.1614920139465
235,484.21430806195656
236,484.2646001397347
237,484.31006742573254
238,484.34792698325356
239,484.3754230983632
240,484.3903629675943
241,484.39161889336174
242,484.3795394200047
243,484.35621039298115
244,484.3255009527692
245,484.292833481691
246,484.26465267606807
247,484.2476396821933
248,484.2477935581911
249,484.2695478809295
250,484.3150900676869
251,484.3840092603683
252,484.47332781319824
253,484.5778942870575
254,484.6910574738113
255,484.80550685891643
256,484.9141453427618
257,485.01085755908946
258,485.0910659631986
259,485.15202501307976
260,485.19286789960336
261,485.2144664355801
262,485.2191812024176
263,485.2105666009516
264,485.19306533159147
265,485.171696307778
266,485.1517230322746
267,485.1382879708301
268,485.1360068768637
269,485.1485358026349
270,485.1781530788056
271,485.22542262224897
272,485.2890054204336
273,485.3656674349003
274,485.4505069045241
275,485.53738948723577
276,485.6195355421355
277,485.6901739315653
278,485.74318442167026
279,485.77368387059136
280,485.77853438992173
281,485.7567455693643
282,485.709719203112
283,485.6412693463098
284,485.55736364735776
285,485.4655801825772
286,485.3743432388588
287,485.2920570612824
288,485.226267729443
289,485.1829531282275
290,485.16599852793047
291,485.17688129591886
292,485.2145633805087
293,485.2755720036786
294,485.35424492715225
295,485.4431298877677
296,485.5335382308702
297,485.61623699086016
298,485.68222966500383
299,485.72355165173104
300,485.73400259998317
301,485.70974278865305
302,485.6496800428115
303,485.55556922297296
304,485.43176034302223
305,485.2845876472444
306,485.1214821062143
307,484.94997067505733
308,484.77675669499104
309,484.6070480991938
310,484.4442321429984
311,484.2899137401124
312,484.1442591220602
313,484.0065308361784
314,483.8756763740857
315,483.75084679155117
316,483.631764963568
317,483.51891346638604
318,483.41354378178676
319,483.3175156869758
320,483.23298145171907
321,483.16195379528773
322,483.10583011065387
323,483.064967102679
324,483.0383976139774
325,483.02375412155845
326,483.0174214482366
327,483.0148965138639
328,483.01128886618176
329,483.00186302648865
330,482.98252681155657
331,482.95021209997543
332,482.90314061260625
333,482.84098258440974
334,482.7649040882355
335,482.6774851572951
336,482.58249120342145
337,482.4844942776244
338,482.38836647804817
339,482.2987050842374
340,482.21928728000404
341,482.152666895073
342,482.099998580217
343,482.0611154684398
344,482.0348217133368
345,482.0193149324064
346,482.01263652221616
347,482.0130574063226
348,482.01933101072814
349,482.0307760021295
350,482.04719123919557
351,482.0686525127693
352,482.0952731154942
353,482.1270043707693
354,482.1635137122755
355,482.20413776365564
356,482.24788887305834
357,482.2934959046534
358,482.3394740423002
359,482.3842334362718
360,482.4262408989163
361,482.4642335103466
362,482.4974522108887
363,482.52583753133274
364,482.55012790960797
365,482.5718225541307
366,482.5930005784389
367,482.61601783839507
368,482.6431332508645
369,482.6761417993509
370,482.7160939503231
371,482.76314824800005
372,482.81655181164206
373,482.8747103913874
374,482.9353168502244
375,482.9955372502186
376,483.0522722569967
377,483.1024995526102
378,483.14367005984377
379,483.174100438849
380,483.1932914889827
381,483.202107779778
382,483.20277194398227
383,483.19865179677066
384,483.19385372717693
385,483.1926875889081
386,483.1991159095122
387,483.2163028089447
388,483.2463269134348
389,483.29005805719027
390,483.34716227825913
391,483.4161992728069
392,483.49479023483104
393,483.57984327972065
394,483.6678238821701
395,483.7550531518296
396,483.8380132989304
397,483.9136402254209
398,483.9795858099314
399,484.0344334891687
400,484.0778473102121
401,484.110626962159
402,484.13463819232237
403,484.152602564599
404,484.167763516857
405,484.1834792085842
406,484.20280568365183
407,484.2281232603288
408,484.26084081153
409,484.301201218515
410,484.34820643621487
411,484.39967546217457
412,484.4524382476441
413,484.50265129766615
414,484.54620190652196
415,484.5791592041407
416,484.59823370680283
417,484.60120993664793
418,484.58730644860736
419,484.5573994849742
420,484.514043427682
421,484.46125330032464
422,484.4040728817288
423,484.34800331235084
424,484.29838901072293
425,484.2598525127725
426,484.2358486242557
427,484.22838281314387
428,484.2379159596552
429,484.26345124428474
430,484.3027646932058
431,484.3527130931754
432,484.4095496040321
433,484.4692005226669
434,484.52749446918193
435,484.58036775585975
436,484.62407567128264
437,484.6554149480654
438,484.67192947899713
439,484.67205826296555
440,484.6552033585018
441,484.62173129865533
442,484.5729435172782
443,484.51104254177824
444,484.4390923653824
445,484.3609457686853
446,484.28110023612777
447,484.2044510554733
448,484.13593782922624
449,484.0801222365439
450,484.04076602121216
451,484.0204742488616
452,484.0204346189166
453,484.04025148996084
454,484.07786688601686
455,484.129572777165
456,484.1901295854935
457,484.25300626729586
458,484.3107490929008
459,484.3554740071461
460,484.379464526844
461,484.3758403177829
462,484.33923655148936
463,484.2664092100671
464,484.1566739939495
465,484.01210362049807
466,483.83744212389894
467,483.6397345987927
468,483.4277128917187
469,483.21102073137274
470,482.99939458182416
471,482.80191913098105
472,482.6264420386307
473,482.4791819402655
474,482.36452621065337
475,482.2849980510854
476,482.24135965891156
477,482.23280148148496
478,482.25716261299317
479,482.31114732584666
480,482.39053407679535
481,482.4903899035333
482,482.6052958028401
483,482.7295731757844
484,482.8574952041169
485,482.98347073115826
486,483.10219625946223
487,483.20878264248176
488,483.298872867335
489,483.368768851351
490,483.4155763847704
491,483.4373620224114
492,483.4333020749754
493,483.40380223791794
494,483.3505771057734
495,483.27668670217776
496,483.1865191781476
497,483.08569002048836
498,482.98081432426994
499,482.8791137494097
500,482.78785144847734
501,482.7136427668848
502,482.6617449410831
503,482.63545486686974
504,482.6357272139056
505,482.6610814247422
506,482.70781866012834
507,482.77052716339085
508,482.8428156789387
509,482.91817966251483
510,482.99087818432696
511,483.05668978126954
512,483.1134298394783
513,483.1611457039373
514,483.2019515131398
515,483.2395215283677
516,483.2783214937071
517,483.3227054705889
518,483.3760289355648
519,483.4399261297911
520,483.5138710283309
521,483.59509049458774
522,483.67883700881805
523,483.7589691680897
524,483.8287370136228
525,483.88163301398845
526,483.9121610697243
527,483.9164046081697
528,483.8923347998228
529,483.83986888398437
530,483.76073990573224
531,483.65825781420256
532,483.5370287686756
533,483.4026654811364
534,483.2614823523746
535,483.1201427754864
536,482.98522953648677
537,482.8627516153306
538,482.75766402929827
539,482.67351535786196
540,482.6123139393433
541,482.57463126732745
542,482.5598867757834
543,482.5667154368143
544,482.5933132582074
545,482.63768035002823
546,482.6977277615152
547,482.77126579066385
548,482.85592974686756
549,482.94911373434593
550,483.0479701828914
551,483.1494966685243
552,483.25068899664274
553,483.3487115796498
554,483.4410321861995
555,483.52548808910507
556,483.6002902611629
557,483.66401051639775
558,483.7156010676355
559,483.7544627065378
560,483.7805404164521
561,483.79441326333
562,483.79735555835737
563,483.7913569822709
564,483.7790863017653
565,483.7637733722979
566,483.74898985667323
567,483.73834121840474
568,483.73512034686803
569,483.74198574902516
570,483.76070944929825
571,483.79201213497373
572,483.8354838177072
573,483.88958135175983
574,483.9516976089627
575,484.01830505453944
576,484.08517857080795
577,484.14769461493967
578,484.2011923941989
579,484.24137231157874
580,484.26469613546874
581,484.26874310482793
582,484.2524721093651
583,484.21634726228183
584,484.1623040756282
585,484.093563985396
586,484.0143391427846
587,483.9294933431726
588,483.8442245307071
589,483.7638075340679
590,483.69339534926416
591,483.6378421368672
592,483.601497678053
593,483.5879399531284
594,483.59965510356244
595,483.63772317119407
596,483.701596254047
597,483.78904307006997
598,483.8962871066204
599,484.01831666413375
600,484.14932006910107
601,484.28319385727383
602,484.41406749175286
603,484.53678099858075
604,484.64725218703353
605,484.7426843207765
606,484.8215898818104
607,484.8836374717313
608,484.9293640473976
609,484.9598242724762
610,484.9762580881627
611,484.9798379959509
612,484.97151875923356
613,484.95198212394865
614,484.92166633760434
615,484.8808772666837
616,484.8299636699824
617,484.7695069937154
618,484.700462922049
619,484.624218113356
620,484.54256929138427
621,484.45765715842634
622,484.3718799515467
623,484.2877861765055
624,484.20793122349346
625,484.134692175405
626,484.07005825827304
627,484.01543180407253
628,483.971478604878
629,483.93806281975753
630,483.91429548154855
631,483.8987099523625
632,483.8895441044958
633,483.8850709419924
634,483.88390354978327
635,483.88521370840164
636,483.88882891162683
637,483.8951966158872
638,483.9052291849578
639,483.920065059976
640,483.9407877322429
641,483.968134343737
642,484.00221995078573
643,484.0423124441993
644,484.0867026451056
645,484.1327066175419
646,484.1768154842995
647,484.2149857453815
648,484.2430437029255
649,484.25715709382575
650,484.25430825069543
651,484.23269608242424
652,484.19200767998404
653,484.13352991472783
654,484.06009563206425
655,483.97586424282395
656,483.88593896791764
657,483.7958463614656
658,483.7109437002954
659,483.6358500134295
660,483.57399984166557
661,483.5273970301151
662,483.4966053680146
663,483.4809566609112
664,483.478893889241
665,483.4883229764474
666,483.506853144481
667,483.53187220386326
668,483.5604975105409
669,483.5895097750492
670,483.61537998622197
671,483.634449996833
672,483.6432603607366
673,483.6389643346097
674,483.6197421886155
675,483.585139885929
676,483.5362856218188
677,483.47596304943056
678,483.4085322433373
679,483.3396935848179
680,483.27609190152253
681,483.224767225213
682,483.19248153093963
683,483.18497685951496
684,483.2062321261999
685,483.25779050839617
686,483.3382487548844
687,483.4430291819311
688,483.56455328847477
689,483.69286999476446
690,483.8166801862283
691,483.9246005486599
692,484.00646777722966
693,484.0544975947089
694,484.064153384241
695,484.03462495287584
696,483.96886500727226
697,483.8731858268776
698,483.75648262705886
699,483.62920795585404
700,483.5022519679178
701,483.3858795040196
702,483.288846448838
703,483.21777751923327
704,483.1768396346417
705,483.16769325134214
706,483.1896670365528
707,483.2400965578188
708,483.314780548105
709,483.4085062520554
710,483.5155750549467
711,483.6302516375942
712,483.7470873272324
713,483.8611194435437
714,483.96798947330467
715,484.06402929584993
716,484.146340755867
717,484.2128633328877
718,484.2624068606668
719,484.294627487094
720,484.30994302781846
721,484.30940871306706
722,484.29459223960043
723,484.26748904567376
724,484.23050160707027
725,484.1864713432891
726,484.13871098189685
727,484.0909635332366
728,484.0472284889745
729,484.0114400160648
730,483.98703602317073
731,483.97650338851486
732,483.9810079778253
733,484.0002066264279
734,484.0322920645723
735,484.0742572466203
736,484.1223129131756
737,484.17237440412583
738,484.2205431240713
739,484.2635225053452
740,484.2989233258028
741,484.3254367048718
742,484.34288154555867
743,484.35215201740806
744,484.3550909627815
745,484.35430311346244
746,484.35291265846155
747,484.35427096051535
748,484.3616285356462
749,484.3777954335414
750,484.404822767405
751,484.44374123009356
752,484.4943875101084
753,484.5553395823754
754,484.62397253565547
755,484.6966399600293
756,484.7689768312656
757,484.8363031697634
758,484.8940889428334
759,484.9384288428445
760,484.966470544566
761,484.97673885102427
762,484.96930532104733
763,484.9457731029869
764,484.9090767086852
765,484.8631283236472
766,484.81236278353157
767,484.76123296151115
768,484.7136996857629
769,484.6727678031788
770,484.64013505485866
771,484.6160161494854
772,484.5991761537509
773,484.5871700665229
774,484.5767498445235
775,484.56437434121347
776,484.5467482982143
777,484.52131907915157
778,484.48666723861703
779,484.44274139774166
780,484.3909079692693
781,484.3338015849628
782,484.2749742304564
783,484.21836928173343
784,484.16769725101705
785,484.12583637588614
786,484.0943868284739
787,484.0734662915715
788,484.0617751183697
789,484.05690365926233
790,484.0558016197178
791,484.0552886636177
792,484.05248702169894
793,484.04510859073304
794,484.03159603218216
795,484.01115877783684
796,483.9837491674677
797,483.9500043789523
798,483.911156078087
799,483.8688998126228
800,483.8252264012276
801,483.7822350552739
802,483.7419550057805
803,483.70619407053954
804,483.67641538172614
805,483.65363022879296
806,483.6382992075682
807,483.6302524681097
808,483.62865078895857
809,483.63200186486523
810,483.638236622788
811,483.6448516335856
812,483.649122954591
813,483.6483805466726
814,483.640312841202
815,483.62326461115333
816,483.59649265917216
817,483.56034286159417
818,483.5163166506331
819,483.4670159116869
820,483.4159842380971
821,483.3674788005007
822,483.3261988134599
823,483.2969729033587
824,483.28439272358577
825,483.2923887541998
826,483.32376782121577
827,483.37975625445455
828,483.45961312051287
829,483.5603876268317
830,483.6768819954687
831,483.80185030104315
832,483.9264360075355
833,484.0408358650797
834,484.1351614478982
835,484.200435907399
836,484.2296174732081
837,484.2185035655904
838,484.16635858681235
839,484.0761375045216
840,483.9542496602092
841,483.80990115368985
842,483.6541319046569
843,483.4987040723315
844,483.3550029879395
845,483.23308466836403
846,483.14095302869725
847,483.0840940429088
848,483.0652541628218
849,483.0844361079821
850,483.1390918900619
851,483.2245012213204
852,483.33431214950707
853,483.46119164811347
854,483.59751147666566
855,483.73599494735976
856,483.8702644312327
857,483.9952428975482
858,484.10737732322394
859,484.2046782822903
860,484.2866047290426
861,484.3538468007653
862,484.4080602016883
863,484.4515892834315
864,484.4871968294414
865,484.51780749169865
866,484.546272549724
867,484.5751742069525
868,484.6066964667273
869,484.6425808155157
870,484.68416038516244
871,484.73244620266235
872,484.7882315687915
873,484.852175244433
874,484.9248203321259
875,485.0065182431727
876,485.0972606302979
877,485.19646166741734
878,485.30276017607673
879,485.4139137617389
880,485.5268278112818
881,485.637707196782
882,485.7422680557072
883,485.83593679629246
884,485.91400125190415
885,485.9717365569808
886,486.0045670700826
887,486.00832413586875
888,485.9796201615136
889,485.91630172415364
890,485.8178958944842
891,485.6859458727744
892,485.5241463125471
893,485.3382254350741
894,485.1355729567465
895,484.9246716690473
896,484.7144350464339
897,484.51355808298905
898,484.3299502769185
