frame_number,force
0,698.7880300072665
1,698.803860630541
2,698.819793142856
3,698.8359281797077
4,698.8523638824716
5,698.8691946843203
6,698.8865101372244
7,698.904393795766
8,698.9229221739193
9,698.942163790394
10,698.9621783168475
11,698.9830158416489
12,699.0047162599493
13,699.027308798299
14,699.0508116789514
15,699.0752319257493
16,699.1005653106638
17,699.1267964379091
18,699.153898960874
19,699.1818359252891
20,699.2105602298799
21,699.2400151935304
22,699.2701352161062
23,699.3008465187847
24,699.3320679491644
25,699.3637118364608
26,699.395684882515
27,699.4278890751941
28,699.4602226121584
29,699.4925808242556
30,699.5248570880415
31,699.5569437162043
32,699.5887328143251
33,699.6201170937211
34,699.6509906329383
35,699.681249583548
36,699.7107928182672
37,699.7395225210804
38,699.76734472024
39,699.7941697655348
40,699.8199127509398
41,699.8444938834176
42,699.8678387991343
43,699.8898788296813
44,699.9105512223366
45,699.92979931928
46,699.9475727005613
47,699.9638272945382
48,699.9785254581324
49,699.9916360283942
50,700.0031343466161
51,700.0130022562788
52,700.0212280763789
53,700.0278065522879
54,700.0327387870672
55,700.0360321565812
56,700.0377002112148
57,700.0377625655207
58,700.0362447754796
59,700.0331782019348
60,700.0285998580817
61,700.0225522381885
62,700.0150831240725
63,700.0062453659087
64,699.9960966350354
65,699.984699148148
66,699.9721193640033
67,699.9584276552823
68,699.9436979596543
69,699.9280074153819
70,699.9114359878673
71,699.8940660939887
72,699.8759822303145
73,699.8572706091221
74,699.8380188032071
75,699.8183153979056
76,699.7982496474037
77,699.7779111322302
78,699.7573894152644
79,699.7367736943486
80,699.716152450774
81,699.6956130946135
82,699.6752416099808
83,699.6551222052826
84,699.6353369746055
85,699.6159655761451
86,699.5970849324092
87,699.5787689553656
88,699.5610882979248
89,699.5441101314066
90,699.5278979476325
91,699.5125113843943
92,699.4980060735749
93,699.4844335111386
94,699.4718409475753
95,699.4602712971226
96,699.4497630647419
97,699.4403502907201
98,699.432062512947
99,699.4249247462385
100,699.4189574773764
101,699.4141766745547
102,699.4105938105602
103,699.4082158995767
104,699.4070455473868
105,699.407081013862
106,699.4083162856261
107,699.4107411564077
108,699.4143413131512
109,699.4190984270434
110,699.4249902498451
111,699.431990717215
112,699.4400700618693
113,699.4491949400467
114,699.4593285747188
115,699.4704309186457
116,699.4824588400536
117,699.4953663333104
118,699.509104756071
119,699.5236230927035
120,699.5388682415036
121,699.5547853207509
122,699.571317986739
123,699.5884087560933
124,699.6059993249529
125,699.6240308784668
126,699.6424443849212
127,699.6611808693178
128,699.6801816613969
129,699.6993886135534
130,699.7187442853568
131,699.7381920933367
132,699.7576764267807
133,699.7771427319778
134,699.796537568211
135,699.8158086386318
136,699.8349047982247
137,699.8537760401185
138,699.8723734612554
139,699.8906492091395
140,699.9085564126979
141,699.9260491014334
142,699.9430821176663
143,699.9596110269213
144,699.9755920316495
145,699.9909818934666
146,700.0057378689139
147,700.0198176635284
148,700.0331794088233
149,700.0457816666743
150,700.0575834654271
151,700.0685443714237
152,700.0786245985179
153,700.0877851568689
154,700.0959880410894
155,700.1031964564697
156,700.1093750802315
157,700.1144903528011
158,700.1185107925592
159,700.1214073267058
160,700.1231536304259
161,700.1237264660577
162,700.1231060135976
163,700.1212761840196
164,700.1182249076952
165,700.1139443914597
166,700.1084313392728
167,700.1016871326432
168,700.0937179674903
169,700.0845349435344
170,700.0741541012789
171,700.0625964017505
172,700.0498876462481
173,700.0360583366452
174,700.0211434798395
175,700.0051823419552
176,699.9882181590592
177,699.9702978119061
178,699.9514714728427
179,699.9317922333641
180,699.9113157206476
181,699.8900997106518
182,699.8682037444154
183,699.8456887533796
184,699.822616698791
185,699.7990502292655
186,699.7750523595123
187,699.7506861722027
188,699.726014543966
189,699.7010998953939
190,699.6760039638983
191,699.6507875975013
192,699.6255105672876
193,699.6002313964528
194,699.5750072044582
195,699.5498935653831
196,699.5249443802082
197,699.5002117638472
198,699.4757459490804
199,699.451595210423
200,699.4278058110237
201,699.4044219752592
202,699.3814858891508
203,699.3590377301175
204,699.3371157267186
205,699.3157562480333
206,699.2949939214838
207,699.274861777399
208,699.2553914181947
209,699.2366132093499
210,699.2185564882112
211,699.2012497850889
212,699.1847210495097
213,699.1689978736769
214,699.1541077057511
215,699.1400780472098
216,699.1269366302874
217,699.11471157265
218,699.1034315070668
219,699.0931256843221
220,699.083824048053
221,699.0755572805537
222,699.0683568188412
223,699.0622548405623
224,699.0572842196865
225,699.0534784522596
226,699.050871552439
227,699.0494979185046
228,699.0493921679703
229,699.050588940713
230,699.0531226689781
231,699.0570273130041
232,699.0623360612649
233,699.0690809955477
234,699.0772927233079
235,699.0869999823959
236,699.0982292257102
237,699.1110041950884
238,699.125345494507
239,699.1412701723049
240,699.1587913209271
241,699.1779177012431
242,699.1986533974991
243,699.2209975083781
244,699.244943878869
245,699.2704808764263
246,699.2975912135913
247,699.3262518180791
248,699.3564337502544
249,699.3881021671539
250,699.4212163322733
251,699.4557296713274
252,699.4915898755245
253,699.5287390549465
254,699.5671139450969
255,699.6066461696098
256,699.6472625616536
257,699.6888855457718
258,699.7314335806071
259,699.7748216608935
260,699.8189618743961
261,699.8637640068062
262,699.9091361857487
263,699.9549855543875
264,700.00121896529
265,700.0477436857731
266,700.094468106427
267,700.1413024444859
268,700.1881594328617
269,700.2349549843487
270,700.2816088195182
271,700.328045046617
272,700.3741926821262
273,700.4199861012112
274,700.4653654082904
275,700.5102767198483
276,700.5546723547195
277,700.5985109308566
278,700.6417573708761
279,700.6843828205447
280,700.7263644851205
281,700.7676853892071
282,700.8083340670554
283,700.8483041915149
284,700.8875941503918
285,700.9262065788851
286,700.9641478565566
287,701.0014275770855
288,701.0380579986245
289,701.0740534818075
290,701.1094299214745
291,701.1442041771422
292,701.178393506371
293,701.212015004923
294,701.2450850583201
295,701.2776188110342
296,701.3096296615537
297,701.341128793095
298,701.3721247498344
299,701.4026230665384
300,701.4326259556138
301,701.4621320513289
302,701.4911362081045
303,701.5196293490538
304,701.5475983617154
305,701.5750260392439
306,701.6018910666709
307,701.6281680529427
308,701.6538276101331
309,701.6788364814058
310,701.7031577189593
311,701.7267509123847
312,701.7495724667128
313,701.7715759281255
314,701.7927123540048
315,701.8129307227739
316,701.8321783777527
317,701.8504014980598
318,701.8675455887377
319,701.8835559820877
320,701.898378342416
321,701.9119591662701
322,701.9242462695291
323,701.9351892522046
324,701.9447399324071
325,701.9528527425786
326,701.9594850827884
327,701.9645976266629
328,701.9681545752808
329,701.9701238539541
330,701.9704772471184
331,701.9691904678235
332,701.9662431603075
333,701.9616188366651
334,701.9553047513534
335,701.947291719668
336,701.937573888108
337,701.9261484660399
338,701.9130154295841
339,701.8981772099379
340,701.8816383788379
341,701.8634053432255
342,701.8434860595502
343,701.8218897760087
344,701.7986268088476
345,701.7737083567687
346,701.7471463551634
347,701.7189533694643
348,701.6891425251638
349,701.657727471721
350,701.6247223783548
351,701.590141960774
352,701.5540015386377
353,701.5163171237288
354,701.4771055384205
355,701.436384563234
356,701.3941731111515
357,701.3504914247463
358,701.3053612902252
359,701.2588062605714
360,701.2108518784341
361,701.1615258885832
362,701.1108584303198
363,701.0588822026205
364,701.0056325982256
365,700.9511478057073
366,700.8954688797595
367,700.8386397802054
368,700.7807073807973
369,700.7217214501039
370,700.6617346077618
371,700.6008022594425
372,700.5389825133346
373,700.4763360803257
374,700.4129261595021
375,700.348818309744
376,700.2840803071305
377,700.2187819873177
378,700.1529950728407
379,700.0867929873932
380,700.0202506615402
381,699.9534443359477
382,699.8864513685934
383,699.8193500513647
384,699.752219439103
385,699.6851391913519
386,699.6181894248944
387,699.5514505740667
388,699.485003255475
389,699.4189281335433
390,699.353305783005
391,699.2882165441434
392,699.223740366749
393,699.159956639541
394,699.0969440029725
395,699.0347801446478
396,698.9735415781312
397,698.9133034077873
398,698.8541390842561
399,698.796120156776
400,698.7393160294464
401,698.6837937284504
402,698.6296176863965
403,698.5768495487087
404,698.525548005808
405,698.4757686537022
406,698.4275638843928
407,698.3809828062414
408,698.3360711930918
409,698.2928714593883
410,698.2514226568143
411,698.2117604867881
412,698.1739173231455
413,698.1379222405061
414,698.1038010455645
415,698.0715763103437
416,698.0412674078585
417,698.012890551264
418,697.9864588370367
419,697.9619822912007
420,697.9394679160123
421,697.9189197338577
422,697.9003388253212
423,697.8837233584964
424,697.8690686062207
425,697.8563669475383
426,697.8456078500533
427,697.8367778310522
428,697.8298603967081
429,697.8248359594849
430,697.8216817338334
431,697.82037161012
432,697.8208760074843
433,697.823161708506
434,697.8271916815239
435,697.8329248987211
436,697.8403161585808
437,697.8493159204613
438,697.8598701579991
439,697.8719202375304
440,697.8854028276661
441,697.900249846377
442,697.9163884524286
443,697.933741088549
444,697.9522255837165
445,697.9717553206727
446,697.992239471983
447,698.01358330433
448,698.0356885474743
449,698.0584538222789
450,698.0817751214548
451,698.105546336785
452,698.1296598269007
453,698.1540070195346
454,698.1784790411858
455,698.202967365562
456,698.2273644706734
457,698.2515644936686
458,698.275463872798
459,698.2989619675537
460,698.321961650767
461,698.3443698689447
462,698.3660981679924
463,698.3870631807877
464,698.4071870725253
465,698.4263979405504
466,698.4446301668792
467,698.4618247224302
468,698.4779294216504
469,698.4928991252929
470,698.5066958885214
471,698.5192890518921
472,698.530655273928
473,698.5407785053233
474,698.5496499057864
475,698.557267705058
476,698.563637009896
477,698.5687695591309
478,698.5726834294626
479,698.5754026953774
480,698.5769570471122
481,698.5773813707893
482,698.5767152950066
483,698.5750027084619
484,698.5722912532526
485,698.5686317978036
486,698.564077892343
487,698.5586852093561
488,698.5525109720721
489,698.5456133755516
490,698.5380510065961
491,698.5298822697804
492,698.5211648273009
493,698.5119550605023
494,698.5023075613434
495,698.4922746624782
496,698.4819060143934
497,698.4712482169383
498,698.4603445109194
499,698.4492345334256
500,698.437954138179
501,698.4265352799805
502,698.4150059609941
503,698.4033902361672
504,698.3917082746875
505,698.3799764733558
506,698.3682076164305
507,698.3564110757078
508,698.3445930446584
509,698.3327568008127
510,698.3209029908562
511,698.3090299332771
512,698.2971339339475
513,698.2852096102025
514,698.273250218645
515,698.2612479815597
516,698.2491944070309
517,698.2370805986939
518,698.2248975521771
519,698.2126364363809
520,698.2002888586783
521,698.1878471138284
522,698.1753044166269
523,698.1626551180998
524,698.1498949046642
525,698.1370209792964
526,698.1240322232036
527,698.1109293360386
528,698.0977149531501
529,698.0843937399271
530,698.0709724648502
531,698.0574600531313
532,698.0438676217756
533,698.0302084957682
534,698.01649820489
535,698.0027544612013
536,697.9889971176843
537,697.9752481088858
538,697.9615313753026
539,697.9478727746687
540,697.9342999842518
541,697.9208423980728
542,697.9075310219445
543,697.8943983680624
544,697.8814783498956
545,697.8688061772735
546,697.8564182506171
547,697.8443520522335
548,697.8326460318854
549,697.8213394838143
550,697.8104724130259
551,697.8000853897595
552,697.7902193925336
553,697.7809156418333
554,697.7722154279231
555,697.7641599365253
556,697.756790074748
557,697.750146297584
558,697.7442684343924
559,697.7391955159624
560,697.734965605152
561,697.7316156359287
562,697.7291812659902
563,697.7276967473648
564,697.7271948180911
565,697.7277066163718
566,697.7292616166284
567,697.7318875851237
568,697.7356105516545
569,697.7404547930952
570,697.7464428239253
571,697.7535953883273
572,697.7619314483488
573,697.7714681632675
574,697.7822208566762
575,697.7942029695629
576,697.8074259989418
577,697.8218994217037
578,697.8376306025816
579,697.8546246844506
580,697.87288445924
581,697.8924102182073
582,697.913199580652
583,697.9352473002365
584,697.9585450483333
585,697.9830811743655
586,698.0088404438569
587,698.0358037560118
588,698.0639478444418
589,698.0932449671811
590,698.1236625946626
591,698.1551631059808
592,698.1877035042063
593,698.2212351611113
594,698.255703600788
595,698.2910483302306
596,698.3272027230405
597,698.3640939602911
598,698.4016430304993
599,698.4397647886194
600,698.4783680722028
601,698.517355871795
602,698.5566255526512
603,698.5960691256583
604,698.6355735662529
605,698.6750211806713
606,698.71429001926
607,698.7532543370703
608,698.7917851023394
609,698.8297505531601
610,698.86701680138
611,698.9034484809898
612,698.9389094367714
613,698.9732634482016
614,699.006374983209
615,699.038109975782
616,699.068336620309
617,699.0969261740845
618,699.1237537583017
619,699.1486991476024
620,699.1716475389139
621,699.1924902913881
622,699.211125630359
623,699.2274593091746
624,699.2414052234371
625,699.2528859725066
626,699.2618333632054
627,699.2681888507392
628,699.2719039120014
629,699.2729403466491
630,699.2712705019825
631,699.2668774192796
632,699.259754901996
633,699.2499075095425
634,699.2373504832071
635,699.222109612391
636,699.2042210492789
637,699.1837310785609
638,699.1606958466692
639,699.1351810531363
640,699.107261605425
641,699.0770212375637
642,699.0445520918632
643,699.0099542621793
644,698.9733352968059
645,698.9348096588193
646,698.8944981412726
647,698.852527234616
648,698.8090284450125
649,698.764137565082
650,698.7179939021936
651,698.6707394724857
652,698.6225181705789
653,698.5734749256429
654,698.5237548546298
655,698.4735024235044
656,698.4228606273692
657,698.3719702004998
658,698.3209688671877
659,698.2699906435821
660,698.2191651994427
661,698.1686172871904
662,698.1184662440985
663,698.0688255717276
664,698.0198025945963
665,697.9714981977853
666,697.9240066411943
667,697.8774154469068
668,697.8318053555
669,697.787250346679
670,697.7438177189546
671,697.7015682223249
672,697.6605562373884
673,697.6208299942837
674,697.582431825402
675,697.5453984467889
676,697.5097612642419
677,697.4755467011755
678,697.442776546394
679,697.4114683207422
680,697.3816356615882
681,697.3532887227916
682,697.3264345855426
683,697.3010776733128
684,697.2772201632389
685,697.2548623870381
686,697.2340032163507
687,697.214640429
688,697.1967710533629
689,697.1803916880447
690,697.1654987937685
691,697.1520889542451
692,697.140159103275
693,697.1297067166784
694,697.1207299694083
695,697.113227859646
696,697.1072003023953
697,697.1026481952307
698,697.0995734587955
699,697.0979790547268
700,697.0978689838361
701,697.0992482671242
702,697.1021229111212
703,697.1064998573534
704,697.1123869143539
705,697.1197926701788
706,697.128726383668
707,697.139197853258
708,697.1512172628304
709,697.1647950050528
710,697.1799414838217
711,697.196666898339
712,697.2149810116442
713,697.2348929061689
714,697.2564107285626
715,697.2795414264178
716,697.3042904810513
717,697.3306616426926
718,697.3586566760696
719,697.3882751245094
720,697.4195140992182
721,697.4523680983436
722,697.4868288590986
723,697.522885246001
724,697.5605231780479
725,697.5997255962332
726,697.6404724705224
727,697.6827408437158
728,697.7265049094831
729,697.7717361226499
730,697.8184033402756
731,697.8664729915912
732,697.915909273966
733,697.9666743714253
734,698.0187286921893
735,698.0720311221859
736,698.1265392921175
737,698.182209855886
738,698.2389987777451
739,698.2968616248021
740,698.3557538610404
741,698.4156311391371
742,698.4764495867561
743,698.5381660843173
744,698.6007385312963
745,698.6641260980708
746,698.7282894605315
747,698.7931910152064
748,698.8587950731468
749,698.925068030871
750,698.9919785161912
751,699.059497505878
752,699.1275984109374
753,699.1962571241434
754,699.2654520239842
755,699.335163929726
756,699.4053760037904
757,699.4760735997562
758,699.5472440566093
759,699.6188764420676
760,699.6909612497827
761,699.7634900567862
762,699.8364551484378
763,699.9098491182062
764,699.9836644490828
765,700.0578930826757
766,700.1325259811316
767,700.2075526857794
768,700.2829608750183
769,700.3587359232291
770,700.4348604630807
771,700.5113139555355
772,700.5880722745198
773,700.6651073155975
774,700.7423866392381
775,700.8198731590825
776,700.8975248843079
777,700.9752947234016
778,701.0531303546308
779,701.1309741662669
780,701.2087632673304
781,701.2864295675495
782,701.363899923468
783,701.4410963461853
784,701.5179362653679
785,701.5943328441823
786,701.6701953404488
787,701.745429510085
788,701.8199380495345
789,701.8936210742853
790,701.9663766304237
791,702.0381012351561
792,702.1086904409245
793,702.1780394169442
794,702.2460435418312
795,702.3125990010238
796,702.3776033827422
797,702.4409562662519
798,702.5025597961545
799,702.5623192365603
800,702.6201434997914
801,702.6759456457283
802,702.7296433493583
803,702.781159335082
804,702.8304217771575
805,702.8773646667688
806,702.9219281474642
807,702.9640588215362
808,703.003710029827
809,703.0408421065096
810,703.0754226090536
811,703.1074265223759
812,703.136836435369
813,703.1636426874546
814,703.1878434823311
815,703.2094449655999
816,703.2284612625458
817,703.2449144721978
818,703.2588346141767
819,703.2702595256683
820,703.2792347066742
821,703.2858131122401
822,703.2900548908704
823,703.2920270691211
824,703.2918031836224
825,703.2894628634721
826,703.285091367783
827,703.2787790847007
828,703.2706209992881
829,703.2607161384428
830,703.2491670013384
831,703.2360789831448
832,703.2215597975172
833,703.2057189002337
834,703.1886669139153
835,703.1705150527899
836,703.1513745464622
837,703.1313560618051
838,703.1105691222652
839,703.0891215243453
840,703.0671187517833
841,703.0446633888511
842,703.0218545354634
843,702.9987872287953
844,702.975551878678
845,702.9522337262731
846,702.9289123364778
847,702.905661133897
848,702.882546990591
849,702.8596298720602
850,702.8369625465677
851,702.8145903616476
852,702.7925510902362
853,702.770874847617
854,702.7495840794736
855,702.7286936203934
856,702.7082108208839
857,702.688135739675
858,702.6684613971988
859,702.6491740855997
860,702.6302537301941
861,702.6116742969416
862,702.5934042402118
863,702.575406984716
864,702.5576414346336
865,702.5400625020033
866,702.5226216462896
867,702.5052674186337
868,702.4879460075229
869,702.4706017861072
870,702.4531778634645
871,702.4356166421281
872,702.4178603826822
873,702.3998517740507
874,702.3815345058347
875,702.3628538371905
876,702.3437571560122
877,702.324194522781
878,702.3041191947393
879,702.2834881272117
880,702.2622624496026
881,702.2404079138087
882,702.2178953125863
883,702.1947008649823
884,702.1708065652987
885,702.1462004912964
886,702.1208770669828
887,702.0948372758288
888,702.068088821211
889,702.0406462314805
890,702.012530907467
891,701.9837711112095
892,701.9544018965612
893,701.9244649843444
894,701.8940085860613
895,701.8630871805349
896,701.8317612477983
897,701.8000969644629
898,701.7681658643922
899,701.7360444675171
900,701.7038138786032
901,701.6715593574783
902,701.639369862291
903,701.6073375667884
904,701.5755573512422
905,701.5441262656601
906,701.5131429643004
907,701.4827071121058
908,701.452918765491
909,701.4238777312725
910,701.3956829084567
911,701.36843161856
912,701.3422189311926
913,701.3171369924067
914,701.2932743635482
915,701.2707153782576
916,701.2495395250165
917,701.2298208621472
918,701.2116274713162
