frame_number,force
0,500.18844000520744
1,500.164630742539
2,500.14092488656047
3,500.1174248369517
4,500.0942309991392
5,500.07144083493165
6,500.0491479666037
7,500.02744134737327
8,500.0064045088911
9,499.98611489432085
10,499.9666432837756
11,499.94805331724854
12,499.93040111869016
13,499.9137350233397
14,499.8980954083896
15,499.88351462428506
16,499.8700170209179
17,499.85761906068467
18,499.846329509397
19,499.8361496961242
20,499.8270738336008
21,499.8190893911711
22,499.8121775119477
23,499.8063134650989
24,499.8014671235749
25,499.7976034576876
26,499.7946830359391
27,499.7926625262346
28,499.791495192776
29,499.7911313859463
30,499.79151902378976
31,499.7926040641162
32,499.79433096617
33,499.7966431404682
34,499.7994833846716
35,499.8027943022051
36,499.80651869946297
37,499.81059995743914
38,499.81498237420016
39,499.8196114751443
40,499.82443428848893
41,499.8293995843347
42,499.8344580769198
43,499.83956259065206
44,499.8446681907514
45,499.84973227915657
46,499.85471465633293
47,499.8595775500636
48,499.86428561316995
49,499.8688058930334
50,499.87310777606547
51,499.8771629093876
52,499.88094510026684
53,499.88443019223183
54,499.8875959160591
55,499.8904217142076
56,499.89288853861694
57,499.8949786238062
58,499.8966752395491
59,499.89796242960455
60,499.8988247445893
61,499.8992469778379
62,499.89921391289846
63,499.8987100902439
64,499.89771959917175
65,499.8962258992181
66,499.89421167426707
67,499.8916587223447
68,499.88854788467484
69,499.8848590179318
70,499.88057101272733
71,499.8756618592439
72,499.87010875854173
73,499.8638882763614
74,499.85697653544867
75,499.8493494423072
76,499.8409829444815
77,499.83185331476665
78,499.8219374590882
79,499.81121324508103
80,499.79965984830926
81,499.7872581124845
82,499.77399091943397
83,499.759843564556
84,499.7448041340498
85,499.7288638805065
86,499.7120175928258
87,499.69426395520424
88,499.67560588903024
89,499.65605087134156
90,499.6356112239553
91,499.6143043684128
92,499.59215304330445
93,499.56918548163884
94,499.5454355459204
95,499.52094281764437
96,499.49575263702724
97,499.4699160889432
98,499.4434899323625
99,499.41653647232084
100,499.3891233746618
101,499.3613234241087
102,499.3332142259209
103,499.3048778510895
104,499.27640042538184
105,499.2478716639641
106,499.21938435566113
107,499.1910338033724
108,499.162917228768
109,499.135133149645
110,499.10778073735713
111,499.0809591600758
112,499.0547669161331
113,499.0293011612376
114,499.0046570343932
115,498.9809269893313
116,498.9582001399023
117,498.9365616280192
118,498.91609202132486
119,498.8968667457349
120,498.8789555565373
121,498.8624220512163
122,498.847323227305
123,498.8337090890472
124,498.8216223073625
125,498.8110979383049
126,498.80216320528547
127,498.79483734949474
128,498.78913155164435
129,498.78504892693013
130,498.78258459401604
131,498.78172581747657
132,498.78245222145534
133,498.7847360706101
134,498.7885426131166
135,498.79383047968844
136,498.8005521319104
137,498.8086543522881
138,498.81807876728385
139,498.8287623935397
140,498.8406381965875
141,498.85363565047516
142,498.8676812861715
143,498.8826992171479
144,498.8986116325399
145,498.91533925107774
146,498.93280173143233
147,498.9509180361479
148,498.96960674725153
149,498.9887863327922
150,499.0083753654039
151,499.0282926960952
152,499.04845758820244
153,499.068789817492
154,499.08920974488717
155,499.1096383684366
156,499.1299973610654
157,499.1502091003455
158,499.17019669612324
159,499.18988402165365
160,499.2091957540418
161,499.228057429953
162,499.24639552226137
163,499.2641375425355
164,499.2812121732925
165,499.2975494329506
166,499.3130808753001
167,499.3277398239914
168,499.34146164103635
169,499.3541840268872
170,499.36584734849214
171,499.3763949907026
172,499.3857737252028
173,499.39393408970386
174,499.4008307686926
175,499.40642296573145
176,499.410674756484
177,499.4135554117693
178,499.41503968115586
179,499.4151080295974
180,499.4137468221258
181,499.4109484543269
182,499.40671142866677
183,499.4010403782892
184,499.39394604064904
185,499.3854451834256
186,499.3755604848119
187,499.36432036992517
188,499.35175880499133
189,499.33791505105984
190,499.32283337941203
191,499.3065627518777
192,499.2891564708919
193,499.2706718056819
194,499.2511696018826
195,499.2307138819206
196,499.2093714427481
197,499.18721145630474
198,499.1643050767933
199,499.1407250574041
200,499.1165453773281
201,499.09184087810956
202,499.0666869073305
203,499.0411589675625
204,499.01533236901537
205,498.9892818848653
206,498.96308140888476
207,498.9368036160658
208,498.9105196284969
209,498.88429869045706
210,498.8582078581375
211,498.8323117103933
212,498.806672087312
213,498.78134786298637
214,498.75639475771317
215,498.7318651930588
216,498.7078081908603
217,498.68426931451586
218,498.6612906486459
219,498.63891081205094
220,498.6171649985546
221,498.5960850400929
222,498.5756994863533
223,498.55603369604347
224,498.5371099365853
225,498.5189474908089
226,498.50156277013224
227,498.4849694337724
228,498.469178513443
229,498.45419854317475
230,498.4400356940981
231,498.4266939137048
232,498.41417506805607
233,498.402479083948
234,498.3916040866562
235,498.3815465280123
236,498.372301299636
237,498.36386182740756
238,498.3562201455164
239,498.34936695110474
240,498.3432916428552
241,498.3379823481587
242,498.3334259437069
243,498.3296080740584
244,498.3265131722249
245,498.32412448524803
246,498.322424106029
247,498.3213930111742
248,498.321011104148
249,498.32125726347925
250,498.3221093963442
251,498.32354449803245
252,498.325538717515
253,498.32806742852125
254,498.33110530426364
255,498.3346263929316
256,498.3386041912607
257,498.3430117149802
258,498.34782156688016
259,498.3530060046741
260,498.3585370115386
261,498.3643863724542
262,498.3705257594906
263,498.3769268289874
264,498.3835613331618
265,498.39040124795383
266,498.39741891770143
267,498.40458721542547
268,498.4118797152762
269,498.41927087159377
270,498.42673619769494
271,498.4342524371543
272,498.441797720671
273,498.44935170220924
274,498.456895668982
275,498.46441262129423
276,498.4718873204023
277,498.479306305227
278,498.4866578815835
279,498.493932089923
280,498.50112065871235
281,498.50821695031345
282,498.51521590509526
283,498.52211398805946
284,498.52890914059907
285,498.53560073832176
286,498.5421895548221
287,498.54867773130593
288,498.5550687525724
289,498.5613674301862
290,498.56757989336637
291,498.5737135872614
292,498.579777277017
293,498.58578105457934
294,498.5917363440214
295,498.59765590097095
296,498.6035538024772
297,498.60944542467354
298,498.61534740616634
299,498.62127759499333
300,498.627254976437
301,498.6332995783789
302,498.6394323507856
303,498.6456750166447
304,498.6520498930536
305,498.6585796827302
306,498.6652872375268
307,498.6721952963797
308,498.6793262005485
309,498.686701589207
310,498.69434207879124
311,498.70226693023307
312,498.71049370937334
313,498.7190379472301
314,498.7279128079687
315,498.7371287730176
316,498.74669334985686
317,498.75661081383225
318,498.7668819909394
319,498.7775040888146
320,498.7884705823177
321,498.79977115915693
322,498.81139172966317
323,498.82331450289644
324,498.8355181292442
325,498.8479779080181
326,498.8606660570598
327,498.8735520395728
328,498.8866029414753
329,498.89978389118585
330,498.913058513155
331,498.9263894059232
332,498.93973863432285
333,498.9530682240973
334,498.9663406468944
335,498.97951928485935
336,498.9925688663092
337,499.0054558663687
338,499.01814886873615
339,499.03061888714814
340,499.0428396474794
341,499.0547878330248
342,499.06644329576596
343,499.0777892355504
344,499.0888123480736
345,499.0995029421329
346,499.1098550267095
347,499.11986636850656
348,499.1295385205024
349,499.1388768220341
350,499.14789037104583
351,499.1565919695695
352,499.1649980444836
353,499.1731285469828
354,499.1810068354014
355,499.1886595464474
356,499.19611645911993
357,499.20341035358746
358,499.2105768646615
359,499.2176543269855
360,499.2246836071211
361,499.23170791641485
362,499.23877259786843
363,499.2459248802256
364,499.25321359297016
365,499.2606888366244
366,499.2684016034784
367,499.27640334480884
368,499.28474548212637
369,499.29347886227913
370,499.3026531590978
371,499.312316227036
372,499.3225134142982
373,499.3332868443062
374,499.3446746757281
375,499.35671035304745
376,499.36942186125833
377,499.38283099909137
378,499.3969526854722
379,499.4117943144488
380,499.4273551744812
381,499.44362594763703
382,499.4605883022165
383,499.47821458925154
384,499.49646765011596
385,499.5153007393332
386,499.5346575634069
387,499.55447243336715
388,499.57467052638145
389,499.59516825062707
390,499.61587370729285
391,499.636687243207
392,499.65750208690645
393,499.67820506064623
394,499.69867736152275
395,499.71879540597615
396,499.7384317322677
397,499.7574559547878
398,499.7757357629522
399,499.79313795658857
400,499.80952950919334
401,499.8247786502027
402,499.83875595728136
403,499.851335449293
404,499.862395670184
405,499.87182075393923
406,499.879501461017
407,499.88533617656924
408,499.88923186002086
409,499.89110493483946
410,499.89088210726896
411,499.8885011034123
412,499.8839113148592
413,499.87707434375426
414,499.86796443900516
415,499.8565688168777
416,499.84288786187784
417,499.826935207114
418,499.80873769634803
419,499.78833523224563
420,499.76578051705894
421,499.7411386932204
422,499.7144868919612
423,499.68591369822155
424,499.65551854029155
425,499.6234110130066
426,499.58971014345656
427,499.55454360754186
428,499.5180469045613
429,499.4803624961026
430,499.44163891531366
431,499.40202985305785
432,499.361693228046
433,499.320790248208
434,499.27948447001665
435,499.2379408615994
436,499.19632487509256
437,499.15480153402535
438,499.1135345419761
439,499.0726854186834
440,499.03241266907105
441,498.9928709895712
442,498.9542105153246
443,498.9165761118262
444,498.8801067153819
445,498.844934727751
446,498.81118547075545
447,498.77897670586333
448,498.7484182217632
449,498.71961149001436
450,498.6926493855955
451,498.6676159664155
452,498.64458630446086
453,498.6236263617069
454,498.60479290601546
455,498.58813346488483
456,498.5736863165726
457,498.56148051785647
458,498.55153596608216
459,498.5438634917024
460,498.53846497736686
461,498.5353335005935
462,498.53445349798676
463,498.53580094910825
464,498.5393435778548
465,498.5450410695143
466,498.55284530300764
467,498.5627005997101
468,498.57454399168006
469,498.5883055123938
470,498.603908512082
471,498.62126999793134
472,498.64030099757645
473,498.6609069432021
474,498.68298807337453
475,498.70643985015835
476,498.73115338995046
477,498.75701590753977
478,498.783911173702
479,498.81171998683385
480,498.8403206587551
481,498.869589513995
482,498.8994014007893
483,498.9296302110053
484,498.96014940548815
485,498.99083254079426
486,499.02155379296505
487,499.0521884742296
488,499.0826135394787
489,499.11270808097254
490,499.14235381184204
491,499.1714355410151
492,499.199841643357
493,499.2274645284562
494,499.25420110988705
495,499.2799532748208
496,499.3046283522891
497,499.3281395774832
498,499.3504065489502
499,499.3713556748501
500,499.3909206031352
501,499.409042628692
502,499.4256710687752
503,499.44076359724176
504,499.45428652845385
505,499.46621504272963
506,499.4765333460729
507,499.48523475724505
508,499.4923217152887
509,499.4978057010166
510,499.50170706749554
511,499.5040547773119
512,499.50488604755316
513,499.50424590610476
514,499.50218666494953
515,499.49876731780694
516,499.4940528705387
517,499.4881136132265
518,499.48102434288916
519,499.4728635457505
520,499.4637125480928
521,499.4536546452533
522,499.4427742191297
523,499.4311558553484
524,499.4188834717381
525,499.406039469663
526,499.3927039190139
527,499.37895378676507
528,499.3648622188361
529,499.35049788562026
530,499.3359244018688
531,499.3211998304519
532,499.3063762768701
533,499.2914995785142
534,499.27660909092384
535,499.26173757283925
536,499.2469111716395
537,499.23214950975216
538,499.21746587070083
539,499.2028674812283
540,499.18835588395103
541,499.1739273934223
542,499.15957362716983
543,499.14528210224455
544,499.1310368871231
545,499.11681929803217
546,499.10260862735726
547,499.08838289018746
548,499.07411957426564
549,499.0597963790314
550,499.0453919305702
551,499.0308864607591
552,499.0162624406764
553,499.00150516015
554,498.9866032466762
555,498.9715491177985
556,498.9563393617608
557,498.9409750419394
558,498.92546192089077
559,498.9098105998512
560,498.8940365697337
561,498.87816017056133
562,498.86220645799995
563,498.84620497828786
564,498.8301894563243
565,498.81419740525496
566,498.79826966850084
567,498.7824499063217
568,498.7667840389729
569,498.751319657869
570,498.73610541514
571,498.7211904005812
572,498.70662351346346
573,498.6924528354109
574,498.6787250098729
575,498.66548463365325
576,498.6527736662948
577,498.64063086351194
578,498.62909124118033
579,498.61818557674314
580,498.6079399551874
581,498.59837536657193
582,498.58950736141105
583,498.58134576950926
584,498.5738944873889
585,498.5671513389425
586,498.56110801292164
587,498.55575007928525
588,498.551057084676
589,498.5470027259809
590,498.54355510036095
591,498.54067702989215
592,498.5383264583991
593,498.5364569169285
594,498.5350180527044
595,498.53395621444065
596,498.5332150848881
597,498.5327363502261
598,498.5324603959945
599,498.5323270205625
600,498.5322761587636
601,498.5322486092303
602,498.5321867584944
603,498.5320352931557
604,498.531741889167
605,498.531257865843
606,498.53053879268236
607,498.52954503942004
608,498.5282422625086
609,498.5266018229772
610,498.52460113102404
611,498.5222239126618
612,498.51946039429737
613,498.5163074025958
614,498.5127683790643
615,498.5088533109945
616,498.5045785820894
617,498.4999667469237
618,498.4950462337966
619,498.4898509814363
620,498.4844200165796
621,498.47879698091583
622,498.47302961660205
623,498.46716921969244
624,498.4612700708406
625,498.4553888524933
626,498.44958406108265
627,498.4439154213141
628,498.43844330796946
629,498.433228179293
630,498.42833002508013
631,498.4238078316292
632,498.41971906450067
633,498.4161191688909
634,498.4130610869829
635,498.4105947921569
636,498.4087668412376
637,498.4076199477289
638,498.40719258078065
639,498.40751859582736
640,498.4086269032307
641,498.4105411812305
642,498.4132796394302
643,498.4168548386772
644,498.4212735720936
645,498.4265368101304
646,498.4326397104574
647,498.4395716917534
648,498.44731656886063
649,498.45585274508113
650,498.46515345598345
651,498.47518705831357
652,498.4859173571401
653,498.49730396361434
654,498.50930267465105
655,498.5218658651251
656,498.5349428835257
657,498.5484804435301
658,498.56242300610586
659,498.57671314878763
660,498.5912919200964
661,498.60609917753385
662,498.621073907661
663,498.63615452717283
664,498.6512791648726
665,498.6663859257704
666,498.6814131396377
667,498.6962995967998
668,498.7109847738575
669,498.72540905185315
670,498.73951392913847
671,498.7532422305333
672,498.76653831349887
673,498.7793482717282
674,498.7916201370244
675,498.8033040810345
676,498.8143526187017
677,498.8247208150569
678,498.8343664964643
679,498.84325046683693
680,498.85133672860354
681,498.8585927072555
682,498.86498947729035
683,498.87050198656664
684,498.87510927548254
685,498.87879468673725
686,498.88154606065035
687,498.88335591036576
688,498.88422157110995
689,498.884145318152
690,498.8831344490562
691,498.881201326937
692,498.8783633825744
693,498.8746430744179
694,498.87006780677643
695,498.86466980775714
696,498.8584859694807
697,498.85155765352795
698,498.8439304646992
699,498.83565399637416
700,498.8267815510514
701,498.81736983961605
702,498.80747866238875
703,498.79717057440826
704,498.7865105371553
705,498.7755655593456
706,498.76440433042177
707,498.7530968513129
708,498.74171406712645
709,498.7303275058273
710,498.7190089265339
711,498.7078299811326
712,498.69686189264075
713,498.68617515241965
714,498.67583923634885
715,498.66592233831113
716,498.6564911182411
717,498.64761046165245
718,498.6393432482589
719,498.6317501290673
720,498.6248893133195
721,498.6188163677509
722,498.61358403038474
723,498.6092420399544
724,498.6058369809004
725,498.6034121433687
726,498.6020073978906
727,498.6016590850507
728,498.6023999208312
729,498.604258918003
730,498.6072613229875
731,498.61142856670347
732,498.61677822789534
733,498.6233240085175
734,498.63107572205547
735,498.64003929615353
736,498.6502167904753
737,498.66160643007004
738,498.6742026541366
739,498.68799617980716
740,498.7029740802537
741,498.71911987610133
742,498.73641363853676
743,498.75483210128385
744,498.7743487771325
745,498.79493407396876
746,498.8165554059376
747,498.8391772972298
748,498.86276147823975
749,498.8872669758997
750,498.9126502016649
751,498.9388650417254
752,498.9658629542975
753,498.9935930783157
754,499.0220023568039
755,499.05103567686973
756,499.0806360269135
757,499.1107446708935
758,499.14130133961174
759,499.17224443934145
760,499.20351127779446
761,499.23503830630824
762,499.26676137599276
763,499.2986160052833
764,499.3305376573075
765,499.3624620275865
766,499.3943253450774
767,499.4260646909436
768,499.45761833851833
769,499.4889261151467
770,499.5199297833835
771,499.5505734360732
772,499.5808038968577
773,499.61057111482086
774,499.63982854033367
775,499.6685334695674
776,499.6966473473555
777,499.72413602094633
778,499.75096993964866
779,499.7771242971794
780,499.8025791151278
781,499.82731926767923
782,499.8513344493797
783,499.87461908876287
784,499.89717221071396
785,499.9189972495367
786,499.94010181357635
787,499.9604974019846
788,499.9801990752815
789,499.99922508348146
790,500.0175964579784
791,500.03533657534433
792,500.05247070215296
793,500.069025529952
794,500.0850287089124
795,500.100508387778
796,500.1154927668265
797,500.1300096698581
798,500.14408614066497
799,500.15774806888237
800,500.1710198497871
801,500.18392408259433
802,500.19648131179866
803,500.2087098156763
804,500.2206254452451
805,500.23224151626863
806,500.2435687566484
807,500.25461531136875
808,500.2653868061111
809,500.27588646843145
810,500.28611530272923
811,500.2960723130591
812,500.30575476634414
813,500.315158487363
814,500.3242781756621
815,500.33310773331954
816,500.3416405916363
817,500.3498700248752
818,500.35778944028493
819,500.3653926354399
820,500.37267401607045
821,500.3796287701026
822,500.3862529965206
823,500.3925437903312
824,500.3984992865756
825,500.4041186666964
826,500.409402129998
827,500.41435083219005
828,500.4189667928501
829,500.4232527746347
830,500.4272121390521
831,500.43084868569997
832,500.4341664832359
833,500.43716970077793
834,500.43986244808127
835,500.44224863184104
836,500.44433183404277
837,500.4461152168085
838,500.44760145697546
839,500.4487927126484
840,500.4496906230695
841,500.4502963425072
842,500.4506106085893
843,500.45063384519204
844,500.4503662991496
845,500.4498082086697
846,500.4489599998185
847,500.44782250596677
848,500.44639720369196
849,500.4446864574774
850,500.44269376497067
851,500.44042399464263
852,500.43788360819696
853,500.43508086094886
854,500.43202597487175
855,500.4287312810625
856,500.42521133049456
857,500.4214829734919
858,500.41756540901144
859,500.41348020474317
860,500.4092512887581
861,500.40490491324516
862,500.40046959058355
863,500.3959760015222
864,500.39145687495653
865,500.386946839111
866,500.3824822447878
867,500.37810096243834
868,500.37384215593136
869,500.3697460368611
870,500.36585360370094
871,500.3622063696822
872,500.35884608195556
873,500.3558144329712
874,500.3531527639287
875,500.3509017600702
876,500.3491011384315
877,500.34778932975723
878,500.3470031567777
879,500.34677751071115
880,500.34714502746544
881,500.3481357654727
882,500.3497768884843
883,500.35209235832684
884,500.35510264397686
885,500.358824454235
886,500.3632705017717
887,500.3684493060312
888,500.37436504102857
889,500.3810174316016
890,500.3884016989342
891,500.39650855394194
892,500.40532423567174
893,500.41483059101097
894,500.4250051915247
895,500.43582148324555
896,500.4472489657326
897,500.45925339733816
898,500.47179702402565
