frame_number,force
0,562.87622000003
1,562.7542145489449
2,562.6399990993874
3,562.540801395457
4,562.4627356079453
5,562.4102919146164
6,562.3859287776353
7,562.3898530510995
8,562.4200564732157
9,562.472611682695
10,562.5421538534504
11,562.6224377466697
12,562.7068774729541
13,562.7890166791786
14,562.8629093978902
15,562.9234103224088
16,562.9663822072953
17,562.9888304290486
18,562.9889739806118
19,562.9662567669254
20,562.9212871585341
21,562.8556776805169
22,562.7717658425089
23,562.6722357683572
24,562.5597021113452
25,562.436339224521
26,562.3036343324871
27,562.1623134404039
28,562.012440042977
29,561.8536416631465
30,561.6854006598286
31,561.5073559455242
32,561.3195832738757
33,561.1228349002054
34,560.9187195016625
35,560.7097974018111
36,560.4995697376783
37,560.2923623349214
38,560.0931256280454
39,559.9071598476584
40,559.7397402591396
41,559.5956113062921
42,559.4783717114592
43,559.3898613092234
44,559.3297239857684
45,559.2953020511236
46,559.2819112117585
47,559.2834148708147
48,559.2929352989481
49,559.3035319240882
50,559.3087254349828
51,559.3028221397532
52,559.2810680322536
53,559.2397134216344
54,559.1760850737821
55,559.0887368469504
56,558.9776812566472
57,558.844620080051
58,558.6930446417681
59,558.5281006139749
60,558.3561926158701
61,558.1843916932879
62,558.0197597527617
63,557.8687069158675
64,557.7364704112282
65,557.6267693591298
66,557.5416500791304
67,557.4814906000078
68,557.4451025260945
69,557.4298766175549
70,557.4319545358815
71,557.4464396561812
72,557.4676680733126
73,557.4895532219264
74,557.5060008588925
75,557.5113658084975
76,557.5008914340009
77,557.4710518398489
78,557.4197271128195
79,557.3461960842982
80,557.2510106507983
81,557.1358674574157
82,557.0035690621636
83,556.8580791040155
84,556.7045893140238
85,556.5494845182412
86,556.4001179423074
87,556.2643627779335
88,556.1499623294279
89,556.0637569601115
90,556.0109190600973
91,555.9943519937907
92,556.0143779772778
93,556.0687628961734
94,556.1530440698835
95,556.2610716454252
96,556.38565177671
97,556.5191840535139
98,556.654211588245
99,556.783842249038
100,556.9020376415573
101,557.0037878523073
102,557.0851962152467
103,557.1435009797353
104,557.1770640884531
105,557.1853556532197
106,557.1689480148116
107,557.1295043382606
108,557.0697195903358
109,556.993171285807
110,556.9040688231618
111,556.8069324770267
112,556.7062613243177
113,556.6062493821818
114,556.5105809677402
115,556.4222990859062
116,556.3437212230589
117,556.276384686017
118,556.2210278413083
119,556.1776367376132
120,556.1455918536445
121,556.1239281054872
122,556.1116778059825
123,556.1082199479561
124,556.113537830265
125,556.1283086287826
126,556.153802685595
127,556.1916308543563
128,556.243423227921
129,556.310534264614
130,556.3938426057969
131,556.493669338166
132,556.6098006509948
133,556.7415738502195
134,556.8879706095481
135,557.0476714190875
136,557.2190615835962
137,557.4002156982814
138,557.5888986635395
139,557.782608688641
140,557.9786693189008
141,558.1743659774653
142,558.3671212677303
143,558.5547066441948
144,558.735480967152
145,558.9086197742932
146,559.0742672040868
147,559.2335329223538
148,559.3882820716898
149,559.540717516805
150,559.6928120562692
151,559.8456958806853
152,559.9991264138233
153,560.151159257911
154,560.2981081345424
155,560.4348363364586
156,560.5553614473415
157,560.6536793940553
158,560.7246437344651
159,560.7647132529643
160,560.7724344053876
161,560.7486304012576
162,560.6963590756201
163,560.6207292460973
164,560.5286367999356
165,560.4284340416388
166,560.3295085796589
167,560.241738390559
168,560.1748148856486
169,560.1374732499357
170,560.1367110923035
171,560.177093393237
172,560.2602340951308
173,560.3845232944593
174,560.5451456665622
175,560.7344155113736
176,560.942430340811
177,561.1580074105857
178,561.3698152935698
179,561.5675614062415
180,561.7430690999341
181,561.8910874196422
182,562.0097174252267
183,562.1003963306325
184,562.1674473012057
185,562.217273841953
186,562.2573344017563
187,562.2950560734432
188,562.3368419945757
189,562.3873106449424
190,562.4488746620157
191,562.5217135458272
192,562.6041242142255
193,562.6931613453501
194,562.7854236967166
195,562.8778217439014
196,562.9681841200078
197,563.055613627113
198,563.1405664003028
199,563.2246838260213
200,563.3104483631992
201,563.4007556270765
202,563.4984878642406
203,563.606141056721
204,563.7255244725176
205,563.8575405805877
206,564.0020569910173
207,564.1578800546661
208,564.322829045754
209,564.4938968847318
210,564.6674707027819
211,564.839580596098
212,565.0061557443661
213,565.1632842270708
214,565.3074771329844
215,565.4359241037973
216,565.5467092709856
217,565.6389506442933
218,565.7128412989795
219,565.769599657357
220,565.8113564485146
221,565.8410001551097
222,565.8619793031907
223,565.8780481873614
224,565.8929618581236
225,565.9101604117637
226,565.9324967071425
227,565.9620441177397
228,565.9999934927438
229,566.046632821726
230,566.1013987905314
231,566.1629857805564
232,566.2294919477132
233,566.2985814207277
234,566.3676531084479
235,566.434024348445
236,566.4951469852386
237,566.548864807404
238,566.5936959750907
239,566.6290914161104
240,566.6555958204108
241,566.6748396754762
242,566.6893247481917
243,566.702016058834
244,566.7157974892552
245,566.7328768925549
246,566.7542433205173
247,566.7792812538229
248,566.8056267935481
249,566.8293100746287
250,566.8451774812268
251,566.8475367420543
252,566.8309265904859
253,566.790893616547
254,566.7246718175389
255,566.6316923312398
256,566.5138716995052
257,566.3756276399566
258,566.2235818429134
259,566.0659583768119
260,565.9117548287652
261,565.7698036233006
262,565.6478356832472
263,565.5516363762013
264,565.4843748554392
265,565.4461884290313
266,565.4340915818385
267,565.4422463339064
268,565.4625844105692
269,565.4857216516292
270,565.5020586002316
271,565.5029274928169
272,565.4816329618858
273,565.4342438785092
274,565.3600247542885
275,565.2614418981032
276,565.1437360179916
277,565.0141165015523
278,564.8806986682657
279,564.75135673685
280,564.6326793926414
281,564.5291844479099
282,564.4428882702146
283,564.3732556911345
284,564.3174927752976
285,564.2710977256927
286,564.22856250544
287,564.1841240784039
288,564.1324890356415
289,564.0694746994786
290,563.99251137303
291,563.9009503756051
292,563.7961446313933
293,563.6813101817922
294,563.5612088392421
295,563.4416967119056
296,563.329177013714
297,563.2300030909694
298,563.1498976304083
299,563.0934618938556
300,563.0638264683118
301,563.0624519554158
302,563.0890525665661
303,563.1416076574802
304,563.2164429035784
305,563.308387060606
306,563.4110251961933
307,563.5170675014875
308,563.618836612009
309,563.7088478832787
310,563.7804189917068
311,563.8282124402984
312,563.848607899873
313,563.8398321603354
314,563.8018380366009
315,563.7359949592967
316,563.6446960898921
317,563.5309780090096
318,563.3982044643992
319,563.2498238342263
320,563.0891930568677
321,562.9194564565319
322,562.7434587708866
323,562.5636660656614
324,562.3820827616805
325,562.200180837215
326,562.0188760677842
327,561.8385857922593
328,561.6593868117403
329,561.4812655129477
330,561.3044227625726
331,561.1295756324657
332,560.958191624075
333,560.7925949003536
334,560.6358999764471
335,560.4917631856482
336,560.3639863926273
337,560.2560342964052
338,560.1705249726493
339,560.1087435513404
340,560.0702350190352
341,560.0525489555899
342,560.0512115661855
343,560.0599761493093
344,560.0713598584155
345,560.0774212341805
346,560.0706739962195
347,560.0449846947598
348,559.9962951090541
349,559.9230579721391
350,559.8263504291417
351,559.7096882038002
352,559.5785839610515
353,559.4398955749703
354,559.3010250486062
355,559.169062701597
356,559.0500000993082
357,558.9481300074415
358,558.865706330743
359,558.8028741373051
360,558.7578300511282
361,558.7271517346917
362,558.7062365207739
363,558.6898006515264
364,558.6724064189714
365,558.64900217225
366,558.615467459666
367,558.5691377412355
368,558.509242403716
369,558.4371504820023
370,558.3563137495903
371,558.2718483181692
372,558.1897931428462
373,558.1161821337022
374,558.0561179838376
375,558.0130257884268
376,557.9882116596806
377,557.9807797777955
378,557.9878860608013
379,558.0052424416405
380,558.0277492945718
381,558.050133195928
382,558.0674971430615
383,558.0757348456981
384,558.0718005998693
385,558.05384920312
386,558.0212670758874
387,557.9746133117454
388,557.9154829330298
389,557.8462964148557
390,557.7700141876154
391,557.6897831609724
392,557.6085495084283
393,557.5287023215458
394,557.4518196448255
395,557.3785605720411
396,557.3087001361655
397,557.2412673584679
398,557.174742288766
399,557.1072929184105
400,557.0370603330003
401,556.9624967972543
402,556.882720443131
403,556.7978034118586
404,556.7088948507284
405,556.6181081114029
406,556.5281623609337
407,556.4418420739439
408,556.3613959942988
409,556.2880141047538
410,556.2214930057353
411,556.1601511311416
412,556.1010112221724
413,556.0402302573785
414,555.9737176579739
415,555.8978451673393
416,555.8101256530371
417,555.7097241381305
418,555.5976691050057
419,555.4766752613384
420,555.3505784237406
421,555.2234936522151
422,555.0988926521152
423,554.9788171072151
424,554.8633940552619
425,554.7507269047503
426,554.6371464088984
427,554.5177499282468
428,554.3871346374151
429,554.2402241784566
430,554.073085978324
431,553.8836347770253
432,553.6721213890622
433,553.4413268207568
434,553.1964297629257
435,552.9445780793096
436,552.6942410274434
437,552.4544276513693
438,552.2338433921021
439,552.0400566669225
440,551.8787676925339
441,551.753281047389
442,551.664255411247
443,551.6097532016482
444,551.5855683862246
445,551.5857807744177
446,551.603460797282
447,551.6314241033781
448,551.6629183856153
449,551.6921358490605
450,551.7144953011538
451,551.7267118725252
452,551.7267334207371
453,551.7136406689868
454,551.6875791528474
455,551.6497375366789
456,551.60234114564
457,551.5486100289495
458,551.4926329928117
459,551.4391237742553
460,551.3930555338436
461,551.3592163762561
462,551.341771632064
463,551.3439249399735
464,551.367729494535
465,551.4140459674909
466,551.4826158101346
467,551.5722214570869
468,551.6809136199196
469,551.806285901071
470,551.9457724927478
471,552.0969447171129
472,552.2577893741746
473,552.4269551521929
474,552.6039386339453
475,552.7891582284934
476,552.9838618343621
477,553.1898460945711
478,553.4090179143949
479,553.6428778854394
480,553.8920292263068
481,554.1558052658349
482,554.4320731354956
483,554.7172336107284
484,555.0064106219503
485,555.2938036773804
486,555.5731530258769
487,555.8382455752846
488,556.0833844523519
489,556.3037637999805
490,556.4957230757769
491,556.656884035486
492,556.7861897525404
493,556.8838723806326
494,556.9513800619347
495,556.9912889768161
496,557.0072065989034
497,557.0036454906705
498,556.9858376460735
499,556.9594777132933
500,556.9304110838405
501,556.9042954113914
502,556.8862590737866
503,556.8805777476853
504,556.8904063283757
505,556.9176252523436
506,556.962859671975
507,557.0256943424345
508,557.1050510025943
509,557.1996462223264
510,557.3084243976482
511,557.4308627293909
512,557.5670694434152
513,557.7176463265112
514,557.883353396058
515,558.0646684303018
516,558.2613547586943
517,558.4721408058142
518,558.6945873680487
519,558.9251798664338
520,559.1596373562526
521,559.3933831924819
522,559.6220812960906
523,559.8421200084964
524,560.0509335722261
525,560.2470907775353
526,560.4301447939921
527,560.6003066964684
528,560.7580449979579
529,560.903711771367
530,561.0372696399422
531,561.1581572953361
532,561.2652883454911
533,561.3571478021286
534,561.4319521236026
535,561.4878591861268
536,561.5232217393125
537,561.5368589910723
538,561.5282901260116
539,561.4978579158742
540,561.4466934133156
541,561.3765326872953
542,561.2894596019656
543,561.1876723756195
544,561.0733447632981
545,560.9486054093943
546,560.8156262647568
547,560.6767954143826
548,560.5349344708768
549,560.3935031279838
550,560.2567256621013
551,560.1295862741214
552,560.0176733895921
553,559.9268959990918
554,559.8631240489217
555,559.8318010998744
556,559.8375496469769
557,559.8837691726648
558,559.9722378656986
559,560.1027649884428
560,560.2729720264022
561,560.4782769220634
562,560.7121121850047
563,560.9663503220786
564,561.2318734580688
565,561.4992231131916
566,561.7592865379377
567,562.0039919267657
568,562.2269816743631
569,562.4242105086222
570,562.594384115675
571,562.739135380927
572,562.8628526339662
573,562.9721331821914
574,563.0749180113303
575,563.1794373348462
576,563.2931355043686
577,563.4217446144909
578,563.568650137498
579,563.7346437341706
580,563.918085973527
581,564.1154133275244
582,564.3218468077913
583,564.532129267487
584,564.7411503723413
585,564.944389089028
586,565.1381682156723
587,565.3197471308313
588,565.4872854265911
589,565.6397147829817
590,565.7765696790539
591,565.8978365020934
592,566.0038669046187
593,566.0953662862885
594,566.1734329369954
595,566.2396052459007
596,566.2958768657666
597,566.3446568070942
598,566.3886703856654
599,566.4308051809467
600,566.4739028996315
601,566.5204926168553
602,566.5724642772439
603,566.6307026231325
604,566.6947384434928
605,566.7625044306426
606,566.8302813986238
607,566.892882884602
608,566.9440728839091
609,566.9771679277517
610,566.9857499903671
611,566.9644039096862
612,566.9093866263887
613,566.8191394744354
614,566.6945739693422
615,566.5390977627765
616,566.3583961858563
617,566.1600258402206
618,565.9528861268354
619,565.7466173021065
620,565.5509600091312
621,565.3751154644557
622,565.2271518158796
623,565.1134967565467
624,565.038548405463
625,565.0044366467177
626,565.0109656464523
627,565.0557505066928
628,565.1345327638551
629,565.2416356238317
630,565.3704999861801
631,565.5142210759703
632,565.6659973822912
633,565.8194292738217
634,565.9686557025448
635,566.1083619521377
636,566.2337140794879
637,566.3402848476811
638,566.4240362410262
639,566.4814107656557
640,566.5095570959965
641,566.5066752756378
642,566.4724141836596
643,566.4082082436945
644,566.3174320643529
645,566.2052946799558
646,566.0784726491903
647,565.9445571655089
648,565.8114307309398
649,565.686682159744
650,565.5771264004687
651,565.4884424403702
652,565.4249079361588
653,565.3892106702064
654,565.3823410733339
655,565.4035880313465
656,565.4506591530534
657,565.5199295291986
658,565.6067956991243
659,565.7060885877643
660,565.8124978923679
661,565.9209783445757
662,566.027125243665
663,566.1275070405078
664,566.2199268012341
665,566.3035691133309
666,566.3789975796847
667,566.4480041961773
668,566.5133498204831
669,566.5784450176534
670,566.6470005938871
671,566.7226519567076
672,566.8085553933211
673,566.9069710106462
674,567.0188737759453
675,567.1436545863236
676,567.2789738902276
677,567.4208053313545
678,567.5636657396291
679,567.7009921680103
680,567.825611986623
681,567.9302554827391
682,568.0080691265113
683,568.0530931061003
684,568.0606709086667
685,568.0277676343604
686,567.9531847160661
687,567.8376630691665
688,567.6838651722528
689,567.4962292988666
690,567.2807018295059
691,567.0443738374146
692,566.7950681389445
693,566.5409276997171
694,566.2900315189955
695,566.0500209699841
696,565.8276976609745
697,565.6285796702637
698,565.4564541015501
699,565.312995366061
700,565.1975171674942
701,565.1069151433807
702,565.0358507714105
703,564.977206539286
704,564.9227849826639
705,564.8641444601567
706,564.7934121399004
707,564.7039285145124
708,564.5906491412674
709,564.4503139104092
710,564.2814500788581
711,564.0842889489852
712,563.8606596477484
713,563.6138948177475
714,563.3487564855149
715,563.071376026162
716,562.7891959983956
717,562.510889762259
718,562.2462167305985
719,562.0057613507944
720,561.800513024694
721,561.6412745934177
722,561.5379346825719
723,561.4986864830529
724,561.5292991944377
725,561.6325418607767
726,561.8078338024642
727,562.0511628649765
728,562.3552783326061
729,562.710131615448
730,563.1035052724496
731,563.5217498104741
732,563.9505564196223
733,564.3757310451751
734,564.783966556883
735,565.1636000764212
736,565.5052972340459
737,565.802567438193
738,566.0520213264799
739,566.2533325527482
740,566.408928835141
741,566.5234770248929
742,566.6032344726119
743,566.6553335652827
744,566.6870672135444
745,566.7052464137314
746,566.7156926508101
747,566.7229035863801
748,566.7298973463635
749,566.7382132472657
750,566.7480385484624
751,566.7584374031718
752,566.7676596442678
753,566.7734952756883
754,566.7736274556518
755,566.7659353989054
756,566.7487129428878
757,566.7207938094766
758,566.6815962998991
759,566.6311042212241
760,566.5697911229445
761,566.4984894408162
762,566.418214737902
763,566.3299707196203
764,566.2345711652721
765,566.1325145069181
766,566.0239360566903
767,565.9086468954343
768,565.7862517076139
769,565.6563207943608
770,565.5185787123903
771,565.3730756418013
772,565.2203290780647
773,565.0614411889102
774,564.8981901369835
775,564.7330709008098
776,564.5692499227256
777,564.4104079953415
778,564.2604647489178
779,564.1231977541216
780,564.0017948368306
781,563.8984087400638
782,563.8138011976716
783,563.7471524595799
784,563.6960753965818
785,563.6568284978194
786,563.62468617383
787,563.5944033105694
788,563.5607013257206
789,563.51870537659
790,563.4642815898445
791,563.3942558236062
792,563.3065262971543
793,563.2001010572133
794,563.0751002627024
795,562.9327594344296
796,562.7754396280021
797,562.6066011373376
798,562.4306661893886
799,562.2527138051653
800,562.078012573275
801,561.9114738347348
802,561.7571591977038
803,561.6179708868731
804,561.495587456524
805,561.390613856852
806,561.3028450975632
807,561.2315296061923
808,561.1755536371851
809,561.1335188490219
810,561.1037281152746
811,561.0841249642274
812,561.0722460644963
813,561.0652355241092
814,561.0599382106818
815,561.0530602862316
816,561.041377669822
817,561.0219782485374
818,560.9925222482627
819,560.9514971278575
820,560.8984399233058
821,560.8341026173789
822,560.7605401333801
823,560.6811065340115
824,560.6003552978514
825,560.5238502347738
826,560.4578967708616
827,560.4091984953379
828,560.3844416728431
829,560.3898188083913
830,560.4305177882326
831,560.5102198808569
832,560.6306631104229
833,560.7913292710808
834,560.989301020253
835,561.2193171013713
836,561.4740304793298
837,561.7444443264251
838,562.0204787781855
839,562.2916249292915
840,562.5476566420311
841,562.7793596278773
842,562.9791997255063
843,563.1418303612139
844,563.264361214459
845,563.3463578305413
846,563.3895867249296
847,563.3975569021419
848,563.374936879667
849,563.3269389527095
850,563.2587577522751
851,563.1751301369997
852,563.0800476257054
853,562.9766120893487
854,562.8670042318655
855,562.7525423462453
856,562.6338301553276
857,562.5110059346663
858,562.3840974140194
859,562.2534506064311
860,562.1201445288108
861,561.9862627322227
862,561.854903350736
863,561.7298804638501
864,561.6151774242157
865,561.5143088245625
866,561.4297800317808
867,561.3627884898381
868,561.3132246736324
869,561.2799432925266
870,561.2612040253563
871,561.2551393101351
872,561.2601167327722
873,561.274927192655
874,561.2988094165628
875,561.3313682424481
876,561.3724445324511
877,561.4219756199404
878,561.4798759004195
879,561.5459665171448
880,561.6199739976793
881,561.7015949049746
882,561.7905941650619
883,561.8868780175333
884,561.9904725094211
885,562.1013627666566
886,562.2192100235061
887,562.3430355508617
888,562.4709979361177
889,562.6003639044926
890,562.727695502434
891,562.849191461207
892,562.9610707935826
893,563.0598919142305
894,563.1427514661244
895,563.2073691377966
896,563.252100468919
897,563.2759205492265
898,563.2784092607077
899,563.2597577662766
900,563.2207961974748
901,563.1630098462713
902,563.0884915634468
903,562.9997985951636
904,562.8997313846169
905,562.7910909123672
906,562.6764757187605
907,562.5581563700588
908,562.4380346760423
909,562.3176737565418
910,562.198374730601
911,562.0812680301289
912,561.9673846568265
913,561.8576908236116
914,561.7531053110321
915,561.6545402588013
916,561.5629904174895
917,561.4796572663795
