frame_number,force
0,509.61701000001995
1,509.68679690358584
2,509.7472256497035
3,509.78991024178293
4,509.80828968389403
5,509.7982602719539
6,509.75851983633385
7,509.6906020006448
8,509.5986270802564
9,509.48882985761145
10,509.36892907509804
11,509.24739026116896
12,509.13263056481924
13,509.0322317930555
14,508.95224799520776
15,508.89669585869393
16,508.8672938263516
17,508.86347469779673
18,508.8826487946263
19,508.920655760212
20,508.97232402003834
21,509.0320605287035
22,509.0944103244854
23,509.154539847777
24,509.2086074611209
25,509.2540011178776
26,509.28944507841965
27,509.3149855846717
28,509.33185637112587
29,509.34222142619797
30,509.34880970410813
31,509.354482623283
32,509.36178987496555
33,509.3725686289016
34,509.3876369970498
35,509.406629514961
36,509.4280136238212
37,509.4493062466993
38,509.4674772182397
39,509.4794830863372
40,509.48283403449693
41,509.4760799841815
42,509.4591184981879
43,509.4332671293958
44,509.4010902560415
45,509.3660149744941
46,509.3318107415306
47,509.30203975220644
48,509.2795935278671
49,509.26640216187576
50,509.26334700613165
51,509.2703516247595
52,509.28658588195964
53,509.310698025533
54,509.34099416741435
55,509.3755165010696
56,509.41202192551725
57,509.44791404007793
58,509.4802145836465
59,509.5056564486671
60,509.5209341619547
61,509.52308208035583
62,509.509901557373
63,509.48034451306626
64,509.4347760384543
65,509.37506776551095
66,509.3045041962771
67,509.2275101533359
68,509.14923195470766
69,509.0750309319199
70,509.0099679843595
71,508.95836035109323
72,508.9234716430692
73,508.90735668573967
74,508.91083869836814
75,508.9335716179872
76,508.9741477367292
77,509.0302369445251
78,509.0987625594403
79,509.17611892637126
80,509.2584292691347
81,509.3418384428522
82,509.4228256560002
83,509.49850125263833
84,509.56683444757647
85,509.6267619498479
86,509.6781501776402
87,509.72161851765253
88,509.75827010769115
89,509.78940541034467
90,509.81629405236646
91,509.84004814692116
92,509.86159684921324
93,509.88173471800206
94,509.90120854087985
95,509.9208017110199
96,509.9413705016333
97,509.96380291565976
98,509.9889161196472
99,510.01735554621075
100,510.0495650926273
101,510.08584819784676
102,510.12646765263986
103,510.1716952624329
104,510.22175033324964
105,510.27663355718335
106,510.33591840265586
107,510.3985751789062
108,510.4628810826106
109,510.5264365575181
110,510.58628168487814
111,510.63909165889055
112,510.6814247157486
113,510.7099960511472
114,510.7219568024111
115,510.7151611559866
116,510.68839716845923
117,510.641544738874
118,510.57562690468495
119,510.4927424310251
120,510.39589354769544
121,510.28874183547055
122,510.17533833584724
123,510.05988002608655
124,509.9465357311615
125,509.8393562075072
126,509.7422471430324
127,509.658957649696
128,509.59302666679616
129,509.54763690556086
130,509.5253566547372
131,509.52780116912237
132,509.55529535241715
133,509.6066402063209
134,509.67906531404157
135,509.76840123282483
136,509.8694522474592
137,509.9765054608566
138,510.0838821686583
139,510.1864297974606
140,510.2798733784021
141,510.3609883232456
142,510.42760565397646
143,510.4784989449109
144,510.51321425018
145,510.5318909270338
146,510.5351005171633
147,510.52371693736535
148,510.49882266927125
149,510.46164649094237
150,510.413517797939
151,510.3558161214561
152,510.2899013995974
153,510.2170314470222
154,510.13829086422083
155,510.05455498287694
156,509.96650124200767
157,509.8746748450969
158,509.77961378603516
159,509.6820264130547
160,509.58299178976733
161,509.48413716901047
162,509.3877528664746
163,509.29682134932017
164,509.21493844308145
165,509.1460892766385
166,509.09424269038976
167,509.06277255759727
168,509.0537930320105
169,509.06756624037587
170,509.10215617935654
171,509.1534364969205
172,509.21544271934573
173,509.28096471915137
174,509.3422567453184
175,509.3917849503828
176,509.4229735226808
177,509.4309084964943
178,509.4129260971658
179,509.36899035333846
180,509.30178013224145
181,509.21645778906606
182,509.1201535381536
183,509.02123823572543
184,508.92846442827795
185,508.8500555078647
186,508.79283759099235
187,508.76152651552883
188,508.7582726905492
189,508.7825193052825
190,508.8311659706436
191,508.8989792747554
192,508.9791690294686
193,509.0640527325316
194,509.1457468196306
195,509.21683479219666
196,509.2709652272199
197,509.30333705997106
198,509.3110445031859
199,509.2932744033916
200,509.25135768755445
201,509.1886673911186
202,509.1103496116931
203,509.0228942385215
204,508.933590348914
205,508.84993740083496
206,508.77908340696337
207,508.72734074139044
208,508.69980392963413
209,508.7000779969168
210,508.7301233666456
211,508.7902196659123
212,508.87903712050513
213,508.9937884475385
214,509.1304271822303
215,509.2838637453627
216,509.44818676717136
217,509.6168976873981
218,509.7831795642269
219,509.9402186299555
220,510.08158454609094
221,510.20166104427085
222,510.2961004597624
223,510.3622499762333
224,510.3994769832461
225,510.4093226244483
226,510.39543349764557
227,510.3632488971103
228,510.31945447803434
229,510.2712550666087
230,510.22555899550025
231,510.18819226493395
232,510.16326966550554
233,510.1528334255425
234,510.1568166028684
235,510.1733096678514
236,510.1990406496198
237,510.2299501584204
238,510.26175276191964
239,510.29040842181655
240,510.3124623197938
241,510.3252363640028
242,510.3268756599875
243,510.31627998912285
244,510.2929795510867
245,510.25702697933923
246,510.20896199000686
247,510.1498627051002
248,510.0814421037999
249,510.00610672788247
250,509.9268977153035
251,509.8472880793449
252,509.77088463325435
253,509.70112710748685
254,509.6410620214711
255,509.59321789226357
256,509.55956856404435
257,509.54156037455806
258,509.54017703283125
259,509.55600689430327
260,509.589272593071
261,509.6398009633245
262,509.70694305350605
263,509.78947155020234
264,509.88547636202026
265,509.99227009016755
266,510.10632747896966
267,510.2233068719402
268,510.33820026289936
269,510.4456202590312
270,510.5401922029196
271,510.61700785643507
272,510.672100712798
273,510.70289971519134
274,510.7086083262496
275,510.6904497948374
276,510.6517226994855
277,510.5976270110311
278,510.534851570303
279,510.47095578197496
280,510.413621168305
281,510.3698756948685
282,510.34539720414506
283,510.3439890702799
284,510.3672940522411
285,510.41476166898343
286,510.48381719558836
287,510.57013541317326
288,510.6679357193979
289,510.7702802179448
290,510.86942814556625
291,510.9573313438417
292,511.0263234021494
293,511.06997094003856
294,511.0839615053778
295,511.0668488500569
296,511.02048941866764
297,510.9500701454127
298,510.8637060867675
299,510.77164536712206
300,510.685160650139
301,510.61524827539165
302,510.57129826633826
303,510.559921710379
304,510.5841096657678
305,510.64284721126853
306,510.7312288172741
307,510.8410396364891
308,510.9617074907402
309,511.08149923706515
310,511.18881425343756
311,511.27340733079166
312,511.32737582793163
313,511.34579276012806
314,511.326945673958
315,511.27221976986704
316,511.18571696963164
317,511.0737148039862
318,510.9440427558961
319,510.8054157091023
320,510.6667478326149
321,510.53648626423825
322,510.4220301171308
323,510.3293047609591
324,510.26253145853525
325,510.2241788362165
326,510.2150293226145
327,510.23426911032186
328,510.27952957577503
329,510.34685990212665
330,510.4306710962274
331,510.5237406943731
332,510.6173838838681
333,510.7018671155808
334,510.76708322898185
335,510.8034558031282
336,510.8029989978513
337,510.76040953966856
338,510.67401652099977
339,510.5463992181568
340,510.38452499681665
341,510.19934155425193
342,510.0048483337738
343,509.8167503603489
344,509.6508564633141
345,509.5214193628509
346,509.4396231066867
347,509.4124009319929
348,509.4417163363277
349,509.52437478986434
350,509.6523745803941
351,509.81376031378284
352,509.9938925883675
353,510.17698337146743
354,510.3476985006194
355,510.4926272337722
356,510.601457502687
357,510.6677507595236
358,510.68926675305363
359,510.6678374950511
360,510.60882905377
361,510.52026890520807
362,510.4117619873743
363,510.29335582966456
364,510.17451582474433
365,510.0633233409126
366,509.9659350157117
367,509.88628267723556
368,509.8259716729548
369,509.78434200907805
370,509.75867297490566
371,509.74452402482615
372,509.7362042300438
373,509.7273497343753
374,509.7115705327989
375,509.6831100020708
376,509.63744732645074
377,509.57177137644845
378,509.48526794425754
379,509.3791858956668
380,509.2566739271465
381,509.1224030165273
382,508.9820135433101
383,508.84145529879606
384,508.7063124258141
385,508.58120623809634
386,508.4693524291483
387,508.37233654693483
388,508.2901592662127
389,508.22156219783085
390,508.16456888147616
391,508.11710140523564
392,508.0775091609523
393,508.04488981624985
394,508.01916879396316
395,508.0009860910478
396,507.9914833763014
397,507.9920840432088
398,508.00432520419724
399,508.02974555640714
400,508.06977581800714
401,508.1255526017614
402,508.1976090377857
403,508.2854750845024
404,508.3872987212106
405,508.4996274129865
406,508.6174548026878
407,508.7345641455294
408,508.8441210376746
409,508.93941024410356
410,509.0145911781834
411,509.06536031049285
412,509.08943422595985
413,509.0867897341535
414,509.0596266708766
415,509.01206689419706
416,508.9496596834251
417,508.8788019458869
418,508.8061787949938
419,508.7382864210312
420,508.6810391640949
421,508.6394205152147
422,508.6171394182657
423,508.61630122549025
424,508.6371666050904
425,508.6781028163592
426,508.7358025020081
427,508.8057732181522
428,508.88302690199924
429,508.96284654306976
430,509.04148064661615
431,509.11662079059056
432,509.187562293984
433,509.25502079474467
434,509.3206516526525
435,509.3863780432419
436,509.4536696893317
437,509.5229170695953
438,509.59301522613043
439,509.661227373977
440,509.72336073040213
441,509.77425018146
442,509.80849482177445
443,509.8213328824127
444,509.8094973842157
445,509.77189005304183
446,509.70994492735133
447,509.62760947503614
448,509.53093834188815
449,509.4273697904839
450,509.324821900364
451,509.2307767951083
452,509.15150629726213
453,509.09154587442913
454,509.0534612251128
455,509.0378853376627
456,509.04375236579216
457,509.0686349065329
458,509.1091024450951
459,509.16104764483447
460,509.2199599165439
461,509.281152166844
462,509.33996414232865
463,509.3919783669027
464,509.433289481743
465,509.4608501725648
466,509.4728718190544
467,509.46920519974424
468,509.4515940477212
469,509.42369847850506
470,509.39082434004763
471,509.3593509576794
472,509.335909669651
473,509.32642850642804
474,509.3352139736236
475,509.3642581029824
476,509.41291736917043
477,509.4780204180387
478,509.5543539360092
479,509.63539320465907
480,509.71412567156517
481,509.78385680976885
482,509.838934196541
483,509.8753390399755
484,509.8910867029708
485,509.8863794192492
486,509.86347937871204
487,509.82631730940295
488,509.77990569089394
489,509.72966119827237
490,509.6807422453026
491,509.63748432698924
492,509.60299273834926
493,509.57894126666076
494,509.56561002046465
495,509.56215072052265
496,509.56699977087953
497,509.5783106756564
498,509.59428534137993
499,509.6133437022627
500,509.6341435391725
501,509.6555097531082
502,509.6763420993146
503,509.69555235896104
504,509.7120550646135
505,509.72481575020254
506,509.7329547142978
507,509.7359109227966
508,509.73367323904506
509,509.72705930332523
510,509.71796507460124
511,509.7094623188635
512,509.7056378730499
513,509.71115369267545
514,509.7306136647808
515,509.7678928471112
516,509.82558813870577
517,509.9046982308069
518,510.00456955154704
519,510.12308093606663
520,510.2569906077861
521,510.4023396515168
522,510.5548097639614
523,510.7099740526733
524,510.8634373197623
525,511.01090524931357
526,511.1482334815248
527,511.27149243642793
528,511.37706111323143
529,511.46175192753486
530,511.52296775818496
531,511.5588831558867
532,511.5686188700282
533,511.5523622307465
534,511.51139475778075
535,511.44802011022824
536,511.36542368119655
537,511.26752204290847
538,511.1588577163568
539,511.0445539088337
540,510.93028544980103
541,510.8221848860016
542,510.7266093671006
543,510.64973957687533
544,510.5970460309681
545,510.57271408998605
546,510.5791413086712
547,510.61659945836624
548,510.6831052756214
549,510.77449707199156
550,510.8846854340694
551,511.00603795806006
552,511.1298680952536
553,511.24701579425073
554,511.34850975576296
555,511.42627512281797
556,511.47381521072543
557,511.48678028332336
558,511.46334778982407
559,511.40436924314884
560,511.3132791965877
561,511.19579537856873
562,511.059451604393
563,510.9129983537554
564,510.76569660920933
565,510.62654046133565
566,510.50347888088686
567,510.40274093050147
568,510.32836856464365
569,510.2820209599247
570,510.2630504979985
571,510.26878892690735
572,510.2949545472252
573,510.33611025409607
574,510.3861407469504
575,510.4387376125395
576,510.4878747262396
577,510.5282402248002
578,510.5555837021577
579,510.5669471670832
580,510.56077013108523
581,510.53687609833
582,510.49635137600995
583,510.44133076216093
584,510.3747207508396
585,510.29990608284334
586,510.2204809199395
587,510.1400258716902
588,510.06192905295904
589,509.9892267093457
590,509.9244287303905
591,509.86931737803576
592,509.8247544716928
593,509.7905592677292
594,509.76550103800815
595,509.7474093441153
596,509.73338018826126
597,509.7200626454103
598,509.7040287963852
599,509.68222505209343
600,509.652458998321
601,509.61381464237644
602,509.5668560517229
603,509.5135095524066
604,509.45660763394153
605,509.3991948358726
606,509.34377873671144
607,509.29172158260707
608,509.24292154190675
609,509.1958574172986
610,509.1479829604246
611,509.0963701750265
612,509.0384404551153
613,508.97260910990997
614,508.8987055392896
615,508.8181038107347
616,508.73357845672473
617,508.64895827959225
618,508.56867312753985
619,508.4972790889143
620,508.4390204777735
621,508.397458649826
622,508.375177895471
623,508.3735708217037
624,508.3927081412436
625,508.43129970270604
626,508.48674877818485
627,508.55530182863373
628,508.6323035798625
629,508.7125584165961
630,508.7907610265267
631,508.86191835085197
632,508.92168068671253
633,508.9665415368025
634,508.9939214426632
635,509.0021825585765
636,508.990622252038
637,508.9594813538836
638,508.90998341039136
639,508.84439390360274
640,508.76605666541974
641,508.67934269275435
642,508.5894520038164
643,508.5020467391139
644,508.4227467719372
645,508.3565644228125
646,508.30737911869994
647,508.2775531285432
648,508.26776875455846
649,508.27713139690104
650,508.3035369187946
651,508.3442493897021
652,508.3965835612228
653,508.4585503439951
654,508.52932135310687
655,508.6094068391529
656,508.7005080590109
657,508.80508119116195
658,508.9257164115586
659,509.0644725619156
660,509.2223035710461
661,509.3986740167724
662,509.59140398446385
663,509.79672715255066
664,510.009512856261
665,510.22360341358757
666,510.4322378964657
667,510.6285453116182
668,510.8060798965302
669,510.9593471849204
670,511.0842493633276
671,511.17837888740553
672,511.2411176894237
673,511.27354164908866
674,511.2781596707903
675,511.258525952446
676,511.2187737551614
677,511.1631473154525
678,511.0956378554782
679,511.019817330484
680,510.9388918132292
681,510.85590169628233
682,510.7739358912578
683,510.6962289359688
684,510.62606180865674
685,510.56646403100746
686,510.51978967149427
687,510.4872838842789
688,510.46875037221275
689,510.462385281981
690,510.46479717658997
691,510.47121464072603
692,510.4758864461211
693,510.4726743476154
694,510.4558038153943
695,510.4206796176584
696,510.3646243970548
697,510.2873937352198
698,510.19136296003256
699,510.0813420827815
700,509.9640357988619
701,509.84722605117616
702,509.738813776308
703,509.6458945592335
704,509.5740345952677
705,509.52685042903994
706,509.50590160593623
707,509.51082818825915
708,509.5396455718758
709,509.5891386627526
710,509.65532263443856
711,509.7339196579091
712,509.8207625862636
713,509.91203416522086
714,510.0043095553325
715,510.0944588497756
716,510.17952927447806
717,510.2567284416999
718,510.32357005842687
719,510.37815480014376
720,510.41949118185715
721,510.44774493239305
722,510.4643334526494
723,510.47182791563876
724,510.47367091250266
725,510.47375825536415
726,510.4759669131997
727,510.483725424488
728,510.4997063407699
729,510.52567342752144
730,510.5624564680569
731,510.60998124500503
732,510.66727995179593
733,510.7324557274031
734,510.8026420885711
735,510.87403131332655
736,510.9420261630269
737,511.001527879584
738,511.04734547806004
739,511.07469682520525
740,511.0797532060715
741,511.0601556285234
742,511.01541823183436
743,510.94714037142654
744,510.85897266109555
745,510.7563193654387
746,510.64580287192575
747,510.53455734665056
748,510.4294532950991
749,510.33637544788115
750,510.25966995849063
751,510.20183524574236
752,510.1634643938384
753,510.1433844545185
754,510.1389089768377
755,510.14613343261595
756,510.1602418017996
757,510.1758309385326
758,510.1872808816666
759,510.1891966037007
760,510.176917352174
761,510.1470434945813
762,510.09789593866776
763,510.0298257860197
764,509.945325553283
765,509.8489287737678
766,509.74690507463396
767,509.64676671854187
768,509.55661215407656
769,509.4843536568099
770,509.43690806273275
771,509.41945260554587
772,509.43484282953716
773,509.48325617286275
774,509.56208227976657
775,509.6660535022935
776,509.78760535180425
777,509.91746321824934
778,510.04544314257
779,510.1614123263699
780,510.25628884408025
781,510.32291390964497
782,510.35664992385097
783,510.35563872516
784,510.32073902011206
785,510.2552027886263
786,510.16415730797496
787,510.0539648454984
788,509.9315411372222
789,509.8037093586808
790,509.6766429013142
791,509.55542519359614
792,509.443748171005
793,509.34377894446055
794,509.2562204042782
795,509.18056012921437
796,509.1154581775271
797,509.05919562487446
798,509.01010549606747
799,508.96693011925396
800,508.92907499094315
801,508.896740184479
802,508.8709088284453
803,508.8531806231969
804,508.845466051663
805,508.8495899428363
806,508.86687948638667
807,508.8978286050679
808,508.94192700489623
809,508.99770401542474
810,509.06297056311683
811,509.13518067566054
812,509.21181231683346
813,509.2906891046482
814,509.3701998649595
815,509.4493968708699
816,509.5279686431785
817,509.60610376635157
818,509.6842889214736
819,509.7630996110842
820,509.84303051752977
821,509.924381220874
822,510.00718316441953
823,510.09113963117045
824,510.17555763320064
825,510.259279222623
826,510.34065567887626
827,510.4176235190145
828,510.48791847628235
829,510.54941139395106
830,510.60049328213887
831,510.6403996764458
832,510.6693665634322
833,510.6885605176677
834,510.6998052972252
835,510.7051916928701
836,510.70667409469587
837,510.70573294304256
838,510.7031495174425
839,510.69891813440506
840,510.69230057424676
841,510.68199594462766
842,510.66637073855077
843,510.643691062677
844,510.61231904269226
845,510.57085752280085
846,510.51824235372123
847,510.4537966532903
848,510.3772783835227
849,510.2889584172764
850,510.18974804503193
851,510.0813585017125
852,509.9664415173127
853,509.84864263594307
854,509.73249694648905
855,509.62311427105635
856,509.5256549959257
857,509.4446849243408
858,509.3835682277497
859,509.3440578312916
860,509.3261736326848
861,509.3283681335501
862,509.34790654866356
863,509.38135064006946
864,509.42503840738283
865,509.4754875301962
866,509.5296931207557
867,509.5853173879285
868,509.64077855620707
869,509.6952466157467
870,509.7485500279123
871,509.80099924403936
872,509.8531464291771
873,509.9055156821346
874,509.9583409468771
875,510.01134900923245
876,510.06363545886785
877,510.11368443185506
878,510.1595506731737
879,510.19916449403377
880,510.2306762594456
881,510.25275054293013
882,510.26474375794527
883,510.26673530753305
884,510.2594165501135
885,510.24386757452686
886,510.2212730371669
887,510.1926471290058
888,510.1586425533785
889,510.11949743442074
890,510.0751305824022
891,510.02534506546607
892,509.9700625539743
893,509.9095036308546
894,509.8442571005309
895,509.77523055470925
896,509.703517242167
