frame_number,force
0,652.4783300000483
1,652.6079033162981
2,652.7279328761749
3,652.8299605576652
4,652.9074868480836
5,652.9564897328602
6,652.9755478797073
7,652.9656115353375
8,652.9295188498238
9,652.8713824564544
10,652.7959737630507
11,652.7082069568758
12,652.6127755684288
13,652.5139430343913
14,652.415458723225
15,652.3205660560587
16,652.2320710870808
17,652.1524307776689
18,652.0838091759114
19,652.028062330407
20,651.9866505915752
21,651.9605079255737
22,651.9499006144074
23,651.9542991978743
24,651.9722882812594
25,652.0015391339218
26,652.0388543273202
27,652.0802752741378
28,652.1212453490464
29,652.1568376985408
30,652.1820624434489
31,652.1922512417892
32,652.1834859970492
33,652.1530102069547
34,652.0995573027634
35,652.0235560588886
36,651.9272048082994
37,651.8144179548501
38,651.6906426188501
39,651.5625373174634
40,651.4375102406273
41,651.323139361736
42,651.2265344742226
43,651.153726463033
44,651.1091630692695
45,651.0953637439363
46,651.1127590371736
47,651.1597190457836
48,651.2327602379534
49,651.3269102316793
50,651.436197362139
51,651.5542038157904
52,651.6745886479563
53,651.7914871766153
54,651.8997430254595
55,651.9949950315942
56,652.0736778976462
57,652.1329945919429
58,652.1709018775088
59,652.1861333021307
60,652.1782653014628
61,652.14781051413
62,652.0963049189921
63,652.0263486409686
64,651.9415641282668
65,651.8464475494909
66,651.7461107505007
67,651.6459404797649
68,651.5512275093884
69,651.4668282891596
70,651.3969131837523
71,651.3448322434446
72,651.3130981296174
73,651.3034546757744
74,651.3169769478653
75,651.3541413748666
76,651.4148174198746
77,651.4981631640987
78,651.6024441828963
79,651.7248258585524
80,651.8612095523606
81,652.0061892144997
82,652.1531886948048
83,652.294802917957
84,652.4233252958458
85,652.5314115650783
86,652.6128059765165
87,652.6630386230402
88,652.6799938364467
89,652.6642481797952
90,652.6190892670365
91,652.5501697898297
92,652.4648276964638
93,652.3711852860257
94,652.2771872929226
95,652.1897333194931
96,652.1140154508616
97,652.0531141980604
98,652.0078594054951
99,651.9769357804464
100,651.9571962922591
101,651.9441312980852
102,651.9324298083702
103,651.9165703439855
104,651.8913933772357
105,651.8526261656874
106,651.7973411674876
107,651.72432325618
108,651.6343020536059
109,651.5299917225279
110,651.4158963385162
111,651.2978930595435
112,651.1826721836092
113,651.077151592249
114,650.987971607676
115,650.9211230449492
116,650.8816939019557
117,650.8736756566076
118,650.8997739929846
119,650.9612125990061
120,651.0575665117201
121,651.1866807412224
122,651.3447153332311
123,651.5263294686814
124,651.724996476946
125,651.9334322766973
126,652.1441087062748
127,652.349799970704
128,652.5440844197144
129,652.7217196591266
130,652.87883866095
131,653.0129637482127
132,653.1228820887457
133,653.208455192373
134,653.2704332102018
135,653.3103102438804
136,653.3302091241331
137,653.3327543196797
138,653.3209002421944
139,653.297725778135
140,653.2662548289724
141,653.2293758881344
142,653.1898938381662
143,653.1506823762232
144,653.1148600254327
145,653.0859021608837
146,653.067614799808
147,653.0639246356552
148,653.0784823998638
149,653.1141268182263
150,653.1723031802612
151,653.2525628043331
152,653.3522754701618
153,653.46665531142
154,653.5891352626016
155,653.7120505077693
156,653.8275305949333
157,653.9284560778962
158,654.0093118095753
159,654.0667807096389
160,654.0999726814276
161,654.1102579935599
162,654.1007570081325
163,654.0756105124677
164,654.0391897274711
165,653.9953885063271
166,653.947090761189
167,653.895856675572
168,653.8418424786645
169,653.7839577428927
170,653.7202487472958
171,653.6484591082283
172,653.566673457947
173,653.4739245981726
174,653.3706467909141
175,653.2588798499113
176,653.1421695643284
177,653.0251686225193
178,652.9130068889274
179,652.8105553822219
180,652.7217342003382
181,652.6489908279182
182,652.5930154129027
183,652.5527092528984
184,652.5253990403706
185,652.5072630952909
186,652.4938920774031
187,652.480877801889
188,652.4643393410331
189,652.4413381877207
190,652.4101682706223
191,652.3705229974489
192,652.3235506029293
193,652.2718113176398
194,652.2191388638056
195,652.1703903862399
196,652.1310585690336
197,652.1067283001362
198,652.102389387102
199,652.1216605648478
200,652.1660304087227
201,652.2342669712992
202,652.322164991988
203,652.4227579854869
204,652.5270245829715
205,652.625003781004
206,652.7071420619402
207,652.7656456683395
208,652.7956125003578
209,652.7957691551342
210,652.7687174002922
211,652.7206700186664
212,652.6607162629405
213,652.5997089377762
214,652.5489100954051
215,652.5185613675848
216,652.51655421253
217,652.5473678043164
218,652.6114138454374
219,652.7048715259106
220,652.8200236885783
221,652.9460429568287
222,653.0701348994462
223,653.1789139386151
224,653.259860294943
225,653.3026903982374
226,653.300477568697
227,653.2503880433704
228,653.1539516637304
229,653.0168619017193
230,652.8483724785407
231,652.6603962334274
232,652.4664137293346
233,652.2802953875163
234,652.1151521437804
235,651.9823390204642
236,651.8907147805579
237,651.8462029780577
238,651.851631388404
239,651.9067878621353
240,652.0086384185663
241,652.1516819202022
242,652.3284245521313
243,652.5299388946089
244,652.7464528002874
245,652.9679144000253
246,653.1844996846272
247,653.3870542945898
248,653.5674786928679
249,653.719071406284
250,653.8368420512455
251,653.9177943727608
252,653.9611533711974
253,653.9684776606862
254,653.9435860608926
255,653.8922513509214
256,653.821659119433
257,653.7396766436744
258,653.6540202188525
259,653.5714430027269
260,653.4970754229465
261,653.4340261275407
262,653.3832970252888
263,653.3440018657145
264,653.3138275839183
265,653.289648220064
266,653.2681854394285
267,653.2466029630577
268,653.2229304481083
269,653.1962462554258
270,653.166609076223
271,653.134796907713
272,653.101959568294
273,653.0692978121458
274,653.037847164167
275,653.008385650396
276,652.981429723662
277,652.9572547086232
278,652.9358810575508
279,652.9169974464519
280,652.8998310086708
281,652.883004307012
282,652.8644263012119
283,652.8412601914713
284,652.8100084718207
285,652.7667477232393
286,652.7075177517329
287,652.6288263850457
288,652.5281929736396
289,652.4046348163383
290,652.2590039613169
291,652.0941059026065
292,651.9145737100905
293,651.7265215175445
294,651.5370449720903
295,651.3536617715847
296,651.1837888953482
297,651.0343321252353
298,650.911417212773
299,650.8202348160022
300,650.7649321444433
301,650.748483021554
302,650.7725003105978
303,650.8370028888893
304,650.940199698804
305,651.0783936136669
306,651.2461155545328
307,651.4365519291493
308,651.6422320737493
309,651.8558376562986
310,652.0709350057153
311,652.2824500367876
312,652.4868010274117
313,652.6817301718878
314,652.8659661627516
315,653.0388652866105
316,653.2001239574183
317,653.3495792893527
318,653.487069520194
319,653.6123320234335
320,653.7249470913539
321,653.8243469499761
322,653.9098878751017
323,653.9809580851359
324,654.0370921744733
325,654.0780712223874
326,654.1039837895403
327,654.1152180667334
328,654.1123777314933
329,654.0961631614093
330,654.0672984238141
331,654.0265728596614
332,653.9750016028488
333,653.9140358844461
334,653.8457235276612
335,653.7727471176927
336,653.6983238707091
337,653.6259981066356
338,653.5593748229121
339,653.5018369813862
340,653.45627708791
341,653.4248674256577
342,653.4088917988595
343,653.408656927861
344,653.4234904465311
345,653.4518201489564
346,653.4913238047146
347,653.5391394910247
348,653.5921208321939
349,653.6471057388403
350,653.7011570552032
351,653.7517428990387
352,653.7968439036172
353,653.8349884608881
354,653.8652300675014
355,653.887104063185
356,653.9006188333442
357,653.9063146738665
358,653.905357984498
359,653.8995775244151
360,653.8913492311628
361,653.8833017690903
362,653.8779006253039
363,653.8770237073688
364,653.8816436228857
365,653.8916898242422
366,653.9061049908704
367,653.9230596056585
368,653.9402567851416
369,653.9552494722038
370,653.9657080954919
371,653.9696114447041
372,653.9653644215283
373,653.9518596549901
374,653.9285051185017
375,653.8952456206282
376,653.852600913641
377,653.8017183118276
378,653.7444059872633
379,653.6830938344011
380,653.6206764937522
381,653.5602324970208
382,653.5046632485825
383,653.4563205918419
384,653.4166840420205
385,653.3861294175546
386,653.3638153535982
387,653.347704518076
388,653.3347299111663
389,653.3211056858171
390,653.3027576087953
391,653.2758178613794
392,653.2371139648112
393,653.1845919018044
394,653.117632248559
395,653.0372214649526
396,652.9459300086966
397,652.8476569113425
398,652.747152042915
399,652.6494011423421
400,652.5590040953363
401,652.479668723745
402,652.4138967706145
403,652.3628836375609
404,652.3266063212635
405,652.3040410116103
406,652.2934341193052
407,652.2925534802105
408,652.2988745456818
409,652.3096960800282
410,652.3222063425891
411,652.3335260943434
412,652.3407542349427
413,652.3410466559064
414,652.3317585944902
415,652.3106623412484
416,652.2762238665084
417,652.2279039186957
418,652.1664471016486
419,652.0941217203679
420,652.0148593515845
421,651.9342242376638
422,651.8591421568536
423,651.7973485885674
424,651.7565722570844
425,651.7435410519258
426,651.7629621370652
427,651.81666084687
428,651.9030540331937
429,652.017088530414
430,652.1506929109484
431,652.2936753092729
432,652.4348938610988
433,652.5634825001551
434,652.6699400372444
435,652.7469469565216
436,652.7898333769954
437,652.7966816232093
438,652.7681067542601
439,652.7068052495073
440,652.6169854152724
441,652.5037895027209
442,652.3727866812826
443,652.229570729726
444,652.0794633971816
445,651.9273179865047
446,651.7774249883817
447,651.6335216219954
448,651.4988889189668
449,651.3764888848881
450,651.2690743142588
451,651.1792159102738
452,651.1092244531113
453,651.0609721527459
454,651.0356314194852
455,651.0333704426351
456,651.0530835431624
457,651.0922650858193
458,651.1471162857603
459,651.2128967401442
460,651.2844440610622
461,651.3567419196221
462,651.4254297545478
463,651.4871833504159
464,651.5399242658757
465,651.5828380083819
466,651.6162087112219
467,651.6411096297014
468,651.6590107271534
469,651.6713744304068
470,651.679315428972
471,651.6833976479236
472,651.6836198652358
473,651.6795995129277
474,651.6709140268631
475,651.6575141287855
476,651.6400967055247
477,651.6203326285282
478,651.6008906760812
479,651.5852577482331
480,651.5773955105923
481,651.5812908909667
482,651.6004727272589
483,651.6375856953904
484,651.694113461764
485,651.7703028647385
486,651.8652699560197
487,651.9772084692537
488,652.1036069159702
489,652.2414119361049
490,652.3871280893834
491,652.5368927204194
492,652.6865891218795
493,652.8320506278636
494,652.9693687145557
495,653.0952692447219
496,653.2074834295271
497,653.3050304157135
498,653.388349102757
499,653.4592513416419
500,653.5207022836327
501,653.5764667998006
502,653.6306887753041
503,653.6874755340109
504,653.750540023964
505,653.822926733523
506,653.9068280883515
507,654.003487873231
508,654.1131818497093
509,654.235255857359
510,654.3681912461414
511,654.5096741987
512,654.6566752297318
513,654.8055718938173
514,654.9523417229329
515,655.0928188737361
516,655.2229774996919
517,655.3391943040987
518,655.4384489326989
519,655.518441357448
520,655.5776354169748
521,655.6152588764054
522,655.6312882808178
523,655.6264285715498
524,655.6020802081107
525,655.5602796983164
526,655.5035999541763
527,655.434997783421
528,655.3575981948509
529,655.2744199132715
530,655.1880806450321
531,655.1005588242771
532,655.0130937521244
533,654.9262570593268
534,654.8401544005836
535,654.7546712325548
536,654.6696838770343
537,654.5851972668015
538,654.5014118726682
539,654.4187461808223
540,654.3378477548682
541,654.25962155369
542,654.1852873787841
543,654.1164461753567
544,654.0550998783356
545,654.0035553053434
546,653.9641627111008
547,653.9388882306483
548,653.9287795173591
549,653.9334363211665
550,653.9506255617807
551,653.9761709627298
552,654.0041958654695
553,654.0277149518756
554,654.0394846038205
555,654.0329634259633
556,654.0032156460284
557,653.9476047377335
558,653.8661684016796
559,653.7616349835941
560,653.6391143346227
561,653.5055416472885
562,653.3689588121308
563,653.2377048674226
564,653.1195872471023
565,653.0211242711415
566,652.9469565473388
567,652.8994944752653
568,652.8788137280233
569,652.8827657269861
570,652.9072559218827
571,652.9466534273868
572,652.9943115372567
573,653.0431783374095
574,653.086452503035
575,653.1182111600704
576,653.1339334755825
577,653.1308686421338
578,653.1082270621503
579,653.0671906869005
580,653.0107436590764
581,652.9433277216506
582,652.8703404001532
583,652.797525583776
584,652.7303425471034
585,652.6734085983377
586,652.6300782653414
587,652.6021729816849
588,652.5898452381933
589,652.5915616279523
590,652.604207394994
591,652.6233320175212
592,652.643554131858
593,652.6591159150771
594,652.664532324102
595,652.655244936465
596,652.6281807070623
597,652.5821295982064
598,652.5178810698193
599,652.4380918884406
600,652.3468944596785
601,652.2492949707041
602,652.1504506430858
603,652.0549443538602
604,651.9661806125457
605,651.8860063344282
606,651.8146161447847
607,651.750741690591
608,651.6920654788171
609,651.6357661889177
610,651.5791017269195
611,651.519951957292
612,651.4572557195804
613,651.3912841299588
614,651.3237041687051
615,651.2574111523516
616,651.1961470233164
617,651.1439655419274
618,651.1046376916594
619,651.0810950864058
620,651.0749867252292
621,651.0863917947424
622,651.1137086912267
623,651.1537367614847
624,651.2019694023161
625,651.2531020236748
626,651.3017168359873
627,651.3430498709573
628,651.3736990174062
629,651.392123829201
630,651.3988297127494
631,651.3962012619072
632,651.3880222303261
633,651.3787785917916
634,651.3728808066761
635,651.3739494972845
636,651.3842779051737
637,651.4045305077278
638,651.433686688614
639,651.4692043484881
640,651.5073592257229
641,651.5437098195449
642,651.5736435824568
643,651.59296452472
644,651.5984690244559
645,651.5884320891214
646,651.5629201147962
647,651.523874212852
648,651.4749545795852
649,651.4211764060548
650,651.3683915780078
651,651.3226843989283
652,651.289764314813
653,651.2744502744266
654,651.2803266645587
655,651.3095955590481
656,651.3630810063836
657,651.440306673755
658,651.5395848718733
659,651.6580945427341
660,651.7919571617692
661,651.9363386000902
662,652.0856161251024
663,652.2336442902293
664,652.3741248753023
665,652.5010464828323
666,652.6091283399446
667,652.6941944684806
668,652.7534229538003
669,652.7854471507047
670,652.7903120636954
671,652.7693094356854
672,652.7247375176263
673,652.6596456253124
674,652.5776123374786
675,652.4825765105102
676,652.3787156064391
677,652.270355970371
678,652.1618980580353
679,652.0577408268946
680,651.962194008819
681,651.87937275023
682,651.8130701062394
683,651.7665998795102
684,651.7426068803803
685,651.7428605780414
686,651.7680705687974
687,651.8177693295665
688,651.8902911798338
689,651.9828496254048
690,652.091701294199
691,652.212388377134
692,652.3400525091973
693,652.4697927954123
694,652.5970096958974
695,652.7176667977855
696,652.8284313014648
697,652.9267020374899
698,653.010567460228
699,653.0787419185654
700,653.1305136867396
701,653.1657113552357
702,653.1846690135806
703,653.1881674309091
704,653.1773538376262
705,653.1536707285542
706,653.1188283658593
707,653.0748381982078
708,653.0241000047747
709,652.969512032693
710,652.914554623426
711,652.8632914568874
712,652.8202455439367
713,652.7901378621849
714,652.7775148889884
715,652.7863226992506
716,652.8194950056553
717,652.8786066720503
718,652.9636215587983
719,653.0727594423706
720,653.2025186978274
721,653.3478916278001
722,653.5027828413374
723,653.660596040539
724,653.8149026856272
725,653.9600618363969
726,654.0916504988934
727,654.2066106202784
728,654.3031129915134
729,654.380234912849
730,654.4375988466672
731,654.4751058993826
732,654.4928382087622
733,654.4911284990231
734,654.470729341089
735,654.4329799149259
736,654.379878835349
737,654.314022222433
738,654.2384255660987
739,654.1562835921915
740,654.070726034484
741,653.9846103220725
742,653.9003684836022
743,653.8199050046405
744,653.7445309230377
745,653.6749188261789
746,653.6110718968766
747,653.5523122078379
748,653.4972995493765
749,653.4440866674706
750,653.390209398777
751,653.3328156764095
752,653.2688506519945
753,653.1953139386964
754,653.1095808894686
755,653.0097477428488
756,652.8949391467854
757,652.7655140070655
758,652.6231169958394
759,652.4705392888233
760,652.3113754539157
761,652.1495068069197
762,651.988503005554
763,651.8310789563286
764,651.6787325241929
765,651.5316216433663
766,651.3886657849728
767,651.2478190644899
768,651.1064592714276
769,650.9618409538105
770,650.8115531416252
771,650.6539116145158
772,650.4882257956239
773,650.3149205778606
774,650.1355404241287
775,649.9526815141029
776,649.7698755004549
777,649.5914097384687
778,649.4220523447088
779,649.2666730313314
780,649.129794481705
781,649.0151430119788
782,648.9252736272675
783,648.861326954864
784,648.8229475894705
785,648.8083624537286
786,648.8145890331687
787,648.8377321494249
788,648.8733416820311
789,648.9168189805316
790,648.9638478272869
791,649.0107940877575
792,649.0550013552
793,649.0949253898514
794,649.1300844057371
795,649.1608378285162
796,649.1880404334034
797,649.2126534602708
798,649.2354189330395
799,649.2566957625614
800,649.2765045956703
801,649.2947513774665
802,649.3115328086791
803,649.3273975351709
804,649.3434579941955
805,649.3613127960849
806,649.3828139923941
807,649.4097585057218
808,649.4435896429374
809,649.4851801393758
810,649.5347458126164
811,649.5919081413867
812,649.6558837462117
813,649.7257402101515
814,649.8006417840447
815,649.8800253331101
816,649.9636818843707
817,650.0517476469447
818,650.1446209677451
819,650.2428272299483
820,650.3468606190701
821,650.4570376483122
822,650.5733977619648
823,650.6956786696096
824,650.8233720967282
825,650.955829302933
826,651.0923580650764
827,651.2322624419913
828,651.3748196926944
829,651.519229785421
830,651.6645843860352
831,651.80988479042
832,651.9541079462259
833,652.0962953320966
834,652.2356368451644
835,652.3715396359083
836,652.5036886876375
837,652.6321052992965
838,652.7571987521878
839,652.8798003878926
840,653.0011677635298
841,653.1229420315101
842,653.2470407062444
843,653.3754833589895
844,653.5101767790263
845,653.6527101226384
846,653.8042087324751
847,653.9652610761867
848,654.1358906810387
849,654.315533723478
850,654.5030124224513
851,654.6965299851341
852,654.8937173656789
853,655.091736836899
854,655.2874244397326
855,655.4774530641945
856,655.6585072065851
857,655.8274574955792
858,655.9815067278317
859,656.1182683262396
860,656.2357543452159
861,656.3322955661715
862,656.4064608565449
863,656.4570519507281
864,656.4832246431955
865,656.4847514362979
866,656.462396643191
867,656.4183175815408
868,656.3563586586891
869,656.2821042616723
870,656.2026075839505
871,656.1257924324107
872,656.0596041263716
873,656.0110404944628
874,655.9852135498176
875,655.984582570169
876,656.0084754292019
877,656.0529852569127
878,656.1112894688293
879,656.1743809731082
880,656.2321277100637
881,656.274501297217
882,656.2927672875821
883,656.2804357112285
884,656.233834294333
885,656.1522625431434
886,656.0377755059728
887,655.8947011084614
888,655.7290036015099
889,655.5475842972439
890,655.357591947366
891,655.1658149422649
892,654.9782277185029
893,654.7997359269397
894,654.6341089723812
895,654.4840378396822
896,654.3512439461751
897,654.2365915216787
898,654.1401932861426
899,654.0615225916451
900,653.9995507669477
901,653.9529186741138
902,653.9201289117583
903,653.899721410698
904,653.8903861719697
905,653.8909769088536
906,653.9004113926403
907,653.9174726789589
908,653.9405602279271
909,653.9674757209897
910,653.9953442052478
911,654.0207447577451
912,654.0400572872138
913,654.0499518295708
914,654.0478900628025
915,654.0324999053605
916,654.0037260033477
917,653.9627321305658
