frame_number,force
0,642.678100000042
1,642.7838494903336
2,642.8881797323056
3,642.9893959608594
4,643.0853604334384
5,643.1734998302114
6,643.2509963214364
7,643.3151301356039
8,643.3637268029861
9,643.3956507934173
10,643.4112602020654
11,643.4127069208249
12,643.4039657831421
13,643.3905309586462
14,643.3788220965547
15,643.3754466210617
16,643.3865064425885
17,643.4170945511141
18,643.4710304535218
19,643.5507881791822
20,643.6575229755528
21,643.7911202079866
22,643.9502459294876
23,644.1324186660555
24,644.3341176540932
25,644.5509170116256
26,644.777623086117
27,645.0084026641288
28,645.236914821613
29,645.4564863762927
30,645.6603801015661
31,645.8421796097423
32,645.9962626514496
33,646.118285745333
34,646.2055871156177
35,646.2574360929791
36,646.2750926410404
37,646.2616688056575
38,646.2218054507516
39,646.1612028060264
40,646.0860706603963
41,646.0025811503656
42,645.9164053269061
43,645.8323944229489
44,645.7544289147186
45,645.6854062045928
46,645.627292464376
47,645.5811576178278
48,645.5471527157209
49,645.5244492612065
50,645.5112029441614
51,645.5046110894351
52,645.5011125814133
53,645.4967476960545
54,645.4876560691675
55,645.470641610598
56,645.4436888848355
57,645.4063061753365
58,645.3596096577729
59,645.3061309528869
60,645.2493942971946
61,645.1933528796391
62,645.1417961630849
63,645.0978413636402
64,645.0635998927477
65,645.0400673242801
66,645.0272356547497
67,645.0243820821704
68,645.0304597063016
69,645.0445090745068
70,645.0660224032363
71,645.0952142517352
72,645.133172262971
73,645.1818692688136
74,645.2440132306663
75,645.3227117585286
76,645.420952696244
77,645.5409492998102
78,645.6834488517616
79,645.8471413016315
80,646.028317743448
81,646.2208976066127
82,646.416855271807
83,646.6069606914768
84,646.7816708115921
85,646.9320102371183
86,647.0503370618316
87,647.1309503098167
88,647.1705309419264
89,647.1684210899979
90,647.1267442737554
91,647.0503595119961
92,646.9466321752697
93,646.8249977987161
94,646.6962964876041
95,646.5718797822022
96,646.462546241231
97,646.3774254175091
98,646.3229714847148
99,646.302237120975
100,646.3145782095447
101,646.3558843765808
102,646.4193327493346
103,646.4965424240966
104,646.5789118933918
105,646.6588899777915
106,646.7309630346791
107,646.7922111713256
108,646.8423746348836
109,646.8834708873084
110,646.9190930297555
111,646.9535672129814
112,646.9911364252456
113,647.0352938584709
114,647.0883428592116
115,647.1512191658707
116,647.2235634741401
117,647.303980442217
118,647.3903863114679
119,647.480349131241
120,647.5713590716704
121,647.6610129072365
122,647.7471349349405
123,647.8278696208599
124,647.9017679118032
125,647.9678655274587
126,648.0257359155661
127,648.0754994300745
128,648.1177797529728
129,648.1536125312297
130,648.1843249856006
131,648.2114137957944
132,648.236446164579
133,648.2609940206986
134,648.2865909227152
135,648.3146876957318
136,648.3465850844464
137,648.3833407120092
138,648.4256727784197
139,648.473892405344
140,648.5278790066661
141,648.5870887614557
142,648.6505837516576
143,648.7170859163734
144,648.7850705621248
145,648.8529089790737
146,648.9190559836433
147,648.9822585444563
148,649.0417384810629
149,649.0972921646535
150,649.1492703477553
151,649.1984448453328
152,649.245807288922
153,649.2923567986811
154,649.3389219611632
155,649.3860435435937
156,649.4339236758696
157,649.4824257011802
158,649.5310959522752
159,649.5791850003344
160,649.6256704516733
161,649.6693103213312
162,649.7087616786606
163,649.7427733592461
164,649.770420476866
165,649.7913179167718
166,649.8057446542903
167,649.8146330981091
168,649.8194187552253
169,649.821786047894
170,649.8233691428355
171,649.8254698086408
172,649.8288449127683
173,649.8335973904701
174,649.8391760286007
175,649.8444616453623
176,649.847906694877
177,649.8477001896248
178,649.8419322353628
179,649.8287299897311
180,649.8063483143011
181,649.7732302344834
182,649.7280795661732
183,649.6699823331824
184,649.5985767309306
185,649.514230363453
186,649.418164723204
187,649.3124786838445
188,649.2000514457852
189,649.0843324856679
190,648.9690487457726
191,648.8578814169199
192,648.7541778948322
193,648.6607540533981
194,648.579806826587
195,648.5129171178686
196,648.4611035983974
197,648.4248967288338
198,648.4044252075532
199,648.3995223310687
200,648.4098532605847
201,648.4350417043512
202,648.4747608746385
203,648.5287656956796
204,648.5968673537515
205,648.6788618755015
206,648.7744217309792
207,648.8829672825909
208,649.0035588059511
209,649.134862294679
210,649.2752190646288
211,649.4228010112774
212,649.5757936935713
213,649.7325428405532
214,649.8916250390521
215,650.0518381601547
216,650.212129866343
217,650.3714889219669
218,650.5288218962207
219,650.6828354929906
220,650.8319476716256
221,650.9742561064004
222,651.1075876526158
223,651.2296330587052
224,651.3381508709194
225,651.4312151293602
226,651.5074809943608
227,651.5664447670987
228,651.6086726131127
229,651.6359591928416
230,651.6513616836457
231,651.6590572131988
232,651.664002572351
233,651.671426289804
234,651.6862397000899
235,651.7124928983279
236,651.7529953207419
237,651.8091628720398
238,651.8810739166375
239,651.9676554477159
240,652.0669027384906
241,652.1760620348863
242,652.2917547535561
243,652.4100640552402
244,652.526625870247
245,652.6367660130453
246,652.7357052380424
247,652.8188229953295
248,652.8819464988884
249,652.9216287886638
250,652.9353928036193
251,652.9219315652466
252,652.8812560864404
253,652.8147723073353
254,652.7252567615549
255,652.6167027711876
256,652.4940278557747
257,652.3626559975093
258,652.2280072144723
259,652.0949485146382
260,651.9672862915692
261,651.8473914703094
262,651.7360269979847
263,651.6323995692694
264,651.5344048660896
265,651.4389963556008
266,651.3426001917161
267,651.2415279664735
268,651.1323729367175
269,651.0123728943032
270,650.8796895757482
271,650.7335391269881
272,650.574141915791
273,650.4025205330116
274,650.2202151008966
275,650.0289841707128
276,649.8305372097665
277,649.6263333170962
278,649.4174884178394
279,649.2048343463798
280,648.989140557138
281,648.7714485752981
282,648.5534160060703
283,648.3375532212747
284,648.1272677053215
285,647.9266896909518
286,647.7403106536707
287,647.572502758906
288,647.4269978478288
289,647.3064007331805
290,647.2118083816073
291,647.1426040822091
292,647.0964785463159
293,647.0696883973881
294,647.0575091914651
295,647.0547992752297
296,647.0565746311811
297,647.0584969171467
298,647.0571912089642
299,647.0503449533402
300,647.0366008501142
301,647.0153223670627
302,646.9863430880513
303,646.9497930736267
304,646.9060483436868
305,646.8558059156551
306,646.8002561904652
307,646.7412988044924
308,646.6817273751147
309,646.6253041312501
310,646.5766635395908
311,646.5410184432037
312,646.5236812522381
313,646.5294508404106
314,646.5619539206455
315,646.6230601540489
316,646.7124930285547
317,646.8277233937899
318,646.9641733628627
319,647.115697332618
320,647.275258229391
321,647.4356871389948
322,647.59040461281
323,647.7339928218288
324,647.8625433133196
325,647.9737605272886
326,648.0668526378531
327,648.1422665575975
328,648.2013256951
329,648.245823502474
330,648.2776212518625
331,648.2982936720554
332,648.3088581693883
333,648.3096118848806
334,648.3000872248695
335,648.2791210090506
336,648.2450185150628
337,648.1957913906778
338,648.1294592674983
339,648.0444114204222
340,647.9398082788399
341,647.8159667869861
342,647.6746413806887
343,647.5191036876835
344,647.3539461062769
345,647.184588012626
346,647.0165439644509
347,646.8545977968968
348,646.7020702586663
349,646.5603355101875
350,646.4286464766749
351,646.3042276033204
352,646.1825415574876
353,646.0576525032754
354,645.9226678101463
355,645.7702892846686
356,645.5935023134816
357,645.3863826230466
358,645.1449432195174
359,644.8679008064895
360,644.5572157150835
361,644.2182674296721
362,643.8595863758643
363,643.4921570695892
364,643.1283961000853
365,642.7809553588612
366,642.4614983051447
367,642.179567358614
368,641.9416417588656
369,641.7504940825166
370,641.6049624646143
371,641.5002204498876
372,641.4285364073526
373,641.3804038678406
374,641.3458422566855
375,641.3156469561277
376,641.2824087346501
377,641.241192920578
378,641.1898303987873
379,641.1288162817482
380,641.0608527559588
381,640.9901190070486
382,640.9213958419159
383,640.8592004267504
384,640.8070822632282
385,640.767189408517
386,640.740147088201
387,640.7252248530903
388,640.720722059818
389,640.7244781991981
390,640.7344098195964
391,640.7489823962281
392,640.7675387493839
393,640.7904300674038
394,640.8189364788605
395,640.8550117569911
396,640.9009236143115
397,640.9588764690491
398,641.0306909622662
399,641.117574645259
400,641.2199749252712
401,641.3374926637382
402,641.4688584919435
403,641.6120011083358
404,641.7642302804542
405,641.9225158375953
406,642.083805380334
407,642.2453206848733
408,642.4047968192625
409,642.5606480611675
410,642.7120492056885
411,642.85892146704
412,643.0018224951493
413,643.1417605827909
414,643.2799697930557
415,643.4176799404211
416,643.5558943445976
417,643.6951678918541
418,643.8353776755891
419,643.9755027230218
420,644.1134622907676
421,644.246077803617
422,644.3692083182079
423,644.4780730501004
424,644.5677318709477
425,644.6336523999937
426,644.6722590603131
427,644.6813509470936
428,644.6603016075373
429,644.6100096802907
430,644.5326357950618
431,644.431212321322
432,644.3092274467167
433,644.1702610206067
434,644.0177069136424
435,643.8545836600678
436,643.6834240221017
437,643.5062349093158
438,643.3245169361205
439,643.1393252033114
440,642.9513508149461
441,642.7610147334558
442,642.5685777647664
443,642.3742566813751
444,642.178299406196
445,641.980954811078
446,641.7823126377849
447,641.5820721176626
448,641.3793670925224
449,641.1727796701115
450,640.9606080297852
451,640.7413562578165
452,640.5143325949549
453,640.2802010964715
454,640.0413318202206
455,639.8018305241358
456,639.5671941250249
457,639.343623370915
458,639.1371117310075
459,638.9524948182657
460,638.7926657470275
461,638.6581298506827
462,638.5469972191089
463,638.4554186142166
464,638.3783846243824
465,638.3107426917921
466,638.2482467026902
467,638.188446027863
468,638.1312546613914
469,638.0791156054668
470,638.0367688693975
471,638.010706748908
472,638.0084290678209
473,638.037596043418
474,638.1051498902592
475,638.2164711537148
476,638.374652718956
477,638.5799843223427
478,638.8297211807887
479,639.1181717163134
480,639.437104051045
481,639.7764434697864
482,640.1251988173553
483,640.4725071230075
484,640.8086417704702
485,641.1258262020534
486,641.4187471269018
487,641.684739496914
488,641.9236766701869
489,642.1376265450972
490,642.3303405459379
491,642.5066459440975
492,642.671817752688
493,642.831000831198
494,642.9887274433801
495,643.1485480423144
496,643.3127858539094
497,643.4824322816961
498,643.6571942522154
499,643.8356768033511
500,644.0156505702155
501,644.1943368796905
502,644.3686557068294
503,644.5354193179476
504,644.6914933755413
505,644.8339606663598
506,644.9603060802151
507,645.0686148692622
508,645.1577590802815
509,645.2275441724504
510,645.2787936581059
511,645.3133525696287
512,645.3339833729881
513,645.3441245675243
514,645.34750675378
515,645.3476707405393
516,645.347473120173
517,645.3486704816219
518,645.3516488557406
519,645.3553268498847
520,645.3572222139557
521,645.3536482776998
522,645.3400113676245
523,645.3112004903409
524,645.2620653095358
525,645.187953237791
526,645.0852377571532
527,644.9517452927109
528,644.786995723065
529,644.5922180840173
530,644.3701758373846
531,644.1248972368711
532,643.8614118552349
533,643.5855363916215
534,643.3036759268447
535,643.0225711507522
536,642.7489506413466
537,642.489109255153
538,642.2484772182809
539,642.0312444754273
540,641.8400790324381
541,641.6759563374893
542,641.5381073016506
543,641.4240878406055
544,641.3299710071805
545,641.2506628013534
546,641.1803330639545
547,641.1129297509622
548,641.0427271647569
549,640.964858269681
550,640.8757814130605
551,640.773621477692
552,640.6583236027764
553,640.5315831714041
554,640.3965635724265
555,640.2574656266117
556,640.119052054592
557,639.9862420665637
558,639.8638653496589
559,639.7566018752701
560,639.6690535593185
561,639.6058343930512
562,639.571558938269
563,639.5706531690962
564,639.6069813584862
565,639.6833545023278
566,639.8010373393291
567,639.9593796262528
568,640.155660968675
569,640.3851834929563
570,640.641602946492
571,640.9174646532317
572,641.2048911994557
573,641.4963396318667
574,641.7853182842867
575,642.066951991111
576,642.3383138105664
577,642.5984784738475
578,642.8482794419822
579,643.0897806504845
580,643.3255295673848
581,643.5577327375045
582,643.787544533876
583,644.014643243632
584,644.2371854548695
585,644.4521199300375
586,644.6557556360794
587,644.8444433408081
588,645.0152403293333
589,645.1664588300887
590,645.2980317207998
591,645.4116565463326
592,645.5106985700685
593,645.5998500247207
594,645.6845674826525
595,645.7703479341678
596,645.8619454065519
597,645.9626538973076
598,646.073779271538
599,646.1943963121969
600,646.3214410916637
601,646.450123533548
602,646.5745705319465
603,646.6885533394827
604,646.7861439130897
605,646.8621917716724
606,646.9125938311705
607,646.9344083278987
608,646.9259090655639
609,646.8866700263977
610,646.8177154311621
611,646.7216963044481
612,646.6030035587041
613,646.4677221465998
614,646.3233642885867
615,646.1783743839868
616,646.0414570770347
617,645.9208241484284
618,645.8234690257702
619,645.7545609826909
620,645.7170237919593
621,645.7113415672154
622,645.735615444036
623,645.7858680245048
624,645.8565566055022
625,645.9412228266173
626,646.0331901125122
627,646.1262247654996
628,646.2150919266572
629,646.2959538284892
630,646.3665761789069
631,646.426335664449
632,646.4760556847737
633,646.5177263474939
634,646.5541743674341
635,646.5887322376135
636,646.6249238709213
637,646.66616342559
638,646.7154750447526
639,646.7752670320588
640,646.8472004060513
641,646.9321714679547
642,647.03040060378
643,647.1415996612487
644,647.265180821719
645,647.4004735720656
646,647.5469292409397
647,647.7042966915541
648,647.8727371470521
649,648.0528278924978
650,648.2454120250706
651,648.451290695153
652,648.6708043320072
653,648.9033852886387
654,649.147176982934
655,649.3988093993828
656,649.6534057891952
657,649.9048695034676
658,650.1464523323444
659,650.3715357872444
660,650.5744923341024
661,650.7514734372548
662,650.901003268453
663,651.0243068753549
664,651.1253334281851
665,651.2104494347341
666,651.2877984655823
667,651.3663684275404
668,651.4548680657665
669,651.5605677015758
670,651.6882806600837
671,651.8396441185026
672,652.0128096710797
673,652.2025855598519
674,652.4009980439778
675,652.5981758313409
676,652.783418960377
677,652.9462976426013
678,653.0776455264285
679,653.1703624734829
680,653.2199976180073
681,653.2251132759985
682,653.1874279912208
683,653.1117223160803
684,653.0054856270315
685,652.8782954013316
686,652.7409529839472
687,652.6044467386505
688,652.4788557501837
689,652.3723234473241
690,652.2902226950328
691,652.2346214734173
692,652.2041421822186
693,652.1942659048763
694,652.1980556455205
695,652.2071831693265
696,652.2130824513798
697,652.2080411609589
698,652.1860728363704
699,652.1434678804126
700,652.0789848790944
701,651.9936994175426
702,651.8905681972931
703,651.773796632526
704,651.6481185083649
705,651.5180963522681
706,651.3875265506487
707,651.2589957176962
708,651.1336039408693
709,651.0108593499286
710,650.8887559430366
711,650.7640569789068
712,650.6327923037511
713,650.4909224424512
714,650.335048422377
715,650.1630088052314
716,649.9742392504431
717,649.7698574022907
718,649.5525222645767
719,649.3261540329014
720,649.0955824708788
721,648.8661567085115
722,648.6433350698885
723,648.4322834354817
724,648.237520784194
725,648.0626409131155
726,647.9101132226969
727,647.7811478852567
728,647.6756248037325
729,647.5921219522924
730,647.5280946664022
731,647.4802210420665
732,647.4448570129293
733,647.4184906996549
734,647.3980879555561
735,647.3812744250532
736,647.3663660949757
737,647.3523025688255
738,647.3385416999581
739,647.3249509836446
740,647.3117015211202
741,647.2991566292663
742,647.2877577617721
743,647.2779294972103
744,647.2700286986719
745,647.2643448606166
746,647.2611329852439
747,647.2606413544853
748,647.263093279131
749,647.2686015170608
750,647.2770326165441
751,647.28787566179
752,647.3001852497156
753,647.3126539679124
754,647.3238263674124
755,647.3324066509279
756,647.33756473898
757,647.3391409955291
758,647.3376944485713
759,647.3344048220002
760,647.3308866352055
761,647.3289848772467
762,647.330601787298
763,647.3375704600908
764,647.3515621924556
765,647.3740021441048
766,647.4059712788434
767,647.4480850680844
768,647.5003551846092
769,647.5620549798866
770,647.6316207102358
771,647.7066269284015
772,647.7838723315241
773,647.8595958699002
774,647.9298096436964
775,647.9906935958828
776,648.0389686752358
777,648.0721708408219
778,648.088788780806
779,648.0882804776024
780,648.0710194073495
781,648.0382289631646
782,647.9919513450906
783,647.9350734405054
784,647.8713974112072
785,647.8057023197358
786,647.7437134468386
787,647.691896023419
788,647.6570242649154
789,647.6455377863527
790,647.6627667262725
791,647.7121564817564
792,647.7946371156177
793,647.9082670164574
794,648.048244249169
795,648.2073225543509
796,648.3765985820551
797,648.5465738265652
798,648.708353155846
799,648.8548137941939
800,648.981557097848
801,649.0874602772484
802,649.1747067853735
803,649.2482926638357
804,649.3151364711948
805,649.383001990345
806,649.459445695763
807,649.5509412090768
808,649.6622515338297
809,649.796053131585
810,649.9527806455744
811,650.1306543497025
812,650.3258622408
813,650.5328811060014
814,650.7449191034069
815,650.9544400388435
816,651.1537056257931
817,651.3352691974928
818,651.4923720085726
819,651.6192221756278
820,651.7111729041088
821,651.7648451624831
822,651.7782330661864
823,651.7507869883127
824,651.6834288771134
825,651.5784549078923
826,651.4393225437979
827,651.2703722996031
828,651.076564076256
829,650.8632934932223
830,650.6363050164377
831,650.401670266751
832,650.1657812861523
833,649.9353201905349
834,649.7171830363402
835,649.5183372265151
836,649.3455897984855
837,649.2052605978092
838,649.102786871551
839,649.0423101016311
840,649.0262956326452
841,649.0552167710848
842,649.1273216483585
843,649.2385147492447
844,649.3824153656236
845,649.5506614846097
846,649.7334791299247
847,649.920449134852
848,650.1013291684386
849,650.266774516778
850,650.4088475711552
851,650.5212808707068
852,650.5995299090666
853,650.6406968044192
854,650.6434098934446
855,650.607713811515
856,650.5349838573399
857,650.4278459739106
858,650.2900692156119
859,650.1264109065154
860,649.942428683343
861,649.7442914220333
862,649.5385927412693
863,649.3321169507475
864,649.1314844450684
865,648.9426468696323
866,648.7702888197571
867,648.617258772298
868,648.4841530207364
869,648.3691289868423
870,648.2679770873932
871,648.1744536633828
872,648.0808525649168
873,647.9787556202642
874,647.8598683748342
875,647.7168386533444
876,647.5439719250471
877,647.337785046982
878,647.097367050884
879,646.824537931487
880,646.5238138874029
881,646.2021965004335
882,645.868795140787
883,645.5342699613149
884,645.2100750225184
885,644.9075155042406
886,644.6367032780565
887,644.4055624721042
888,644.2190616250039
889,644.0788132003635
890,643.9830928219448
891,643.92722661826
892,643.9042254140795
893,643.905534203353
894,643.9217958508087
895,643.9435635013372
896,643.9619213978483
897,643.9689952758529
898,643.95835311698
899,643.9253061709658
900,643.8671160700673
901,643.7831006633932
902,643.6746127703594
903,643.5448556483635
904,643.3985191355321
905,643.2412739259269
906,643.0792149921306
907,642.918358451182
908,642.7642613687339
909,642.6217782324122
910,642.4949244641355
911,642.3868045372432
912,642.2995795298292
913,642.2344786204183
914,642.1918748039749
915,642.1714342236221
916,642.1723250968844
917,642.1934580431648
918,642.2337272778815
