frame_number,force
0,624.7508600000415
1,624.8059758030771
2,624.8627661190138
3,624.9223466301898
4,624.9848271159259
5,625.0490612938415
6,625.1126321329243
7,625.1720623179045
8,625.2232071811688
9,625.2617730538393
10,625.2838952145562
11,625.2867026519491
12,625.2687992020741
13,625.2306003894239
14,625.1744712572147
15,625.1046172921046
16,625.0267076166754
17,624.9472603361361
18,624.8728762367978
19,624.8094492831491
20,624.7614945344023
21,624.7317056770936
22,624.7207930978168
23,624.7275845575423
24,624.7493215919347
25,624.7820735557721
26,624.8212151656268
27,624.8619461124007
28,624.8998402544125
29,624.9313847663942
30,624.9544257765529
31,624.968415983831
32,624.9743911087863
33,624.9746753240471
34,624.9723871318891
35,624.9708533169144
36,624.9730411672161
37,624.9811043584975
38,624.9961138338607
39,625.0180111286772
40,625.0457771226769
41,625.0777599496315
42,625.1120668167212
43,625.1469145224247
44,625.1808596062804
45,625.2128765385469
46,625.2422989178026
47,625.268674410537
48,625.291603816172
49,625.3106275724743
50,625.3251931991722
51,625.3347100990655
52,625.3386875006363
53,625.3369414230351
54,625.3298303713999
55,625.3184453524663
56,625.3046628264289
57,625.2909879870253
58,625.2801705358462
59,625.274648319864
60,625.2759358689561
61,625.2840961382826
62,625.2974077134229
63,625.3122884745807
64,625.3234913762133
65,625.324561232428
66,625.3085207791781
67,625.268723330186
68,625.1997712854868
69,625.0983734241497
70,624.9640121196337
71,624.7993139604844
72,624.6100565389244
73,624.404791266879
74,624.1941103256132
75,623.9896334550666
76,623.8028352202213
77,623.643866227867
78,623.5205288020678
79,623.4375462274155
80,623.3962279687944
81,623.3945880535227
82,623.4279066551914
83,623.489631857971
84,623.5724343670072
85,623.669198574611
86,623.7737694329683
87,623.8813511379592
88,623.9885410062575
89,624.0930584240408
90,624.193279205879
91,624.287707175615
92,624.3745161536781
93,624.451280261854
94,624.514970221036
95,624.5622267400707
96,624.5898467689028
97,624.595360276303
98,624.577556118767
99,624.5368439286174
100,624.4753991521703
101,624.397097961363
102,624.3072852407852
103,624.2124279315206
104,624.1196883431356
105,624.0364187337881
106,623.9695627271287
107,623.9249795834288
108,623.906770948009
109,623.9167406382516
110,623.9541194270622
111,624.0156351087288
112,624.095926106122
113,624.188215922287
114,624.2851131430914
115,624.379393540239
116,624.4646572286753
117,624.5358119260197
118,624.5893752490606
119,624.6235998225696
120,624.6384308027484
121,624.6353284748097
122,624.6170091324573
123,624.5871474785349
124,624.5500515959558
125,624.5102983001126
126,624.4723208810226
127,624.4399703147019
128,624.4161090423104
129,624.4023226661253
130,624.3988339567613
131,624.404667740827
132,624.418046738616
133,624.4369218023559
134,624.4594968421018
135,624.4846221941235
136,624.5119841331841
137,624.542078254096
138,624.575998188187
139,624.6150944296829
140,624.6605683369659
141,624.7130754178145
142,624.7724195191582
143,624.8374068128925
144,624.905884724865
145,624.9749354156262
146,625.0411569169132
147,625.1009621157444
148,625.150852020586
149,625.1876587971158
150,625.2087801938034
151,625.2124195060835
152,625.1978111422444
153,625.1653824169047
154,625.1168017694843
155,625.0548907496584
156,624.9834152916914
157,624.9068040512841
158,624.8298520848849
159,624.7574465386172
160,624.6943074703037
161,624.6447050787126
162,624.6121241983175
163,624.5988912129858
164,624.6058212292054
165,624.6319588264407
166,624.6744769505007
167,624.7287786101307
168,624.7888213877525
169,624.8476545742394
170,624.898121749858
171,624.9336469505166
172,624.9490069981836
173,624.9409983328189
174,624.9089165043914
175,624.8547704611042
176,624.7831646432779
177,624.7008182739672
178,624.6157555100202
179,624.536272002753
180,624.4698337754473
181,624.4220789485007
182,624.396077562959
183,624.3919663054058
184,624.4070123262974
185,624.4360816913894
186,624.4724194045693
187,624.5086123519175
188,624.5376024041259
189,624.5536278697357
190,624.552988260048
191,624.5345491208493
192,624.4999266018784
193,624.4533117564833
194,624.4009230058907
195,624.350130711201
196,624.3083768350365
197,624.2820772308276
198,624.2757029548256
199,624.2911835263405
200,624.327691849344
201,624.3818010124218
202,624.4479656748799
203,624.5192603660919
204,624.5882853230503
205,624.6481301807651
206,624.6932784876851
207,624.7203423142687
208,624.7285315051776
209,624.7197889734239
210,624.6985668234848
211,624.6712728727027
212,624.6454678586864
213,624.6289279092605
214,624.6287007284523
215,624.6502726077472
216,624.696926742996
217,624.7693334466924
218,624.8653963757499
219,624.9803788721313
220,625.1073177270915
221,625.237686882241
222,625.3622293689072
223,625.4718644408456
224,625.5585953459776
225,625.6163602915323
226,625.641762001668
227,625.6345860375609
228,625.5980029964186
229,625.538371678593
230,625.4646222075307
231,625.3872775925026
232,625.3172381334323
233,625.2644837055336
234,625.2368487154823
235,625.2390182279905
236,625.2718900521412
237,625.3324210349718
238,625.414002093647
239,625.5073019698882
240,625.6014300436472
241,625.6852272206562
242,625.748503918006
243,625.7830888368712
244,625.7836074314903
245,625.747952840416
246,625.6774358135459
247,625.5766115356432
248,625.4527960052764
249,625.3153127114381
250,625.1745452362597
251,625.0408949346378
252,624.9237453142456
253,624.8305265503553
254,624.7659688946363
255,624.7316284449564
256,624.7257481981561
257,624.7434804180646
258,624.7774546136818
259,624.8186333129519
260,624.8573523839465
261,624.8844021891713
262,624.8919955933246
263,624.8745078453156
264,624.8289435813002
265,624.7551391446538
266,624.6557158755022
267,624.5357838914957
268,624.402395472093
269,624.2637758313163
270,624.12840460518
271,624.0040656854343
272,623.8970066063123
273,623.8113364205569
274,623.7487453524567
275,623.708566381217
276,623.6881345981138
277,623.6833512014098
278,623.6893402640118
279,623.7010987980372
280,623.7140661083718
281,623.7245565332521
282,623.7300116881554
283,623.7290527594446
284,623.7213547553063
285,623.7074050739778
286,623.6882280159056
287,623.6651460837176
288,623.6396156216521
289,623.6131379928052
290,623.5872209505847
291,623.5633503294634
292,623.5429356597472
293,623.5272199118748
294,623.5171781604466
295,623.5134442238566
296,623.5162875154333
297,623.525633399146
298,623.5411056829522
299,623.5620776609462
300,623.5877378181488
301,623.6171899237213
302,623.6495970295109
303,623.6843426295808
304,623.7211446402955
305,623.7600514540032
306,623.8012830090554
307,623.8449346927414
308,623.8906139097611
309,623.9371159038311
310,623.9822578156676
311,624.0229617976917
312,624.0556038170554
313,624.0765531597614
314,624.082767736126
315,624.0723106578936
316,624.0446982826497
317,624.0010392697192
318,623.9439572202364
319,623.8773138853686
320,623.8057754220869
321,623.7342871322284
322,623.6675339182851
323,623.6094615726855
324,623.5629216019588
325,623.529479004778
326,623.5093855556065
327,623.501686079731
328,623.5044175147743
329,623.514878015847
330,623.5299553500433
331,623.5464945192708
332,623.5616690952108
333,623.5733151899892
334,623.5801888352594
335,623.5821120422692
336,623.5799842014925
337,623.5756552751965
338,623.5716804409855
339,623.5709989529054
340,623.5765970617539
341,623.5912131511028
342,623.6171168364311
343,623.6559565808383
344,623.7086499109741
345,623.7753027534046
346,623.8551722238793
347,623.9466958172409
348,624.0475904357606
349,624.1550000549117
350,624.2656622131151
351,624.376070974197
352,624.4826277389251
353,624.5817854795016
354,624.6702028285182
355,624.7449241770305
356,624.8035869174888
357,624.84463758052
358,624.8675293418916
359,624.8728753385211
360,624.8625340157066
361,624.8395980867815
362,624.8082550550423
363,624.7734948023493
364,624.7406615081035
365,624.7148827186506
366,624.7004549545891
367,624.7003075088943
368,624.7156758407588
369,624.7460731169875
370,624.7895608992552
371,624.8432224411002
372,624.9036806248685
373,624.9675121641254
374,625.0314867183063
375,625.0926553761539
376,625.1483701239865
377,625.1963129885502
378,625.23457214054
379,625.26175973691
380,625.2771451407153
381,625.2807762582966
382,625.273570242632
383,625.2573620016184
384,625.2348947463104
385,625.2097229633844
386,625.1859947538578
387,625.1681029135623
388,625.1602325934358
389,625.1658684882293
390,625.1873468392087
391,625.225538156997
392,625.279713776441
393,625.3475941522834
394,625.4255363222059
395,625.5088136409677
396,625.5919548682688
397,625.6691172820466
398,625.7344698786804
399,625.7825679161236
400,625.8087078156196
401,625.809257393972
402,625.7819602680652
403,625.7262111639262
404,625.6432845765971
405,625.5364754679869
406,625.4110932390419
407,625.2742563926134
408,625.134464875288
409,625.0009645944195
410,624.8829548446056
411,624.7887226201123
412,624.7248100718648
413,624.6953238089352
414,624.7014799846313
415,624.7414539398978
416,624.8105655225291
417,624.9017786143453
418,625.0064393204342
419,625.1151435111631
420,625.2186195382812
421,625.3085262874065
422,625.3780875481447
423,625.4225104720562
424,625.4391738617675
425,625.4276116815331
426,625.3893364485743
427,625.3275386023795
428,625.2466805786396
429,625.1520033351452
430,625.0489813547647
431,624.9427794025079
432,624.8377686541444
433,624.7371608359957
434,624.6428192125379
435,624.5552873148463
436,624.4740324491133
437,624.397850487125
438,624.3253450367132
439,624.2553830761289
440,624.1874357770575
441,624.1217396656831
442,624.0592609263064
443,624.0015001734051
444,623.9502119800858
445,623.9071169848786
446,623.8736605113752
447,623.8508427924695
448,623.8391260911293
449,623.8384091024275
450,623.8480476618806
451,623.8669027188287
452,623.8934125097811
453,623.9256992601637
454,623.9617153114383
455,623.9994118746583
456,624.0368952662773
457,624.0725370060834
458,624.1050228781666
459,624.1333452089274
460,624.1567497011447
461,624.1746482015313
462,624.1865163815663
463,624.1918101293894
464,624.1899369183233
465,624.1802992968392
466,624.162404759585
467,624.1360277836166
468,624.1014064245884
469,624.059438768219
470,624.0118215746326
471,623.961072226284
472,623.9104033878302
473,623.8634589513866
474,623.8239538930136
475,623.7952860054932
476,623.7801970088132
477,623.7805426382338
478,623.797187678347
479,623.8299943456859
480,623.8778498787268
481,623.9386982624885
482,624.0095899437897
483,624.0868035581206
484,624.1660893269234
485,624.2430363721589
486,624.3135116060596
487,624.3740871371683
488,624.4223682062425
489,624.4571459483001
490,624.4783329546233
491,624.4867006540404
492,624.4835093324934
493,624.470164871089
494,624.4480169656232
495,624.4183360253411
496,624.3824197497128
497,624.3417430715717
498,624.2980887316327
499,624.2536384590348
500,624.2110224906544
501,624.1733164707169
502,624.1439649552464
503,624.1266137537427
504,624.124847209211
505,624.14184667942
506,624.1800072899678
507,624.2405667707054
508,624.323312189263
509,624.4264326187715
510,624.5465666700313
511,624.6790504461297
512,624.8183204422346
513,624.9583941128317
514,625.0933536645593
515,625.2177866984471
516,625.3271656410917
517,625.4181570384196
518,625.488841016329
519,625.53880774111
520,625.569103048845
521,625.5820254809023
522,625.5808160445481
523,625.5693058232564
524,625.5515777530082
525,625.5316618148523
526,625.5132478023712
527,625.4993955113407
528,625.4922469942891
529,625.492777010344
530,625.5006356677676
531,625.5141305938222
532,625.5303683532344
533,625.5455435825206
534,625.5553428348152
535,625.5554169576578
536,625.541863633171
537,625.5116495278804
538,625.4629014134861
539,625.3950258554573
540,625.3086742805536
541,625.2056173850938
542,625.0885959204782
543,624.9611820183916
544,624.8276502522342
545,624.6928382986886
546,624.5619693377256
547,624.4404080684108
548,624.3333310383719
549,624.2453122805088
550,624.179858643012
551,624.138965791987
552,624.1227825153126
553,624.12945833848
554,624.15522269735
555,624.1947148880947
556,624.2415475716074
557,624.2890393657422
558,624.3310056564835
559,624.3624698806391
560,624.3801639195715
561,624.3827326196732
562,624.3706399251112
563,624.3458605542382
564,624.3114792514094
565,624.2712924561548
566,624.2294541901897
567,624.1901696433156
568,624.1574209179939
569,624.1347039489921
570,624.124765281625
571,624.1293483968932
572,624.148980885673
573,624.1828458009384
574,624.2287758962593
575,624.2833917210587
576,624.3423855505888
577,624.4009352798502
578,624.4542104824288
579,624.4979099464008
580,624.5287525331433
581,624.5448359151549
582,624.545794452674
583,624.5327381065248
584,624.5080166626783
585,624.474887731341
586,624.4371583610881
587,624.3988378244115
588,624.3638099343383
589,624.3355222421088
590,624.3166975896154
591,624.3090916550356
592,624.3133348381649
593,624.3288940605069
594,624.3541634417217
595,624.3866575739976
596,624.4232668735192
597,624.4605501480436
598,624.4950595899242
599,624.5236911630318
600,624.5440324270913
601,624.5546623589432
602,624.5553545270669
603,624.547141983065
604,624.5322187852116
605,624.5136850813527
606,624.4951855743267
607,624.4805219183634
608,624.4733129598955
609,624.4767314333433
610,624.4932928341483
611,624.5246523939018
612,624.5713926961542
613,624.632829614105
614,624.7068884311726
615,624.7900956653282
616,624.8777159886624
617,624.9640517434398
618,625.0429050355887
619,625.108168228677
620,625.154467233658
621,625.1777547343386
622,625.1757520419225
623,625.1481679671201
624,625.0966673179314
625,625.024603119436
626,624.9365559000623
627,624.8377444338022
628,624.733392477253
629,624.6281485563313
630,624.5256472649161
631,624.4282726556814
632,624.3371498731267
633,624.252355898618
634,624.1733042620497
635,624.0992247979458
636,624.0296336478515
637,623.9646793784223
638,623.9052701257815
639,623.8529405991471
640,623.8094981531473
641,623.7765681348221
642,623.7552018263342
643,623.7456861022558
644,623.7476122678953
645,623.7601668728529
646,623.7825377011349
647,623.8142970069275
648,623.855635210122
649,623.9073688051914
650,623.9707169066623
651,624.0469043024244
652,624.1366859098524
653,624.2398924526628
654,624.3550764744997
655,624.4793062054099
656,624.6081287836174
657,624.7357137142449
658,624.8551883134526
659,624.9591731437076
660,625.040500297055
661,625.0930482770053
662,625.1125730166714
663,625.0973846853046
664,625.0487331641498
665,624.9708192540587
666,624.8704261334868
667,624.7562403136727
668,624.6379762229594
669,624.5254224097189
670,624.4275083365507
671,624.3514798036281
672,624.3022771891652
673,624.2822113103964
674,624.2909996281535
675,624.3261565625545
676,624.3836465091169
677,624.4586417091784
678,624.546211899735
679,624.6418122437631
680,624.7415013333847
681,624.8418839985029
682,624.9398287182742
683,625.0320584715611
684,625.1147520920157
685,625.1833103101184
686,625.2324213951612
687,625.2564960263152
688,625.2504454790982
689,625.2106842683254
690,625.1361681016793
691,625.0292375976844
692,624.8960432030583
693,624.7463930439797
694,624.5929840294931
695,624.4501100711165
696,624.332043345073
697,624.2513274465592
698,624.2172137393751
699,624.2344430725437
700,624.3025397447014
701,624.4157340587245
702,624.5635495471289
703,624.731985814059
704,624.9051269939011
705,625.066942120604
706,625.2030304365674
707,625.3020932102796
708,625.3569690401515
709,625.3651407290558
710,625.3286994692103
711,625.2538230712182
712,625.1498735381027
713,625.0282430512361
714,624.9010914600403
715,624.7801272362382
716,624.6755675310814
717,624.5953612347081
718,624.5446995494445
719,624.5258071892024
720,624.5380024781452
721,624.5780060625583
722,624.6404522245339
723,624.7185299055277
724,624.8046699509202
725,624.8912050675535
726,624.9709558340564
727,625.0377244146958
728,625.0866870735914
729,625.1146689133589
730,625.1202818329003
731,625.1039193872571
732,625.0676203596898
733,625.0148264379858
734,624.9500635054403
735,624.8785697743441
736,624.8058864187884
737,624.737430722257
738,624.6780870031055
739,624.6318597687597
740,624.6016257046019
741,624.5890044373491
742,624.5943538286468
743,624.6168813076702
744,624.6548426908465
745,624.7057824032806
746,624.7667690657281
747,624.8345963592219
748,624.9059318543976
749,624.9774017565604
750,625.04561857472
751,625.1071987746877
752,625.1588468174273
753,625.1975635025009
754,625.2209695228474
755,625.2276610642816
756,625.2174851895135
757,625.1916541919197
758,625.1526773179764
759,625.1041332590767
760,625.050324066741
761,624.9958532995543
762,624.9451732844751
763,624.9021520843066
764,624.8697152795694
765,624.8496135597331
766,624.8423481900943
767,624.847253484877
768,624.8626998964861
769,624.8863600301995
770,624.915482111131
771,624.9471329081819
772,624.9783877858612
773,625.0064553249206
774,625.0287391427903
775,625.0428640288815
776,625.0467114504385
777,625.0385032040393
778,625.0169441619831
779,624.9814046805798
780,624.9321049426376
781,624.8702600106152
782,624.7981517676816
783,624.7191032988156
784,624.6373326026453
785,624.557658206008
786,624.485038694306
787,624.4239697092868
788,624.3778286988216
789,624.3483130987505
790,624.3351191421373
791,624.3359448401616
792,624.3468077191964
793,624.3625968652528
794,624.3777500944803
795,624.3869483231091
796,624.3857360537978
797,624.3710009314748
798,624.3412656894631
799,624.2967586476589
800,624.2392478622766
801,624.171665293715
802,624.0976048698601
803,624.0208177967648
804,623.9448151419994
805,623.8726252879363
806,623.8066839364202
807,623.7487959606215
808,623.7001124566387
809,623.6611012177516
810,623.6315317121316
811,623.6105218974952
812,623.5966871913878
813,623.5883921909881
814,623.5840554799112
815,623.5824277866046
816,623.5827706483908
817,623.5849017761816
818,623.5891243938302
819,623.5960939138552
820,623.6066756463556
821,623.6218146288437
822,623.642402195194
823,623.6691138741465
824,623.7022139794738
825,623.7413565961201
826,623.7854405450375
827,623.8325797903547
828,623.8802235805098
829,623.9254181358672
830,623.9651679854894
831,623.9968375689958
832,624.0185275087981
833,624.029363599296
834,624.0296520369795
835,624.020881286631
836,624.0055824735932
837,623.9870827009463
838,623.9691899532884
839,623.9558392414714
840,623.9507179091346
841,623.9568800804051
842,623.976364068913
843,624.0098500388293
844,624.0564272878811
845,624.1135504535624
846,624.1772335699094
847,624.2424773933174
848,624.3038801847617
849,624.3563552923356
850,624.3958582218586
851,624.4200076263552
852,624.4284866820742
853,624.4231492412
854,624.4078186321277
855,624.3878283730737
856,624.3693916195573
857,624.3588947790859
858,624.3621994685294
859,624.3840199546619
860,624.4274286864985
861,624.4935306138844
862,624.5813349257163
863,624.6878375726891
864,624.8083078575426
865,624.9367495556793
866,625.0664838427407
867,625.190779885847
868,625.3034487685633
869,625.3993313121865
870,625.474648551795
871,625.527217489425
872,625.5565370608363
873,625.5637326648688
874,625.5513528871403
875,625.5230481492996
876,625.483190874354
877,625.4364932300684
878,625.3876558150425
879,625.341061130533
880,625.3005115717245
881,625.2689980174729
882,625.2484775314957
883,625.2396532513162
884,625.2417947608811
885,625.252689693461
886,625.2688277842913
887,625.2858573676938
888,625.2992453785598
889,625.3049791854637
890,625.3001283836936
891,625.2831447727345
892,625.2538777446932
893,625.2133644059535
894,625.1634861766368
895,625.1065725874422
896,625.0450078060444
897,624.9808772003505
898,624.9156842274444
899,624.8501720922956
900,624.7842932897387
901,624.7173611235827
902,624.6483736010125
903,624.5764379314269
904,624.5011809076109
905,624.4230306268615
906,624.3432946740687
907,624.2640192022067
908,624.1876709552466
909,624.1167243296934
910,624.0532496106002
911,623.9985878194814
912,623.9531713202801
913,623.9165152349533
914,623.8873674137584
915,623.8639732854633
916,623.8443965454418
917,623.8268371481741
