acceleration,velocity,displacement
-0.035379520261093055,0.0,0.0
-0.03500859401242311,-1.759702856837904e-05,-4.39925714209476e-09
-0.034638734371153244,-3.500886066427313e-05,-1.7550729450257802e-08
-0.03427099865558768,-5.223629392095836e-05,-3.936201809656567e-08
-0.03390642576442325,-6.928065002596109e-05,-6.974125408329554e-08
-0.0335460273722742,-8.614376331013545e-05,-1.0859735741731967e-07
-0.03319077962160177,-0.00010282796505860445,-1.5584028950950465e-07
-0.03284161545793211,-0.00011933606382848792,-2.1138129673127776e-07
-0.0324994176983763,-0.000135671322117565,-2.75133143217791e-07
-0.032165012856922116,-0.00015183742975638962,-3.470103311862796e-07
-0.03183916570731585,-0.0001678384743974491,-4.269293072247393e-07
-0.03152257455458186,-0.00018367890946292354,-5.148086531898324e-07
-0.03121586719099644,-0.0001993635198993181,-6.105692605303929e-07
-0.030919597511678436,-0.0002148973860749868,-7.141344870239692e-07
-0.0306342427567998,-0.00023028584614210638,-8.254302950782424e-07
-0.030360201340833375,-0.00024553445716651466,-9.443853709053976e-07
-0.030097791229626986,-0.00026064895530912975,-1.0709312240243087e-06
-0.029847248831927346,-0.00027563521532451835,-1.2050022666827207e-06
-0.029608728381381226,-0.0002904992096278455,-1.3465358729208117e-06
-0.02938230179844195,-0.00030524696717280133,-1.4954724171209734e-06
-0.02916795903598171,-0.00031988453238140723,-1.6517552920095256e-06
-0.028965608918113412,-0.000334417924369931,-1.81533090619736e-06
-0.028775080472778325,-0.00034885309671765395,-1.9861486614692564e-06
-0.028596124744413417,-0.0003631958980219519,-2.1641609101541577e-06
-0.028428417067523158,-0.00037745203347493606,-2.34932289302838e-06
-0.028271559781723035,-0.0003916270276872476,-2.541592658318926e-06
-0.028125085359911022,-0.0004057261889726561,-2.740930962483902e-06
-0.027988459906132808,-0.0004197545752891671,-2.947301153549358e-06
-0.027861086974236237,-0.00043371696200925937,-3.1606690378739647e-06
-0.027742311666549738,-0.00044761781166945586,-3.3810027312936436e-06
-0.027631424982559032,-0.00046146124583173304,-3.608272495668941e-06
-0.02752766839452657,-0.0004752510191760044,-3.842450561920875e-06
-0.02743023863643309,-0.0004889904959337443,-4.083510940698313e-06
-0.027338292712620782,-0.0005026826287710078,-4.331429221874501e-06
-0.027250953160702612,-0.0005163299402393386,-4.586182364127087e-06
-0.027167313624537948,-0.0005299345069356488,-4.847748475920834e-06
-0.027086444790867737,-0.0005434979465395002,-5.116106589289621e-06
-0.027007400718220397,-0.0005570214079167722,-5.3912364279036895e-06
-0.026929225562215296,-0.0005705055644868811,-5.673118171004603e-06
-0.02685096069939658,-0.000583950611052284,-5.961732214889394e-06
-0.026771652265520654,-0.0005973562642935133,-6.2570589337258435e-06
-0.026690359127635725,-0.0006107217671418024,-6.559078441584673e-06
-0.026606161287032297,-0.0006240458972454694,-6.86777035768149e-06
-0.026518168668379128,-0.0006373269797343222,-7.183113576926438e-06
-0.02642553020455444,-0.0006505629044525556,-7.505086047973157e-06
-0.026327443087637823,-0.0006637511477756037,-7.833664561030196e-06
-0.02622316202733865,-0.0006768887990543478,-8.168824547737685e-06
-0.026112008339927443,-0.0006899725916461643,-8.510539895412814e-06
-0.025993378690592362,-0.0007029989384037943,-8.858782777925304e-06
-0.025866753335589285,-0.0007159639714103397,-9.213523505378837e-06
-0.02573170374928863,-0.0007288635856815592,-9.574730394651812e-06
-0.025587899556496888,-0.0007416934865080056,-9.942369662699203e-06
-0.025435114712104336,-0.000754449240075156,-1.0316405344344994e-05
-0.02527323288214985,-0.0007671263269737195,-1.0696799236107213e-05
-0.02510225198837097,-0.0007797201981913497,-1.1083510867398481e-05
-0.02492228788492226,-0.0007922263331596731,-1.1476497500236237e-05
-0.024733577145211193,-0.0008046402994172064,-1.1875714158380457e-05
-0.024536478951332975,-0.0008169578134413425,-1.2281113686595094e-05
-0.024331476094304513,-0.0008291748022027518,-1.2692646840506118e-05
-0.02411917510436949,-0.0008412874650024204,-1.311026240730741e-05
-0.023900305533772693,-0.0008532923351619559,-1.3533907357348505e-05
-0.02367571840704987,-0.0008651863411471615,-1.3963527026425785e-05
-0.023446383836629166,-0.0008769668667080812,-1.4399065328389595e-05
-0.0232133877819055,-0.000888631809612715,-1.4840464997469795e-05
-0.022977927916958046,-0.0009001796385374308,-1.5287667859507333e-05
-0.022741308570178052,-0.0009116094476592148,-1.5740615131056492e-05
-0.022504934709204193,-0.0009229210084790604,-1.6199247745091063e-05
-0.022270304967400567,-0.0009341148183982116,-1.6663506701810382e-05
-0.022039003739579288,-0.0009451921455749566,-1.7133333442803676e-05
-0.021812692404632142,-0.0009561550696110094,-1.760867024660017e-05
-0.021593099751745434,-0.0009670065176501038,-1.8089460643415447e-05
-0.02138201169450412,-0.0009777502955116662,-1.857564984670589e-05
-0.021181260357166908,-0.000988391113524584,-1.9067185198964954e-05
-0.020992712609503382,-0.0009989346067662515,-1.9564016629037663e-05
-0.020818258110317876,-0.0010093873494462068,-2.0066097118090778e-05
-0.02065979690050748,-0.001019756863198913,-2.057338317125206e-05
-0.020519226574229946,-0.0010300516190675975,-2.1085835291818686e-05
-0.020398429059758194,-0.0010402810329760944,-2.1603418454829608e-05
-0.020299257060050653,-0.0010504554545060466,-2.2126102576700143e-05
-0.020223520230213426,-0.0010605861488286125,-2.265386297753381e-05
-0.020172971196989888,-0.0010706852716854134,-2.3186680832662316e-05
-0.020149291550060882,-0.001080765837372176,-2.3724543609926715e-05
-0.02015407795703621,-0.0010908416797489502,-2.4267445489206996e-05
-0.02018882857471868,-0.0011009274063818889,-2.4815387760739705e-05
-0.020254929944023965,-0.0011110383460115746,-2.536837919883807e-05
-0.020353644556603455,-0.0011211904896367315,-2.5926436407750146e-05
-0.020486099266243264,-0.0011314004255924433,-2.648958413655744e-05
-0.020653274696634662,-0.0011416852690831628,-2.7057855560226342e-05
-0.02085599577969801,-0.001152062586702246,-2.7631292524172694e-05
-0.02109492354830798,-0.0011625503165342474,-2.820994574998182e-05
-0.021370548301825387,-0.0011731666844967807,-2.8793875000239575e-05
-0.021683184255493353,-0.0011839301176361104,-2.93831492007728e-05
-0.022032965763059895,-0.0011948591551407487,-2.9977846518967016e-05
-0.02241984516209775,-0.001205972357872038,-3.057805439722021e-05
-0.022843592248389822,-0.0012172882172246599,-3.118386954099439e-05
-0.023303795357751362,-0.0012288250641261953,-3.17953978613321e-05
-0.0237998640193211,-0.0012406009789704634,-3.2412754372106266e-05
-0.0243310331280039,-0.0012526337032572946,-3.3036063042663206e-05
-0.02489636855943292,-0.0012649405536791537,-3.3665456606897316e-05
-0.025494774127944722,-0.0012775383393509982,-3.430107633015485e-05
-0.026124999776096648,-0.0012904432828270086,-3.494307173569935e-05
-0.026785650882965632,-0.0013036709454917741,-3.5591600292779046e-05
-0.02747519858303972,-0.0013172361578582756,-3.624682706861656e-05
-0.028191990995941447,-0.001331152955253021,-3.690892434689438e-05
-0.02893426527861347,-0.0013454345193216596,-3.757807121553805e-05
-0.02970016042128159,-0.0013600931257466333,-3.8254453126805124e-05
-0.030487730711305915,-0.0013751400985297802,-3.893826143287423e-05
-0.031294959787921794,-0.0013905857711545872,-3.9629692900295323e-05
-0.03211977521375326,-0.001406439454905006,-4.032894920681022e-05
-0.03296006349422096,-0.0014227094145819997,-4.1036236424181974e-05
-0.0338136854709738,-0.0014394028518232983,-4.17517644907833e-05
-0.03467849199436869,-0.001456525896189634,-4.247574667778653e-05
-0.03555233975187338,-0.0014740836041261945,-4.320839905286549e-05
-0.036433107106531436,-0.0014920799658407957,-4.3949939945357234e-05
-0.03731870978550743,-0.0015105179200638054,-4.4700589416833384e-05
-0.03820711624799156,-0.0015293993765721802,-4.546056874099238e-05
-0.039096362548116124,-0.0015487252462712071,-4.6230099896703224e-05
-0.03998456648875226,-0.0015684954785304243,-4.700940507790363e-05
-0.04086994084009141,-0.0015887091053626353,-4.7798706223876896e-05
-0.041750805386390685,-0.0016093642919192558,-4.859822457319737e-05
-0.04262559758166796,-0.0016304583926612705,-4.94081802443425e-05
-0.04349288164046068,-0.0016519880124668026,-5.022879184562452e-05
-0.04435135594330804,-0.0016739490718627448,-5.106027611670691e-05
-0.045199858681821005,-0.001696336875519027,-5.190284760355235e-05
-0.04603737170497433,-0.0017191461831157259,-5.275671836821104e-05
-0.046863022562895616,-0.0017423712816826934,-5.362209773441065e-05
-0.047676084778391435,-0.0017660060585180152,-5.449919206946083e-05
-0.04847597640831367,-0.0017900440738146915,-5.5388204602544006e-05
-0.049262256984138365,-0.0018144786321628045,-5.628933527903838e-05
-0.050034622942212836,-0.0018393028521443923,-5.720278065011518e-05
-0.0507929016726073,-0.0018645097332980972,-5.81287337964758e-05
-0.0515370443367495,-0.0018900922198004364,-5.906738428475043e-05
-0.052267117624083335,-0.0019160432602906446,-6.0018918154773206e-05
-0.052983294626837665,-0.001942355863353375,-6.098351793568421e-05
-0.0536858450066048,-0.0019690231482617357,-6.196136268858798e-05
-0.054375124612607455,-0.0019960383906665385,-6.295262807332005e-05
-0.05505156469656796,-0.0020233950629938323,-6.395748643673514e-05
-0.055715660855056644,-0.0020510868693817386,-6.497610691982904e-05
-0.05636796181445819,-0.0020791077750491175,-6.600865558093675e-05
-0.05700905815816705,-0.002107452030042274,-6.70552955322096e-05
-0.05763957108942651,-0.0021361141873541723,-6.811618708655871e-05
-0.0582601413310887,-0.0021650891154593012,-6.919148791226207e-05
-0.05887141827404071,-0.0021943720053605835,-7.028135319246704e-05
-0.05947404948352561,-0.002223958372299975,-7.138593578688218e-05
-0.06006867065683875,-0.002253844052335066,-7.250538639304095e-05
-0.06065589611049665,-0.0022840251940269,-7.363985370463143e-05
-0.06123630986941829,-0.0023144982455218788,-7.478948456451863e-05
-0.061810457433822456,-0.0023452599373476888,-7.595442411023602e-05
-0.06237883830437799,-0.0023763072612822387,-7.71348159098935e-05
-0.06294189934483027,-0.002407637445694541,-7.83308020866377e-05
-0.06350002904976954,-0.002439247927793191,-7.954252343000963e-05
-0.06405355276981058,-0.002471136323248086,-8.077011949276994e-05
-0.0646027289355922,-0.0025033003936744368,-8.201372867200058e-05
-0.06514774631146882,-0.0025357380124862022,-8.327348827354074e-05
-0.06568872228747806,-0.002568447129635939,-8.454953455907128e-05
-0.0662257021812814,-0.0026014257357531287,-8.584200277541855e-05
-0.06675865948194948,-0.0026346718261689365,-8.715102716589907e-05
-0.06728749693775295,-0.002668183365273862,-8.847674096375976e-05
-0.06781204837394375,-0.0027019582516017862,-8.981927636797867e-05
-0.06833208111854054,-0.0027359942839749072,-9.117876450187285e-05
-0.06884729891070086,-0.0027702891289822177,-9.255533535511213e-05
-0.06935734517284052,-0.002804840290003103,-9.394911770985845e-05
-0.06986180655088162,-0.0028396450779340334,-9.536023905184274e-05
-0.07036021666062829,-0.002874700583736911,-9.678882546726047e-05
-0.07085206000435347,-0.0029100036529031564,-9.82350015264205e-05
-0.07133677603089583,-0.002945550861911969,-9.969889015512427e-05
-0.07181376331346069,-0.002981338496748058,-0.00010118061249478928
-0.07228238382532949,-0.0030173625335327557,-0.00010268028775235948
-0.07274196730715565,-0.003053618621315877,-0.00010419803304107164
-0.07319181573172164,-0.0030901020670755963,-0.0001057339632131695
-0.07363120787238724,-0.0031268078229766236,-0.00010728819068568256
-0.07405940396568422,-0.0031637304759361416,-0.00010886082526041075
-0.07447565043098126,-0.003200864239535308,-0.00011045197393927861
-0.07487918458291448,-0.003238202948288782,-0.00011206174073623464
-0.07526923925981514,-0.0032757400542494644,-0.0001136902264868692
-0.07564504729908737,-0.00331346862588919,-0.00011533752865690385
-0.0760058458073789,-0.0033513813491658066,-0.0001170037411506676
-0.0763508801804546,-0.003389470530662765,-0.00011868895412062475
-0.07667940781785458,-0.0034277281026623423,-0.00012039325377895603
-0.07699070146337186,-0.003466145629982649,-0.00012211672221211728
-0.07728405210216323,-0.003504714318374033,-0.00012385943719920645
-0.07755877136363792,-0.003543425024240483,-0.0001256214720348601
-0.07781419340778488,-0.003582268265433339,-0.00012740289535727854
-0.07804967630123237,-0.0036212342328605933,-0.00012920377098185203
-0.07826460291127948,-0.0036603128026637213,-0.0001310241577407331
-0.07845838135500083,-0.0036994935487302916,-0.00013286410932858162
-0.0786304450304447,-0.003738765755326653,-0.00013472367415459587
-0.07878025223073626,-0.0037781184296419483,-0.000136602895200838
-0.07890728531548673,-0.003817540314028504,-0.00013850180988675564
-0.07901104940257693,-0.00385701989770802,-0.00014042044993968977
-0.07909107054513347,-0.0038965454276949476,-0.00014235884127104052
-0.07914689336375626,-0.00393610491867217,-0.0001443170038576323
-0.07917807811585915,-0.003975686161542074,-0.00014629495162768585
-0.07918419721220028,-0.004015276730374089,-0.0001482926923506649
-0.07916483122984858,-0.004054863987484602,-0.00015031022753012957
-0.07911956450461584,-0.004094435086418218,-0.00015234755229860528
-0.07904798040820424,-0.004133976972646423,-0.00015440465531337143
-0.07894965643329299,-0.004173476381856797,-0.00015648151865199723
-0.07882415922647647,-0.004212919835771739,-0.00015857811770640437
-0.07867103971706829,-0.0042522936355076256,-0.0001606944210742242
-0.07848982848349667,-0.004291583852557766,-0.00016283039044624054
-0.07828003148394423,-0.004330776317549627,-0.0001649859804887674
-0.07804112626754614,-0.004369856606987499,-0.00016716113871990168
-0.07777255878633034,-0.004408810028250968,-0.00016935580537871128
-0.07747374094278153,-0.004447621603183246,-0.00017156991328656982
-0.07714404901916161,-0.004486276050673732,-0.00017380338770003407
-0.07678282312723293,-0.0045247577687103305,-0.0001760561461548801
-0.07638936778544547,-0.0045630508164385,-0.00017832809830116729
-0.07596295368271284,-0.00460113889680554,-0.0001806191457294783
-0.07550282063986581,-0.004639005340386184,-0.00018292918178877622
-0.07500818174576622,-0.0046766330909825925,-0.0001852580913966184
-0.07447822862852994,-0.004714004693576167,-0.0001876057508427581
-0.07391213781609833,-0.004751102285187324,-0.00018997202758744896
-0.07330907813533746,-0.004787907589175184,-0.0001923567800560396
-0.07266821909339316,-0.004824401913482366,-0.00019475985743170398
-0.07198874018329735,-0.004860566153301538,-0.00019718109944839995
-0.0712698410558253,-0.004896380798611319,-0.00019962033618637815
-0.0705107524909982,-0.004931825946998025,-0.0002020773878727805
-0.06971074807929704,-0.004966881322140599,-0.00020455206469006514
-0.06886915649190017,-0.005001526298283399,-0.00020704416659517115
-0.06798537419107561,-0.005035739930954143,-0.00020955348315248053
-0.06705887840685135,-0.005069500994103624,-0.00021207979338374496
-0.06608924018167649,-0.005102788023750756,-0.00021462286563820855
-0.06507613726566333,-0.005135579368112591,-0.00021718245748617439
-0.06401936663794325,-0.0051678532440884925,-0.00021975831563922466
-0.06291885643386097,-0.0051995877998564435,-0.00022235017590021088
-0.061774677068326726,-0.005230761183231991,-0.000224957763145983
-0.06058705135839799,-0.0052613516153386716,-0.00022758079134562568
-0.05935636345672973,-0.0052913374690424534,-0.00023021896361672095
-0.05808316641032389,-0.005320697351509217,-0.00023287197232185885
-0.05676818816791437,-0.005349410190153776,-0.0002355394992072746
-0.05541233588932741,-0.005377455321168087,-0.00023822121558510507
-0.05401669846020408,-0.0054048125797554695,-0.00024091678256033596
-0.05258254716955093,-0.005431462391162908,-0.00024362585130306556
-0.05111133455093723,-0.00545738586159303,-0.00024634806336625454
-0.04960469141590767,-0.005482564868084741,-0.00024908305104867396
-0.048064422124869166,-0.005506982146469935,-0.0002518304378023126
-0.046492498153696604,-0.005530621376539576,-0.000254589838683065
-0.04489105002571293,-0.005553467263584428,-0.000257360860843096
-0.04326235768570863,-0.005575505615512283,-0.0002601431040628702
-0.04160883939824192,-0.005596723414783271,-0.0002629361613204441
-0.03993303926675036,-0.005617108884449519,-0.0002657396193952523
-0.038237613497622974,-0.005636651547640612,-0.0002685530595032748
-0.036525315566049356,-0.00565534227990653,-0.0002713760579601616
-0.03479898046726434,-0.0056731733539148585,-0.00027420818686861695
-0.033061508255026906,-0.005690138476095431,-0.0002770490148261195
-0.031315847080183555,-0.005706232814929234,-0.0002798981076488757
-0.0295649759445369,-0.005721453020685414,-0.0002827550291077794
-0.02781188737649119,-0.005735797236515671,-0.00028561934167207966
-0.026059570215509517,-0.005749265100913671,-0.000288490607256437
-0.024310992670106682,-0.005761857741635075,-0.0002913683879670742
-0.022569085802801585,-0.005773577761253302,-0.00029425224684279626
-0.020836727602004664,-0.005784429214604503,-0.00029714174858676073
-0.01911672781398573,-0.005794417578458501,-0.00030003646028502645
-0.01741181371011145,-0.0058035497138395255,-0.00030293595210810096
-0.015724616951969306,-0.005811833821505046,-0.0003058397979919371
-0.014057661698116036,-0.005819279391167567,-0.00030874757629510523
-0.012413354074559705,-0.005825897145110736,-0.0003116588704291748
-0.010793973102808562,-0.005831698976905078,-0.00031457326945967876
-0.009201663142090831,-0.005836697885966303,-0.0003174903686753966
-0.0076384278610002986,-0.005840907908717076,-0.00032040977012406745
-0.006106125713716898,-0.005844344047110755,-0.00032333108311302444
-0.004606466858910014,-0.0058470221952539115,-0.0003262539246736156
-0.0031410114248633706,-0.005848959064824855,-0.0003291779199886353
-0.0017111689935119044,-0.005850172109929448,-0.00033210270278232384
-0.00031819915162772076,-0.005850679451965733,-0.0003350279156727976
0.0010367870584878072,-0.0058504998049890185,-0.0003379532104870363
0.0023528249620166156,-0.005849652401983893,-0.00034087824853877953
0.003629093516603639,-0.005848156922364237,-0.0003438027008698666
0.004864912176153736,-0.005846033420941048,-0.0003467262484556929
0.006059737499741885,-0.005843302258522074,-0.00034964858237555873
0.0072131596467233956,-0.005839984034235458,-0.0003525694039487481
0.00832489889464874,-0.005836099519600115,-0.00035548842483720697
0.009394802302561798,-0.005831669594300812,-0.0003584053671156822
0.010422840613697892,-0.005826715183571747,-0.00036131996331015037
0.011409105452589158,-0.005821257197055175,-0.0003642319564053071
0.012353806830189005,-0.005815316468984481,-0.000367141099821817
0.013257270931672956,-0.005808913699544015,-0.00037004715736394916
0.014119938123454854,-0.005802069397280233,-0.0003729499031381552
0.014942361075024493,-0.005794803822480613,-0.0003758491214430954
0.0157252028511148,-0.005787136931499078,-0.00037874460663159037
0.01646923479926906,-0.005779088322086482,-0.00038163616294498674
0.017175334040939523,-0.005770677179876431,-0.00038452360432047745
0.017844480368797374,-0.005761922226273996,-0.00038740675417201506
0.01847775236108439,-0.0057528416680915255,-0.00039028544514560645
0.019076322551921758,-0.005743453149363274,-0.00039315951884997017
0.01964145154683685,-0.005733773705838585,-0.00039602882556377065
0.02017448103806989,-0.005723819722692358,-0.0003988932239209034
0.020676825740207794,-0.0057136068959977885,-0.00040175258057557596
0.021149964321078636,-0.005703150198482467,-0.000404606769849196
0.02159542943935847,-0.005692463850042358,-0.00040745567336132724
0.022014797017257077,-0.0056815612934282035,-0.0004102991796471949
0.022409674876066293,-0.0056704551754548724,-0.0004131371837644157
0.022781690851667247,-0.005659157334022939,-0.00041596958689178514
0.02313248049805872,-0.0056476787911855075,-0.0004187962959230873
0.023463674487352974,-0.005636029752439154,-0.0004216172230589935
0.02377688582510845,-0.005624219612361039,-0.00042443228540019353
