acceleration,velocity,displacement
-0.03537952026239769,0.0,0.0
-0.035008594015593295,-1.7597028569497748e-05,-4.399257142374437e-09
-0.034638734376272254,-3.500886066746414e-05,-1.755072945161491e-08
-0.0342709986627288,-5.22362939272144e-05,-3.936201810028455e-08
-0.033906425773644236,-6.928065003630766e-05,-6.974125409116507e-08
-0.033546027383620586,-8.614376332562387e-05,-1.0859735743164795e-07
-0.03319077963510245,-0.00010282796508030462,-1.5584028953313007e-07
-0.03284161547359823,-0.0001193360638574798,-2.1138129676757617e-07
-0.03249941771619789,-0.00013567132215492881,-2.7513314327067835e-07
-0.032165012876872574,-0.00015183742980319644,-3.4701033126020965e-07
-0.031839165729354135,-0.00016783847445475312,-4.2692930732469706e-07
-0.03152257457866028,-0.0001836789095317567,-5.148086533213246e-07
-0.031215867217061762,-0.00019936351998068723,-6.105692606994356e-07
-0.030919597539675197,-0.00021489738616987147,-7.141344872370752e-07
-0.030634242786671432,-0.00023028584625145812,-8.254302953424076e-07
-0.03036020137251887,-0.0002455344572912557,-9.443853712280861e-07
-0.03009779126306534,-0.00026064895545015176,-1.070931224413438e-06
-0.029847248867054227,-0.00027563521548268165,-1.2050022671466464e-06
-0.029608728418126746,-0.00029049920980397687,-1.3465358734683111e-06
-0.029382301836734008,-0.00030524696736769204,-1.4954724177612284e-06
-0.02916795907574598,-0.00031988453259581206,-1.6517552927521045e-06
-0.028965608959272235,-0.0003344179246045666,-1.8153309070521993e-06
-0.028775080515250715,-0.00034885309697319736,-1.98614866244664e-06
-0.028596124788113943,-0.00036319589829903853,-2.1641609112646992e-06
-0.028428417112365278,-0.00037745203377415835,-2.3493228942829983e-06
-0.028271559827622424,-0.0003916270280091553,-2.5415926597288266e-06
-0.028125085406782244,-0.0004057261893177565,-2.7409309640605548e-06
-0.027988459953880433,-0.00041975457565792215,-2.9473011553044742e-06
-0.027861087022757056,-0.00043371696240208154,-3.1606690398194753e-06
-0.02774231171573832,-0.00044761781208670537,-3.381002733441672e-06
-0.027631425032305507,-0.00046146124627371635,-3.6082724980317775e-06
-0.027527668444719947,-0.00047525101964297273,-3.84245056451095e-06
-0.027430238686957934,-0.0004889904964258922,-4.083510943528166e-06
-0.02733829276336499,-0.0005026826292884728,-4.3314292249567575e-06
-0.027250953211560725,-0.0005163299407822043,-4.586182367474427e-06
-0.027167313675415618,-0.0005299345075039483,-4.847748479545965e-06
-0.02708644484168837,-0.0005434979471332243,-5.116106593205258e-06
-0.02700740076892072,-0.0005570214085358766,-5.391236432122533e-06
-0.026929225612743128,-0.0005705055651312925,-5.673118175539325e-06
-0.02685096074970862,-0.0005839506117219054,-5.9617322197526245e-06
-0.02677165231557027,-0.0005973562649882251,-6.257058938930157e-06
-0.026690359177371836,-0.0006107217678614607,-6.559078447142578e-06
-0.0266061613364027,-0.0006240458979899043,-6.867770363605419e-06
-0.026518168717338288,-0.0006373269805033396,-7.18311358322873e-06
-0.02642553025305459,-0.0006505629052459378,-7.505086054666049e-06
-0.026327443135634523,-0.0006637511485931101,-7.833664568125812e-06
-0.026223162074785242,-0.000676888799895715,-8.168824555248018e-06
-0.026112008386776152,-0.0006899725925111054,-8.510539903349723e-06
-0.025993378736794293,-0.000702998939291998,-8.858782786300498e-06
-0.02586675338109555,-0.0007159639723214704,-9.213523514203865e-06
-0.025731703794049224,-0.0007288635866152566,-9.574730403938046e-06
-0.0255878996004618,-0.0007416934874638844,-9.94236967245783e-06
-0.025435114755231334,-0.0007544492410528077,-1.0316405354587003e-05
-0.025273232924403363,-0.0007671263279727164,-1.0696799246843385e-05
-0.02510225202972541,-0.0007797201992112485,-1.1083510878639376e-05
-0.02492228792536426,-0.000792226334200021,-1.1476497511992193e-05
-0.024733577184737378,-0.0008046403004775464,-1.1875714170661584e-05
-0.0245364789899433,-0.0008169578145212165,-1.2281113699411275e-05
-0.02433147613199894,-0.0008291748033017021,-1.2692646853867004e-05
-0.02411917514114798,-0.0008412874661199888,-1.3110262421222427e-05
-0.023900305569632994,-0.000853292336297684,-1.3533907371826845e-05
-0.02367571844198973,-0.0008651863423005897,-1.3963527041476413e-05
-0.02344638387064523,-0.0008769668678787484,-1.4399065344021247e-05
-0.0232133878149922,-0.0008886318108001578,-1.4840465013690974e-05
-0.022977927949106483,-0.0009001796397411824,-1.528766787632631e-05
-0.022741308601370462,-0.0009116094488788016,-1.5740615148481305e-05
-0.02250493473941726,-0.0009229210097139985,-1.6199247763129507e-05
-0.022270304996604318,-0.000934114819648004,-1.6663506720470006e-05
-0.022039003767732667,-0.0009451921468390883,-1.7133333462091778e-05
-0.021812692431684103,-0.0009561550708889425,-1.7608670266523787e-05
-0.021593099777633833,-0.000967006518941272,-1.808946066398134e-05
-0.021382011719159055,-0.00097775029681547,-1.8575649867920525e-05
-0.021181260380508493,-0.000988391114840387,-1.9067185220834488e-05
-0.020992712631441753,-0.0009989346080933744,-1.956401665156793e-05
-0.02081825813076428,-0.0010093873507839258,-2.0066097141287253e-05
-0.020659796919372073,-0.00101975686454646,-2.057338319511985e-05
-0.020519226591420664,-0.0010300516204241582,-2.1085835316362503e-05
-0.02039842907518632,-0.0010402810343408098,-2.1603418480053744e-05
-0.020299257073631918,-0.0010504554558780144,-2.212610260260845e-05
-0.020223520241868014,-0.0010605861502068893,-2.2653863004129677e-05
-0.020172971206647974,-0.0010706852730690184,-2.3186680859948653e-05
-0.020149291557663766,-0.0010807658387600963,-2.372454363790593e-05
-0.02015407796253297,-0.0010908416811401455,-2.4267445517880993e-05
-0.020188828578068384,-0.001100927407775296,-2.4815387790109854e-05
-0.020254929945199018,-0.0011110383474061127,-2.5368379228905204e-05
-0.02035364455559292,-0.0011211904910313107,-2.592643643851456e-05
-0.020486099263045093,-0.00113140042698597,-2.648958416801888e-05
-0.020653274691257918,-0.001141685270474546,-2.705785559238401e-05
-0.02085599577216619,-0.0011520625880904018,-2.7631292557025247e-05
-0.021094923538654574,-0.001162550317918107,-2.8209945783527373e-05
-0.021370548290097217,-0.001173166685875295,-2.8793875034475722e-05
-0.02168318424174723,-0.001183930119008256,-2.9383149235696608e-05
-0.02203296574736151,-0.0011948591565055333,-2.9977846554575055e-05
-0.022419845144521687,-0.0012059723592285042,-3.057805443350856e-05
-0.022843592229019535,-0.0012172882185718895,-3.118386957795866e-05
-0.02330379533667253,-0.0012288250654633125,-3.179539789896746e-05
-0.023799863996621613,-0.001240600980296636,-3.241275441040745e-05
-0.02433103310377498,-0.0012526337045717353,-3.303606308162454e-05
-0.02489636853377133,-0.0012649405549811218,-3.3665456646512755e-05
-0.02549477410095056,-0.0012775383406398023,-3.430107637041799e-05
-0.026124999747875553,-0.001290443284102009,-3.494307177660344e-05
-0.026785650853619898,-0.0013036709467523827,-3.559160033431704e-05
-0.027475198552663865,-0.0013172361591039536,-3.624682711078112e-05
-0.028191990964626653,-0.0013311529564832762,-3.690892438967793e-05
-0.028934265246449802,-0.0013454345205360454,-3.757807125893276e-05
-0.029700160388360205,-0.0013600931269447478,-3.8254453170802956e-05
-0.030487730677717966,-0.0013751400997112674,-3.893826147746696e-05
-0.03129495975375288,-0.001390585772319135,-3.962969294547456e-05
-0.03211977517909117,-0.001406439456052346,-4.032894925256743e-05
-0.032960063459156815,-0.0014227094157119081,-4.1036236470508496e-05
-0.03381368543560648,-0.0014394028529355989,-4.1751764537670376e-05
-0.03467849195880151,-0.001456525897284201,-4.247574672522532e-05
-0.035552339716209636,-0.0014740836052029537,-4.3208399100847114e-05
-0.036433107070883305,-0.0014920799668997268,-4.394993999387279e-05
-0.037318709749989284,-0.001510517921104945,-4.4700589465873956e-05
-0.038207116212726655,-0.001529399377595624,-4.54605687905491e-05
-0.039096362513235484,-0.0015487252472771145,-4.623009994676728e-05
-0.03998456645438911,-0.0015684954795190207,-4.7009405128466314e-05
-0.04086994080637562,-0.0015887091063342118,-4.779870627492962e-05
-0.041750805353439925,-0.0016093642928741657,-4.8598224624731716e-05
-0.042625597549587675,-0.0016304583935999226,-4.9408180296350236e-05
-0.04349288160934743,-0.0016519880133896564,-5.022879189809763e-05
-0.044351355913248375,-0.0016739490727703053,-5.106027616963762e-05
-0.04519985865289259,-0.0016963368764118406,-5.1902847656933156e-05
-0.04603737167725704,-0.001719146183994378,-5.275671842203471e-05
-0.04686302253647712,-0.0017423712825478117,-5.362209778867026e-05
-0.04767608475336602,-0.0017660060593702725,-5.449919212414978e-05
-0.04847597638477788,-0.0017900440746548083,-5.538820465765605e-05
-0.04926225696218649,-0.0018144786329915494,-5.628933533456764e-05
-0.05003462292192696,-0.0018393028529625776,-5.720278070605617e-05
-0.050792901654050635,-0.001864509734106572,-5.8128733852823456e-05
-0.05153704431997417,-0.0018900922206000783,-5.9067384341500116e-05
-0.05226711760912589,-0.0019160432610823533,-6.001891821192072e-05
-0.05298329461371914,-0.0019423558641380645,-6.098351799322583e-05
-0.053685844995330675,-0.001969023149040327,-6.196136274652043e-05
-0.054375124603164335,-0.0019960383914399507,-6.29526281316405e-05
-0.05505156468893136,-0.0020233950637629744,-6.395748649544122e-05
-0.05571566084918653,-0.0020510868701475037,-6.497610697891884e-05
-0.056367961810303416,-0.0020791077758123763,-6.600865564040881e-05
-0.05700905815565874,-0.002107452030803867,-6.705529559206287e-05
-0.05763957108848133,-0.002136114188114902,-6.811618714679257e-05
-0.05826014133161223,-0.0021650891162199254,-6.919148797287627e-05
-0.058871418275924105,-0.0021943720061218096,-7.02813532534617e-05
-0.05947404948664558,-0.002223958373062452,-7.138593584825777e-05
-0.06006867066106091,-0.0022538440530993787,-7.250538645479823e-05
-0.060655896115673305,-0.002284025194793562,-7.363985376677146e-05
-0.0612363098753973,-0.0023144982462913297,-7.478948462704268e-05
-0.06181045744044835,-0.0023452599381202912,-7.59544241731456e-05
-0.06237883831150308,-0.002376307262058279,-7.713481597319023e-05
-0.0629418993523202,-0.002407637446474235,-7.833080215032335e-05
-0.06350002905750322,-0.0024392479285766907,-7.954252349408608e-05
-0.06405355277767812,-0.002471136324035486,-8.077011955723912e-05
-0.06460272894349142,-0.0025033003944657786,-8.201372873686443e-05
-0.06514774631930643,-0.002535738013281478,-8.327348833880125e-05
-0.06568872229516745,-0.0025684471304350965,-8.45495346247304e-05
-0.06622570218874482,-0.0026014257365560745,-8.584200284147819e-05
-0.0667586594891203,-0.002634671826975541,-8.71510272323611e-05
-0.06728749694457119,-0.0026681833660839637,-8.847674103062597e-05
-0.06781204838036055,-0.0027019582524151968,-8.981927643525075e-05
-0.06833208112451145,-0.0027359942847914147,-9.11787645695524e-05
-0.06884729891618813,-0.0027702891298015896,-9.255533542320066e-05
-0.06935734517781524,-0.0028048402908250904,-9.394911777835733e-05
-0.06986180655532488,-0.0028396450787583753,-9.53602391207532e-05
-0.07036021666453453,-0.00287470058456334,-9.678882553658363e-05
-0.07085206000773484,-0.0029100036537314075,-9.823500159615731e-05
-0.0713367760337712,-0.002945550862741784,-9.969889022527561e-05
-0.07181376331585108,-0.0029813384975791897,-0.00010118061256535585
-0.07228238382725709,-0.0030173625343649668,-0.00010268028782334189
-0.07274196730864484,-0.0030536186221489423,-0.00010419803311247036
-0.0731918157328012,-0.003090102067909304,-0.00010573396328498493
-0.07363120787309602,-0.0031268078238107784,-0.00010728819075791495
-0.074059403966071,-0.00316373047677057,-0.00010886082533306029
-0.07447565043110037,-0.0032008642403698628,-0.00011045197401234539
-0.07487918458282139,-0.003238202949123343,-0.00011206174080971869
-0.07526923925955972,-0.0032757400550839384,-0.0001136902265607705
-0.07564504729871398,-0.003313468626723507,-0.00011533752873122236
-0.07600584580692074,-0.0033513813499999154,-0.00011700374122540322
-0.0763508801799438,-0.0033894705314966318,-0.00011868895419577735
-0.07667940781732105,-0.003427728103495948,-0.00012039325385452549
-0.07699070146284104,-0.0034661456308159888,-0.00012211672228810348
-0.0772840521016572,-0.0035047143192071134,-0.00012385943727560926
-0.07755877136317106,-0.0035434250250733204,-0.00012562147211167936
-0.07781419340736706,-0.003582268266265955,-0.00012740289543451417
-0.07804967630087349,-0.003621234233693015,-0.00012920377105950391
-0.07826460291099387,-0.0036603128034959818,-0.00013102415781880117
-0.07845838135480947,-0.0036994935495624328,-0.00013286410940706577
-0.07863044503036969,-0.0037387657561587274,-0.00013472367423349605
-0.07878025223079746,-0.0037781184304740193,-0.00013660289528015423
-0.07890728531569847,-0.003817540314860643,-0.0001385018099664879
-0.07901104940294797,-0.003857019898540305,-0.00014042045001983814
-0.0790910705456659,-0.0038965454285274583,-0.0001423588413516051
-0.07914689336444662,-0.003936104919504986,-0.0001443170039386132
-0.07917807811670069,-0.003975686162375273,-0.00014629495170908325
-0.07918419721318062,-0.004015276731207744,-0.000148292692432479
-0.07916483123095094,-0.004054863988318776,-0.00015031022761236064
-0.0791195645058179,-0.004094435087252968,-0.00015234755238125358
-0.0790479804094781,-0.004133976973481793,-0.00015440465539643728
-0.0789496564346041,-0.004173476382692813,-0.00015648151873548093
-0.0788241592277836,-0.00421291983660841,-0.00015857811779030625
-0.07867103971832469,-0.004252293636344937,-0.00016069442115854458
-0.07848982848464556,-0.0042915838533956795,-0.00016283039053097974
-0.07828003148491551,-0.00433077631838807,-0.0001649859805739257
-0.07804112626826305,-0.004369856607826365,-0.0001671611388054793
-0.07777255878671058,-0.004408810029090108,-0.0001693558054647084
-0.07747374094274835,-0.004447621604022472,-0.00017156991337298656
-0.07714404901864598,-0.004486276051512821,-0.0001738033877868704
-0.07678282312617589,-0.004524757769549026,-0.00017605614624213584
-0.07638936778379686,-0.004563050817276519,-0.00017832809838884222
-0.0759629536804281,-0.004601138897642575,-0.000180619145817572
-0.07550282063691144,-0.00463900534122191,-0.0001829291818772881
-0.07500818174212097,-0.004676633091816668,-0.00018525809148554776
-0.0744782286241803,-0.0047140046944082435,-0.000187605750932104
-0.07391213781104078,-0.004751102286017049,-0.00018997202767721033
-0.07330907812957958,-0.0047879075900022034,-0.00019235678014621513
-0.07266821908695141,-0.004824401914306336,-0.00019475985752229227
-0.0719887401761893,-0.0048605661541221215,-0.00019718109953939937
-0.07126984104807074,-0.0048963807994281865,-0.00019962033627778694
-0.07051075248262134,-0.004931825947810859,-0.0002020773879645967
-0.06971074807032876,-0.0049668813229490965,-0.00020455206478228667
-0.06886915648238023,-0.005001526299087274,-0.00020704416668779576
-0.06798537418104154,-0.0050357399317531295,-0.00020955348324550586
-0.06705887839633956,-0.0050695009948974745,-0.00021207979347716852
-0.0660892401707212,-0.00510278802453924,-0.00021462286573202768
-0.06507613725430093,-0.005135579368895495,-0.00021718245758038638
-0.06401936662621462,-0.005167853244865624,-0.00021975831573382666
-0.06291885642180918,-0.0051995878006276305,-0.00022235017599519998
-0.06177467705600594,-0.0052307611839970845,-0.00022495776324135615
-0.06058705134587017,-0.005261351616097553,-0.0002275807914413798
-0.059356363444056835,-0.005291337469795035,-0.00023021896371285295
-0.05808316639756343,-0.005320697352255439,-0.00023287197241836556
-0.05676818815511831,-0.00534941019089361,-0.00023553949930415282
-0.05541233587654662,-0.005377455321901526,-0.0002382212156823516
-0.05401669844748498,-0.005404812580482534,-0.00024091678265794763
-0.05258254715693663,-0.005431462391883639,-0.00024362585140103916
-0.05111133453846306,-0.005457385862307489,-0.00024634806346458696
-0.049604691403602325,-0.005482564868793005,-0.0002490830511473621
-0.04806442211274579,-0.005506982147172092,-0.0002518304379013534
-0.04649249814175171,-0.005530621377235716,-0.00025458983878245533
-0.04489105001392859,-0.005553467264274636,-0.0002573608609428329
-0.043262357674058075,-0.005575505616196633,-0.00026014310416295073
-0.04160883938669726,-0.0055967234154618226,-0.00026293616142086535
-0.03993303925528373,-0.0056171088851223175,-0.00026573961949601137
-0.038237613486213164,-0.005636651548307691,-0.0002685530596043689
-0.03652531555468185,-0.005655342280567915,-0.0002713760580615878
-0.03479898045593131,-0.005673173354570568,-0.0002742081869703724
-0.033061508243723836,-0.0056901384767454825,-0.00027704901492820144
-0.03131584706890819,-0.00570623281557364,-0.0002798981077512812
-0.029564975933292548,-0.00572145302132419,-0.00028275502921050564
-0.027811887365286714,-0.005735797237148835,-0.0002856193417751239
-0.02605957020435603,-0.005749265101541246,-0.00028849060735979643
-0.024310992659015304,-0.005761857742257089,-0.000291368388070746
-0.022569085791783447,-0.005773577761869788,-0.00029425224694677775
-0.020836727591072034,-0.0057844292152155015,-0.00029714174869104905
-0.019116727803145335,-0.005794417579064056,-0.00030003646038961895
-0.0174118136993678,-0.005803549714439684,-0.00030293595221299487
-0.015724616941334712,-0.00581183382209986,-0.00030583979809712975
-0.014057661687605031,-0.005819279391757095,-0.000308747576400594
-0.012413354064191279,-0.005825897145695044,-0.00031165887053495703
-0.010793973092602828,-0.005831698977484243,-0.00031457326956575184
-0.00920166313206458,-0.00583669788654041,-0.000317490368781758
-0.007638427851167004,-0.005840907909286218,-0.0003204097702307146
-0.00610612570409115,-0.005844344047675032,-0.0003233310832199549
-0.0046064668495053055,-0.005847022195813431,-0.00032625392478082704
-0.0031410114156887564,-0.005848959065379729,-0.0003291779200961253
-0.0017111689845720084,-0.005850172110479794,-0.0003321027028900902
-0.0003181991429271728,-0.005850679452511669,-0.00033502791578083805
0.0010367870669554745,-0.005850499805530662,-0.0003379532105953486
0.0023528249702678564,-0.005849652402521356,-0.0003408782486473616
0.003629093524661566,-0.005848156922897624,-0.00034380270097871636
0.004864912184043676,-0.0058460334214704476,-0.0003467262485648084
0.006059737507482505,-0.005843302259047566,-0.00034964858248493787
0.007213159654322255,-0.005839984034757115,-0.000352569404058389
0.008324898902102293,-0.0058360995201180085,-0.0003554884249471078
0.00939480230985762,-0.005831669594815019,-0.0003584053672258411
0.01042284062081023,-0.0058267151840823515,-0.00036131996342056547
0.011409105459480052,-0.005821257197562279,-0.00036423195651597663
0.012353806836808279,-0.005815316469488207,-0.00036714109993273925
0.013257270937957116,-0.005808913700044516,-0.00037004715747512244
0.014119938129329304,-0.0058020693977776944,-0.00037294990324957797
0.01494236108040687,-0.00579480382297526,-0.0003758491215547662
0.015725202855911637,-0.00578713693199118,-0.0003787446067435078
0.016469234803384677,-0.005779088322576356,-0.0003816361630571497
0.017175334044276024,-0.005770677180364441,-0.0003845236044328849
0.017844480371254644,-0.005761922226760558,-0.0003874067542846661
0.01847775236256344,-0.005752841668577104,-0.0003902854452585005
0.01907632255232359,-0.005743453149848383,-0.0003931595189631069
0.01964145154606915,-0.005733773706323784,-0.00039602882567714995
0.020174481036044776,-0.005723819723178256,-0.00039889322403452546
0.020676825736842954,-0.005713606896485034,-0.00040175258068944126
0.021149964316310634,-0.005703150198971746,-0.00040460676996330547
0.021595429433139423,-0.005692463850534383,-0.000407455673475682
0.022014797009561316,-0.005681561293923708,-0.0004102991797617965
0.022409674866889252,-0.005670455175954596,-0.0004131371838792661
0.022781690841025465,-0.005659157334527617,-0.00041596958700688665
0.023132480485982064,-0.005647678791695865,-0.00041879629603844255
0.023463674473882423,-0.005636029752955899,-0.0004216172231746055
0.023776885810291654,-0.0056242196128848555,-0.0004244322855160657
