frame_number,force
0,500.44628900039703
1,500.47934492823623
2,500.5119780716016
3,500.54378195927274
4,500.57438193308656
5,500.60344894827824
6,500.6307107525357
7,500.6559596943017
8,500.67905684435004
9,500.69993262066913
10,500.7185844198116
11,500.73507180590246
12,500.7495097393931
13,500.76206029977726
14,500.77292338776806
15,500.78232691109633
16,500.7905169215647
17,500.7977480921825
18,500.80427481711564
19,500.8103430809173
20,500.816183101579
21,500.8220026807318
22,500.82798124205937
23,500.8342646306125
24,500.84096076958997
25,500.8481362552666
26,500.8558140247866
27,500.8639723359397
28,500.8725453264714
29,500.88142534136557
30,500.89046711609586
31,500.8994938331993
32,500.90830497880296
33,500.9166857494746
34,500.92441751764767
35,500.9312886754584
36,500.9371051736906
37,500.941700249557
38,500.94494300845224
39,500.94674551697653
40,500.9470679303151
41,500.9459211248753
42,500.9433664601455
43,500.9395126027048
44,500.9345096877026
45,500.9285413834731
46,500.92181564056864
47,500.91455503615623
48,500.90698761556246
49,500.8993389394837
50,500.8918257348012
51,500.8846512688634
52,500.878002402169
53,500.8720481917314
54,500.86693987193155
55,500.8628120108783
56,500.8597845956278
57,500.8579657183494
58,500.8574544498747
59,500.8583434436663
60,500.8607208376378
61,500.86467113343645
62,500.8702749278506
63,500.87760758893273
64,500.8867371373895
65,500.89772167691916
66,500.9106067059382
67,500.9254225335312
68,500.9421818441154
69,500.96087729006837
70,500.9814789130249
71,501.0039312051813
72,501.0281496920795
73,501.0540170478122
74,501.08137894660797
75,501.1100400676147
76,501.1397608204902
77,501.1702553836236
78,501.201191540931
79,501.2321926198519
80,501.26284163562946
81,501.29268756652635
82,501.32125351450185
83,501.3480463371573
84,501.3725672046153
85,501.39432250425284
86,501.41283459969924
87,501.4276520747632
88,501.4383591749194
89,501.4445841744897
90,501.44600636439316
91,501.4423613295594
92,501.4334442646643
93,501.41911129503364
94,501.3992790073185
95,501.37392250748593
96,501.3430723246358
97,501.30681049408514
98,501.26526623079496
99,501.21861167103555
100,501.16705814223906
101,501.1108533215574
102,501.05027950197706
103,500.98565301887254
104,500.9173247073522
105,500.8456811000407
106,500.7711459786015
107,500.6941818374793
108,500.6152907429952
109,500.5350139891797
110,500.4539299636991
111,500.37264979116065
112,500.2918105443092
113,500.2120660079951
114,500.13407512057506
115,500.0584883432325
116,499.98593237113033
117,499.91699382447354
118,499.85220281177754
119,499.7920174318613
120,499.73681024289516
121,499.6868574753387
122,499.6423314555846
123,499.6032964694516
124,499.56970812744794
125,499.54141614620744
126,499.5181703179054
127,499.4996293122962
128,499.48537186190634
129,499.4749098311286
130,499.4677026335145
131,499.4631723953969
132,499.46071919761226
133,499.45973573867576
134,499.4596208765019
135,499.4597916739341
136,499.4596937376073
137,499.45880978379256
138,499.45666650844703
139,499.4528399681641
140,499.44695972051915
141,499.43871189059627
142,499.42784121572873
143,499.4141520985457
144,499.3975087720098
145,499.37783474208175
146,499.35511164921667
147,499.3293775907433
148,499.3007248272373
149,499.26929672309313
150,499.23528377691446
151,499.19891863193936
152,499.16046995534214
153,499.12023507163707
154,499.0785313278953
155,499.0356863793868
156,498.992027823077
157,498.94787276861274
158,498.90351799626484
159,498.8592313518941
160,498.81524499880896
161,498.7717510435418
162,498.728899823314
163,498.6868008377653
164,498.64552606871155
165,498.60511533395083
166,498.5655832952859
167,498.52692768135097
168,498.48913817275366
169,498.45220529970885
170,498.41612870499495
171,498.38092426206185
172,498.3466297736083
173,498.3133092141651
174,498.2810556067683
175,498.2499925940511
176,498.22027466643596
177,498.19208599553195
178,498.1656379452221
179,498.14116549503086
180,498.11892286712913
181,498.0991785609367
182,498.0822098345761
183,498.06829650993876
184,498.0577138713428
185,498.05072442734337
186,498.04756845682454
187,498.048453540984
188,498.0535435648687
189,498.062947832962
190,498.076710997522
191,498.09480452204195
192,498.1171203686451
193,498.1434674292121
194,498.1735709563397
195,498.2070750223785
196,498.24354788925666
197,498.28249005068324
198,498.3233445864041
199,498.3655094029554
200,498.40835097262215
201,498.4512192767548
202,498.4934637038145
203,498.53444957093467
204,498.5735747573598
205,498.61028577386776
206,498.6440925653377
207,498.6745814990742
208,498.7014262679119
209,498.72439670728807
210,498.7433656791172
211,498.75831418528486
212,498.7693347995007
213,498.77663342365963
214,498.7805292974908
215,498.78145308795956
216,498.7799427753764
217,498.7766370213311
218,498.7722657991037
219,498.76763823480405
220,498.7636277687335
221,498.7611548978171
222,498.7611679238812
223,498.7646222716489
224,498.77245900165093
225,498.78558313374504
226,498.8048423544555
227,498.8310066401452
228,498.8647493365729
229,498.90663030629383
230,498.9570817920927
231,499.01639752618854
232,499.0847253478204
233,499.16206330097697
234,499.24825898527746
235,499.3430118617076
236,499.4458782330469
237,499.55627866474134
238,499.67350766677424
239,499.79674554004373
240,499.9250723765303
241,500.0574842077467
242,500.19291118208264
243,500.3302374829999
244,500.46832256175105
245,500.60602317126603
246,500.742215640276
247,500.87581782917783
248,501.00581028240487
249,501.13125623178126
250,501.2513202508458
251,501.3652854018673
252,501.4725686018154
253,501.57273375271456
254,501.66550207749776
255,501.75075910594785
256,501.8285578019969
257,501.89911738682315
258,501.96281752787417
259,502.0201877495439
260,502.0718921433514
261,502.1187096723504
262,502.1615105641015
263,502.201229474888
264,502.23883627741293
265,502.2753054544162
266,502.3115851546546
267,502.3485669727144
268,502.3870574488581
269,502.42775218065475
270,502.4712133528214
271,502.51785146019154
272,502.567911982562
273,502.62146768658005
274,502.67841703693307
275,502.73848892785117
276,502.80125365792884
277,502.86613980347965
278,502.9324563827167
279,502.9994194146312
280,503.0661816889806
281,503.13186434701777
282,503.1955887545922
283,503.2565071143325
284,503.313830326536
285,503.3668518203684
286,503.41496645610016
287,503.4576840867443
288,503.4946378527157
289,503.5255876669648
290,503.5504195825397
291,503.56914180846144
292,503.58187806902316
293,503.58885884894806
294,503.5904109259687
295,503.58694552798
296,503.5789454698263
297,503.56695169264395
298,503.5515497030057
299,503.5333564549484
300,503.51300822022614
301,503.4911499332451
302,503.46842633948376
303,503.44547501334006
304,503.42292100902256
305,503.4013726473771
306,503.3814177606392
307,503.3636196347298
308,503.3485119318798
309,503.33659206640306
310,503.32831283830797
311,503.32407254638343
312,503.32420418508906
313,503.3289645601302
314,503.33852421593895
315,503.35295902668355
316,503.37224420616747
317,503.3962512956928
318,503.4247483592539
319,503.45740324725284
320,503.49378954690195
321,503.53339479710246
322,503.5756306412488
323,503.6198446848014
324,503.66533382962183
325,503.71135880086956
326,503.75715953579595
327,503.80197109271074
328,503.8450397411753
329,503.885638877223
330,503.9230843588458
331,503.95674881656447
332,503.98607451403325
333,504.01058441131994
334,504.0298911717934
335,504.0437039187154
336,504.05183256841934
337,504.05418952396445
338,504.05078844370144
339,504.0417398146888
340,504.0272432441029
341,504.0075766975299
342,503.98308324969975
343,503.954156178056
344,503.9212233910333
345,503.8847322429656
346,503.8451357294036
347,503.8028808504637
348,503.7583996024647
349,503.7121027086081
350,503.6643759200654
351,503.6155785419399
352,503.56604376957046
353,503.5160804644919
354,503.46597612673366
355,503.4160009465702
356,503.36641285724687
357,503.3174634420306
358,503.2694044179249
359,503.22249426425986
360,503.1770044152712
361,503.13322435903785
362,503.0914650557209
363,503.05206028262234
364,503.01536571244526
365,502.9817556464401
366,502.9516173787259
367,502.9253432619637
368,502.9033207667718
369,502.8859211453852
370,502.8734875436556
371,502.8663233843177
372,502.86468158153474
373,502.8687548166885
374,502.8786669002885
375,502.89446525457765
376,502.91611471886415
377,502.94349307108405
378,502.97638879117403
379,503.01450165292493
380,503.0574466888686
381,503.10476185573685
382,503.15591934322697
383,503.2103400553461
384,503.2674105012566
385,503.3265012118006
386,503.38698582114984
387,503.4482600575552
388,503.5097599903588
389,503.57097891785224
390,503.6314822437747
391,503.69091963294034
392,503.7490337646879
393,503.8056652155366
394,503.8607533732697
395,503.9143336359967
396,503.96653131381123
397,504.01755262096833
398,504.0676730375744
399,504.11722325896557
400,504.16657303325456
401,504.21611343718723
402,504.2662384626568
403,504.31732700549566
404,504.36972635545806
405,504.42373813626915
406,504.47960744993486
407,504.5375157414604
408,504.5975775453824
409,504.6598408381331
410,504.7242903568382
411,504.7908530652046
412,504.8594049335842
413,504.9297782797504
414,505.0017690230022
415,505.0751433142182
416,505.1496431738541
417,505.2249910658236
418,505.30089368906204
419,505.37704547519144
420,505.4531322201546
421,505.52883508083437
422,505.60383507620526
423,505.6778183178758
424,505.75048228895906
425,505.8215433980793
426,505.8907457441656
427,505.957870673799
428,506.02274642184756
429,506.0852569471261
430,506.1453490157479
431,506.20303665907204
432,506.2584023724013
433,506.3115948186433
434,506.3628232478606
435,506.4123491801032
436,506.46047604936405
437,506.5075375056207
438,506.55388498135426
439,506.5998749910203
440,506.64585648541697
441,506.6921584657964
442,506.7390780039113
443,506.7868688302838
444,506.835730734238
445,506.88580013085067
446,506.937142245734
447,506.9897453967755
448,507.04351778496664
449,507.09828707161677
450,507.1538028709576
451,507.2097421709413
452,507.2657176382288
453,507.32128873789674
454,507.3759755161214
455,507.429274711549
456,507.48067764963247
457,507.529689221571
458,507.5758471432262
459,507.61874057167137
460,507.6580270508017
461,507.69344675449514
462,507.724833144452
463,507.7521194322508
464,507.7753405814245
465,507.794630961773
466,507.81021811341355
467,507.82241330467536
468,507.83159961964
469,507.83821822210695
470,507.84275329722794
471,507.84571602065296
472,507.8476277694809
473,507.8490027129658
474,507.8503299546018
475,507.8520555597398
476,507.85456507024213
477,507.8581673925955
478,507.8630810986292
479,507.8694240841261
480,507.8772072288187
481,507.88633234967443
482,507.89659445310804
483,507.90768807292795
484,507.9192173041611
485,507.93070902311507
486,507.94162873283176
487,507.95139844711804
488,507.95941596397296
489,507.96507478456357
490,507.9677838826426
491,507.96698656314254
492,507.9621777035532
493,507.9529186705083
494,507.9388491938374
495,507.91969560301084
496,507.8952751669132
497,507.86549676397317
498,507.8303585750512
499,507.7899437525997
500,507.74441500135464
501,507.6940087912039
502,507.6390296535798
503,507.5798447633598
504,507.51687878247486
505,507.45060874045475
506,507.3815585672113
507,507.3102927859229
508,507.23740884923416
509,507.16352772112697
510,507.0892825803609
511,507.0153058480027
512,506.9422149883422
513,506.87059765437306
514,506.8009967940873
515,506.733896355752
516,506.6697082396279
517,506.60876113202914
518,506.5512918092387
519,506.497439388158
520,506.4472428376063
521,506.4006418917665
522,506.35748132215275
523,506.3175183003179
524,506.2804323714787
525,506.24583744733036
526,506.2132952218293
527,506.1823294512543
528,506.15244056662146
529,506.1231200993335
530,506.09386443523397
531,506.0641874938033
532,506.0336320196292
533,506.0017792038822
534,505.9682563254468
535,505.93274210910363
536,505.8949696433432
537,505.8547269908938
538,505.8118559648881
539,505.76624982034224
540,505.7178507509985
541,505.66664803047615
542,505.6126773851407
543,505.5560218343446
544,505.4968139165673
545,505.4352389480136
546,505.371538639901
547,505.3060140417316
548,505.2390265715544
549,505.1709960231042
550,505.10239487600523
551,505.03373877426907
552,504.96557348088265
553,504.89845889159875
554,504.83295085161967
555,504.7695816427708
556,504.7088401070431
557,504.65115241504293
558,504.5968644815551
559,504.5462269970876
560,504.4993839585401
561,504.4563653962362
562,504.41708470772056
563,504.38134067450216
564,504.3488239104406
565,504.31912719869945
566,504.2917589449012
567,504.2661588344493
568,504.2417147395366
569,504.21777996690304
570,504.1936900605909
571,504.16877856832457
572,504.1423914297234
573,504.1138999091916
574,504.0827122225293
575,504.04828414517897
576,504.01012891014324
577,503.9678266103755
578,503.92103315403165
579,503.8694886336315
580,503.813024824502
581,503.75157147966786
582,503.6851611290246
583,503.61393213986526
584,503.538129778493
585,503.4581049317191
586,503.3743100975616
587,503.28729236259284
588,503.1976833754313
589,503.10618666320954
590,503.0135628448333
591,502.9206133372412
592,502.8281631290808
593,502.7370431848479
594,502.6480730131781
595,502.56204384594145
596,502.4797027763604
597,502.401738180533
598,502.32876680327666
599,502.26132292839054
600,502.1998499773149
601,502.14469468246153
602,502.0961037402796
603,502.05422267006975
604,502.0190965581456
605,501.9906724395535
606,501.96880317901093
607,501.95325277855005
608,501.9437030373359
609,501.93976145361364
610,501.9409702274643
611,501.94681618465154
612,501.9567413809607
613,501.97015411328437
614,501.9864401114867
615,502.00497376919316
616,502.0251293135223
617,502.0462918205266
618,502.06786799469353
619,502.0892966080804
620,502.1100583773523
621,502.1296848869203
622,502.1477660639938
623,502.1639557559165
624,502.1779751248119
625,502.18961376170944
626,502.1987285605389
627,502.20524049472874
628,502.209129553572
629,502.2104282268612
630,502.2092140345799
631,502.2056016426041
632,502.19973507429427
633,502.1917804668588
634,502.1819198066798
635,502.17034610278773
636,502.1572603939861
637,502.1428707315039
638,502.1273929000792
639,502.11105230846897
640,502.0940863166214
641,502.0767462666402
642,502.05929859012025
643,502.0420245537947
644,502.0252184560405
645,502.0091843106601
646,501.994231167598
647,501.9806672444639
648,501.9687930723261
649,501.95889394358585
650,501.951232034875
651,501.9460385733061
652,501.9435063193186
653,501.94378255085104
654,501.94696270535115
655,501.95308481990736
656,501.9621248667906
657,501.9739930458939
658,501.98853109527107
659,502.0055106931755
660,502.0246330366037
661,502.04552971803975
662,502.06776507815033
663,502.0908402106168
664,502.114198680278
665,502.13723385754656
666,502.1592977054292
667,502.1797109096614
668,502.19777429425164
669,502.21278138652025
670,502.22403181684876
671,502.2308451166828
672,502.23257451872126
673,502.2286205111252
674,502.21844400684176
675,502.2015789613805
676,502.1776441499137
677,502.1463537325809
678,502.1075262619834
679,502.0610918627955
680,502.007097373112
681,501.9457092622026
682,501.87721411600336
683,501.80201641364704
684,501.72063327284826
685,501.63368589568665
686,501.54188759781215
687,501.4460284914975
688,501.3469570755298
689,501.2455591682717
690,501.1427348237008
691,501.0393740914812
692,500.9363326640468
693,500.83440849674736
694,500.73432036029175
695,500.63668909679996
696,500.5420222246403
697,500.4507024550978
698,500.36298054172056
699,500.2789726504174
700,500.1986621833223
701,500.1219057686218
702,500.04844293731566
703,499.97790886558283
704,499.90984954448965
705,499.843738854542
706,499.7789971456658
707,499.71501093603655
708,499.65115325883886
709,499.58680409089885
710,499.52137024942436
711,499.45430414833805
712,499.3851208391975
713,499.31341280664606
714,499.23886206759454
715,499.1612492682025
716,499.0804596541959
717,498.99648593205785
718,498.9094280997071
719,498.81949032553564
720,498.7269749541594
721,498.6322737852871
722,498.53585691511626
723,498.4382595546991
724,498.3400672573876
725,498.2418999304528
726,498.14439498741325
727,498.04819006845514
728,497.9539058441923
729,497.8621294118273
730,497.7733986710604
731,497.6881879233551
732,497.60689488354166
733,497.5298293549207
734,497.45720393613385
735,497.38912721830746
736,497.3255999476906
737,497.26651455961445
738,497.21165833952097
739,497.160720257274
740,497.113301284532
741,497.0689277719026
742,497.02706725733333
743,496.9871459283722
744,496.94856689045747
745,496.91072838639786
746,496.873041131656
747,496.83494397125855
748,496.7959171659664
749,496.75549281238517
750,496.71326217571976
751,496.6688799894869
752,496.6220659802429
753,496.5726040065546
754,496.5203393133954
755,496.46517451902514
756,496.40706503765296
757,496.3460146486466
758,496.28207182615876
759,496.2153272568208
760,496.1459127336873
761,496.0740013336452
762,495.99980847546107
763,495.9235932146105
764,495.84565909526106
765,495.7663540539445
766,495.6860691166749
767,495.60523584550066
768,495.52432266866583
769,495.4438303797498
770,495.3642871680686
771,495.28624347793135
772,495.21026677786756
773,495.13693603446075
774,495.0668354587651
775,495.0005470210386
776,494.938641322435
777,494.88166662424885
778,494.8301361222783
779,494.7845138780113
780,494.74520011621547
781,494.7125167984364
782,494.68669444537005
783,494.66786111151293
784,494.6560342573509
785,494.6511160911194
786,494.65289281212046
787,494.66103806115945
788,494.6751207144199
789,494.69461690430353
790,494.71892581697074
791,494.7473884761223
792,494.7793085042715
793,494.81397382618076
794,494.85067838992666
795,494.88874314442114
796,494.9275357154562
797,494.9664884702102
798,495.0051148745495
799,495.04302412160797
800,495.07993394201765
801,495.1156813842948
802,495.15023123587605
803,495.18368165124724
804,495.2162664975934
805,495.2483539850828
806,495.2804413549161
807,495.31314571600427
808,495.347191436548
809,495.38339469318595
810,495.42264584950834
811,495.4658903640067
812,495.5141089413137
813,495.5682975528507
814,495.62944771960326
815,495.6985271983916
816,495.7764611382368
817,495.86411393358475
818,495.9622722679743
819,496.0716300273142
820,496.1927757573377
821,496.32618314707594
822,496.4722047113984
823,496.6310685248062
824,496.80287761616665
825,496.98761149342823
826,497.18512920111345
827,497.395173316281
828,497.61737438539325
829,497.85125547683396
830,498.0962366951679
831,498.35163962477
832,498.6166917617354
833,498.89053108672965
834,499.17221103470183
835,499.46070620985137
836,499.75491923877144
837,500.05368914515344
838,500.35580160189187
839,500.6600013783675
840,500.96500720984994
841,501.26952915145716
842,501.57228827454253
843,501.872038358019
844,502.16758902367565
845,502.45782954983633
846,502.7417523910686
847,503.01847529139366
848,503.28726084479257
849,503.54753240867456
850,503.79888538235735
851,504.04109304659937
852,504.27410645694346
853,504.49804826893245
854,504.7132007761248
855,504.9199887954517
856,505.11895829675086
857,505.31075181608674
858,505.49608169869384
859,505.67570212527573
860,505.85038080395185
861,506.0208712688755
862,506.18788688726187
863,506.35207777118177
864,506.51401164913864
865,506.6741593555652
866,506.83288510208354
867,506.9904413040578
868,507.14696753886153
869,507.3024931619611
870,507.4569431055934
871,507.61014637967116
872,507.76184680776225
873,507.9117155807459
874,508.0593652426276
875,508.2043646763405
876,508.3462545405458
877,508.48456246692564
878,508.6188172120037
879,508.7485609376807
880,508.87335893152925
881,508.992806370625
882,509.10653211112
883,509.2141998386693
884,509.31550713067196
885,509.41018300942545
886,509.49798445924705
887,509.5786922617749
888,509.6521064750044
889,509.7180419651467
890,509.7763245184041
891,509.8267880966369
892,509.8692737235185
893,509.90363035181355
894,509.9297179066383
895,509.9474125379786
896,509.956613977647
897,509.95725475922836
