acceleration,velocity,displacement
-0.0354563736839135,0.0,0.0
-0.034810736747249445,-1.7566777607790737e-05,-4.391694401947684e-09
-0.03417335749045961,-3.4812801167218e-05,-1.7486589095699868e-08
-0.03355217496869357,-5.174418428200629e-05,-3.912583545800594e-08
-0.032954506875479066,-6.837085474304945e-05,-6.915459521426987e-08
-0.0323867799992418,-8.470617646172967e-05,-1.0742385301546464e-07
-0.03185431187788008,-0.00010076644943101014,-1.5379200948864959e-07
-0.031361158289723384,-0.000116570316972911,-2.0812620108962988e-07
-0.03091003275232355,-0.00013213811473342273,-2.703033090162133e-07
-0.030502294317444185,-0.00014749119650086465,-3.4021063682478513e-07
-0.030137993834730592,-0.00016265126853890835,-4.177462530847284e-07
-0.029815967918325942,-0.00017763975897717248,-5.028190099637486e-07
-0.029533971200519687,-0.00019247724375688388,-5.953482606472626e-07
-0.02928883800076793,-0.00020718294605720578,-6.952633081007851e-07
-0.029076663927560458,-0.0002217743215392879,-8.025026249999086e-07
-0.02889299756601308,-0.00023626673691268127,-9.170128896129009e-07
-0.028733033117512553,-0.0002506732445835627,-1.038747884986962e-06
-0.028591796397019642,-0.00026500445196219575,-1.1676673091234014e-06
-0.028464318665765657,-0.00027926848072789206,-1.3037355422959233e-06
-0.02834579543862163,-0.00029347100925398886,-1.4469204147913935e-06
-0.028231730177476967,-0.0003076153906580135,-1.597192014769394e-06
-0.028118064172810712,-0.0003217028392455854,-1.7545215722452938e-06
-0.028001292983358222,-0.0003357326785346276,-1.918880451690347e-06
-0.027878568014081898,-0.0003497026437839877,-2.090239282270001e-06
-0.02774778134642665,-0.00036360923112411484,-2.2685672509970266e-06
-0.027607632245008104,-0.0003774480845219735,-2.4538315799085487e-06
-0.027457672709462793,-0.00039121441076059126,-2.6459972037291898e-06
-0.027298327401111783,-0.0004049034107882349,-2.8450266591163964e-06
-0.02713088271870765,-0.00041851071331818976,-3.0508801901430027e-06
-0.026957441342748245,-0.00043203279433355374,-3.2635160670559386e-06
-0.026780840529659896,-0.0004454673648016558,-3.482891106839741e-06
-0.026604533816905238,-0.0004588137083882971,-3.7089613751372292e-06
-0.02643243757202463,-0.00047207295123552956,-3.941683040043186e-06
-0.026268747261280707,-0.0004852482474438559,-4.181013339713033e-06
-0.026117733042608563,-0.0004983448675198282,-4.426911618453954e-06
-0.0259835279675274,-0.0005113701827723622,-4.679340381027002e-06
-0.025869922138130757,-0.0005243335452987767,-4.938266313044787e-06
-0.025780172707436627,-0.0005372460690101686,-5.2036612166220235e-06
-0.025716836263553238,-0.0005501203212529161,-5.475502814187795e-06
-0.025681630291200176,-0.0005629699378916044,-5.7537753789739245e-06
-0.02567533302550313,-0.0005758091787207802,-6.0384701581270205e-06
-0.02569773203223837,-0.0005886524449852156,-6.329585564053519e-06
-0.025747628859127222,-0.000601513785208057,-6.627127121601837e-06
-0.02582290106817747,-0.0006144064176898832,-6.931107172326323e-06
-0.025920616271635326,-0.0006273422970248364,-7.241544351005002e-06
-0.026037187123190485,-0.0006403317478735429,-7.5584628622295975e-06
-0.026168552004657404,-0.0006533831826555049,-7.881891594861859e-06
-0.026310363615873657,-0.0006665029115606377,-8.211863118415894e-06
-0.02645816785448255,-0.0006796950444282267,-8.54841260741311e-06
-0.026607559147068825,-0.0006929614761786146,-8.89157673756482e-06
-0.02675430445923407,-0.0007063019420801903,-9.241392592129521e-06
-0.026894433643517093,-0.0007197141266058781,-9.597896609301039e-06
-0.02702429700536678,-0.0007331938092680991,-9.961123593269533e-06
-0.02714059258174578,-0.0007467350316648772,-1.0331105803502778e-05
-0.027240366515108007,-0.0007603302714390906,-1.0707872129278769e-05
-0.02732099046776134,-0.000773970610684808,-1.1091447349809744e-05
-0.02738012089408731,-0.0007876458885252701,-1.1481851474612264e-05
-0.02741564657526804,-0.0008013448303926089,-1.1879099154341734e-05
-0.027425632494129583,-0.0008150551501599583,-1.2283199149479875e-05
-0.02740826897531785,-0.0008287636255273202,-1.2694153843401694e-05
-0.02736183453961699,-0.0008424561514060539,-1.3111958787635037e-05
-0.02728467873010622,-0.0008561177797234848,-1.3536602270417422e-05
-0.027175227358211932,-0.0008697327562455643,-1.3968064904409684e-05
-0.027032008361222066,-0.0008832845651754229,-1.440631923476493e-05
-0.026853693182237178,-0.0008967559905612877,-1.4851329373699109e-05
-0.026639146959935477,-0.0009101292005968308,-1.5303050671488638e-05
-0.026387481035003817,-0.0009233858575955656,-1.5761429436036736e-05
-0.026098103420902644,-0.0009365072537095423,-1.6226402713863013e-05
-0.025770766369988856,-0.0009494744711572652,-1.6697898145079714e-05
-0.025405613393477508,-0.0009622685660981318,-1.7175833904393564e-05
-0.025003229627780416,-0.0009748707768534462,-1.766011874013146e-05
-0.024564699232090217,-0.0009872627590684138,-1.8150652124111924e-05
-0.02409167213226818,-0.0009994268519095035,-1.8647324526856403e-05
-0.023586439897305654,-0.001011346379916897,-1.9150017834813004e-05
-0.023052016764726607,-0.001023005994082405,-1.965860592831283e-05
-0.022492217673779607,-0.0010343920526920316,-2.0172955440006438e-05
-0.02191172222006132,-0.0010454930376654918,-2.069292671259582e-05
-0.021316112972303368,-0.001056299996463583,-2.1218374971128087e-05
-0.020711878660029513,-0.0010668069943716662,-2.17491517188369e-05
-0.020106376321266863,-0.0010770115581169902,-2.2285106356959065e-05
-0.019507750357904818,-0.0010869150897867832,-2.2826088018935007e-05
-0.018924809970347265,-0.0010965232298688463,-2.3371947598848913e-05
-0.018366869765994134,-0.0011058461498029315,-2.3922539943766858e-05
-0.01784356163142073,-0.0011148987576522853,-2.4477726170630663e-05
-0.017364628539065334,-0.0011237008051949069,-2.503737606134246e-05
-0.016939711559748837,-0.0011322768902196105,-2.560137048519609e-05
-0.0165781397216696,-0.001140656353039965,-2.6169603796010985e-05
-0.01628872992956028,-0.0011488730704527724,-2.674198615188417e-05
-0.016079602556846217,-0.001156965153574374,-2.7318445707890956e-05
-0.015958018020755468,-0.0011649745587187744,-2.7898930635964243e-05
-0.01593024030000885,-0.0011729466232989654,-2.8483410931468678e-05
-0.016001433858198143,-0.0011809295418385172,-2.9071879972753048e-05
-0.01617559888199152,-0.0011889738000235646,-2.9664355808218567e-05
-0.016455545481698385,-0.0011971315861144872,-3.026088215475308e-05
-0.016842902857957507,-0.001205456198199401,-3.086152910083155e-05
-0.01733815723239253,-0.0012140014632219885,-3.1466393516186894e-05
-0.017940712321195804,-0.0012228211806103856,-3.2075599177144986e-05
-0.018648965838967625,-0.0012319686001504265,-3.268929662233519e-05
-0.019460394003840593,-0.0012414959401111285,-3.330766275740058e-05
-0.02037163470979704,-0.0012514539472895379,-3.3930900229250745e-05
-0.021378560382615236,-0.0012618914960626408,-3.455923659008879e-05
-0.0224763334779414,-0.00127285521952778,-3.5192923268986394e-05
-0.023659440346929458,-0.0012843891629839978,-3.5832234364614336e-05
-0.024921702436591163,-0.001296534448679878,-3.64774652675303e-05
-0.026256267357073426,-0.0013093289411282942,-3.7128931114982345e-05
-0.02765558548698924,-0.00132280690433931,-3.7786965076349246e-05
-0.029111379669623547,-0.001336998645628463,-3.845191646384119e-05
-0.030614616623618668,-0.0013519301447017737,-3.9124148661423754e-05
-0.03215549016342166,-0.0013676226713985338,-3.980403686544883e-05
-0.033723427921451755,-0.001384092400919752,-4.04919656335284e-05
-0.03530713303008273,-0.0014013500411576357,-4.118832624404775e-05
-0.03689466921510661,-0.001419400491718933,-4.189351387726689e-05
-0.03847359339227822,-0.0014382425573707793,-4.260792463953932e-05
-0.040031136062291514,-0.0014578687397344217,-4.333195246381562e-05
-0.04155442706932839,-0.0014782651305173266,-4.406598593137856e-05
-0.04303076183079109,-0.0014994114277423565,-4.4810405070943476e-05
-0.044447899953759015,-0.001521281093188494,-4.556557820117619e-05
-0.04579438377551676,-0.001543841664120813,-4.633185889050351e-05
-0.04705985940010278,-0.0015670552249147179,-4.710958311276239e-05
-0.04823537940000725,-0.0015908790346147454,-4.789906667764476e-05
-0.049313667098053474,-0.0016152662962392605,-4.870060301035826e-05
-0.050289327256556916,-0.0016401670448279132,-4.9514461345625053e-05
-0.05115899405608686,-0.001665529125156074,-5.034088538812105e-05
-0.05192141188829123,-0.0016912992266421686,-5.118009247607061e-05
-0.052577447753352886,-0.0017174239415525796,-5.20322732681193e-05
-0.053130036933946446,-0.0017438508127244044,-5.289759195668855e-05
-0.05358406640266973,-0.0017705293385585584,-5.377618699450929e-05
-0.053946202903690996,-0.0017974119058851486,-5.466817230562022e-05
-0.054224674487440394,-0.0018244546252329315,-5.557363893839974e-05
-0.05442901524957932,-0.0018516180476671864,-5.649265710662477e-05
-0.0545697837374288,-0.0018788677474139385,-5.742527855539505e-05
-0.05465826677935242,-0.0019061747600431337,-5.837153918225932e-05
-0.054706181788720006,-0.0019335158721851518,-5.933146184031639e-05
-0.054725390367843914,-0.001960873765224293,-6.030505924966875e-05
-0.054727633815787075,-0.0019882370212702008,-6.129233694629237e-05
-0.05472429785924738,-0.0020156000041889593,-6.229329620265716e-05
-0.05472621071746715,-0.002042962631333138,-6.330793686153768e-05
-0.05474347579712787,-0.0020703300529617864,-6.433626003261141e-05
-0.05478533750890997,-0.002097712256288296,-6.537827060992394e-05
-0.054860076168634635,-0.002125123609707682,-6.643397957642293e-05
-0.054974927129471704,-0.0021525823605322084,-6.75034060689829e-05
-0.055136020887601174,-0.0021801100975364766,-6.858657918350008e-05
-0.05534834314504013,-0.002207731188544637,-6.968353950502036e-05
-0.0556157142419086,-0.0022354722028913743,-7.079434035287936e-05
-0.05594078593295922,-0.002263361327935091,-7.191904873558597e-05
-0.056325052273275784,-0.00229142778748665,-7.305774601444141e-05
-0.05676887185512572,-0.0023197012685187506,-7.421052827844277e-05
-0.05727150057467276,-0.0023482113616262,-7.5377506435979e-05
-0.05783113643029654,-0.0023769870208774422,-7.655880603160491e-05
-0.05844497927827696,-0.0024060560498045855,-7.775456679927542e-05
-0.0591093083658536,-0.0024354446217156184,-7.896494196715547e-05
-0.05981957978585616,-0.0024651768437535457,-8.019009733352276e-05
-0.060570546024066224,-0.0024952743752060264,-8.143021013826265e-05
-0.06135639984101792,-0.0025257561116722974,-8.268546775998224e-05
-0.062170942923599606,-0.0025566379473634516,-8.395606627474117e-05
-0.06300777562252682,-0.0025879326269999834,-8.524220891833202e-05
-0.06386049942729444,-0.002619649695762439,-8.654410449902262e-05
-0.06472292066208168,-0.002651795550784783,-8.786196581065943e-05
-0.065589242717394,-0.002684373591629652,-8.919600809626303e-05
-0.06645423412061728,-0.002717384460839155,-9.054644760938024e-05
-0.06731336033839687,-0.0027508263594539085,-9.191350031445351e-05
-0.06816286921245336,-0.002784695416841621,-9.32973807585274e-05
-0.06899982440823066,-0.0028189860902467917,-9.46983011352995e-05
-0.0698220872166688,-0.0028536915681530166,-9.611647054989945e-05
-0.07062825171385949,-0.0028888041528856486,-9.75520944801591e-05
-0.07141754019235474,-0.0029243156008622023,-9.900537441859607e-05
-0.0721896662828988,-0.0029602174024810158,-0.00010047650766943187
-0.07294467434902448,-0.0029965009876389967,-0.00010196568726696188
-0.07368276594552974,-0.003033157847712635,-0.00010347310197579978
-0.07440412603297218,-0.0030701795707072607,-0.00010499893633040476
-0.07510876158848058,-0.003107557792612624,-0.00010654337067123473
-0.07579636257733112,-0.0031452840736540767,-0.0001081065811378014
-0.07646619065031447,-0.0031833497119609882,-0.00010968873958420517
-0.07711699627906311,-0.0032217455086933325,-0.00011129001338936874
-0.07774696256985549,-0.003260461498405562,-0.00011291056514114347
-0.07835367457760087,-0.003299486657692426,-0.00011455055218016796
-0.07893411484886899,-0.0033388086050490434,-0.00011621012599585332
-0.07948468620758141,-0.003378413305313156,-0.00011788943147344387
-0.08000126036757896,-0.0034182847919569464,-0.00011958860599776139
-0.0804792477901688,-0.0034584049189963833,-0.00012130777842549973
-0.08091368309594674,-0.0034987531517179124,-0.0001230470679431783
-0.08129932204722672,-0.003539306403003706,-0.00012480658283185871
-0.08163074933437157,-0.0035800389208491055,-0.00012658641916282192
-0.08190249957309491,-0.003620922233075972,-0.0001283866594513032
-0.08210919600541448,-0.0036619251569705996,-0.00013020737129881482
-0.0822457114051287,-0.0037030138838232353,-0.00013204860605901328
-0.08230735272827469,-0.003744152149856586,-0.00013391039756743324
-0.0822900655707788,-0.0037853015044313496,-0.0001357927609810052
-0.0821906489866548,-0.003826421683070708,-0.00013769569177788074
-0.08200696807858697,-0.0038674710873370186,-0.00013961916497048267
-0.08173815071413165,-0.003908407367035198,-0.00014156313458407572
-0.08138475425846198,-0.003949188093278347,-0.0001435275334491541
-0.08094888886997878,-0.003989771504060457,-0.00014551227334848882
-0.0804342872062892,-0.004030117298079524,-0.00014751724554902383
-0.07984631553852936,-0.004070187448765729,-0.00014954232173573515
-0.07919192572229675,-0.004109947009080936,-0.00015158735535019682
-0.07847955031610265,-0.004149364878090535,-0.0001536521833219897
-0.07771894550385391,-0.004188414502045525,-0.0001557366281670237
-0.07692098885910671,-0.004227074485636265,-0.00015784050041394416
-0.07609744026290434,-0.004265329092916767,-0.0001599636013085824
-0.07526067355919944,-0.0043031686213722935,-0.00016210572573715468
-0.07442338468717052,-0.004340589635933886,-0.0001642666653014812
-0.0735982811661059,-0.004377595052397205,-0.00016644621147356397
-0.0727977594019794,-0.004414194062539226,-0.00016864415875229808
-0.07203357980888232,-0.004450401897341942,-0.00017086030774226838
-0.0713165529466266,-0.004486239430530819,-0.00017309446807423656
-0.07065625040213043,-0.004521732631368008,-0.00017534646108971128
-0.07006075110595933,-0.004556911881745031,-0.00017761612221798954
-0.0695364283766732,-0.0045918111766156886,-0.00017990330298257973
-0.06908777770881029,-0.004626467228137059,-0.00018220787258376792
-0.06871728231943507,-0.00466091849314412,-0.0001845297190140882
-0.06842531327314834,-0.004695204142042266,-0.0001868687496728848
-0.06821006245231775,-0.004729362985973633,-0.0001892248914548888
-0.0680675082524379,-0.004763432378649821,-0.00019159809029604467
-0.06799141539366715,-0.004797447109561348,-0.00019398831016809745
-0.06797337223797456,-0.004831438306469258,-0.0001963955315221051
-0.06800287114023455,-0.004865432367313811,-0.00019881974919055086
-0.06806743798343252,-0.004899449944594727,-0.000201260969768528
-0.0681528151822429,-0.004933505007886146,-0.00020371920850664822
-0.06824319916567548,-0.004967604011473126,-0.00020619448576148804
-0.06832153020021653,-0.005001745193814599,-0.00020868682306280996
-0.06836982945867451,-0.005035918033729322,-0.00021119623886969594
-0.06836957503814556,-0.005070102884853527,-0.00021372274409934164
-0.06830210591377162,-0.005104270805091507,-0.0002162663375218279
-0.06814904161711992,-0.00513838359197423,-0.00021882700112109434
-0.0678927056137089,-0.005172394028781937,-0.00022140469552628337
-0.06751654118387454,-0.005206246340481333,-0.0002239993556185992
-0.06700550941592105,-0.005239876853131282,-0.00022661088641700235
-0.0663464587536449,-0.005273214845173673,-0.0002292391593415786
-0.06552845415547848,-0.005306183573400954,-0.00023188400894622225
-0.0645430532050132,-0.0053387014502410774,-0.00023454523020213276
-0.06338451882623865,-0.0053706833432488905,-0.00023722257640050525
-0.06204996347432027,-0.00540204196382403,-0.00023991575772727347
-0.06053942535337605,-0.005432689311030954,-0.0002426244405459872
-0.058855881094862644,-0.005462538137643014,-0.0002453482474081557
-0.05700520072272233,-0.00549150340809741,-0.0002480867577945908
-0.05499605037741561,-0.0055195037208724445,-0.0002508395095768333
-0.052839747374006575,-0.0055464626703103,-0.000253606001174629
-0.05055007109920537,-0.005572310124928603,-0.0002563856943734387
-0.04814303163203379,-0.005596983400611413,-0.0002591780177548237
-0.04563659629739961,-0.005620428307593771,-0.000261982370681875
-0.043050374260159355,-0.005642600050233161,-0.00026479812777133177
-0.04040526149152005,-0.005663463959171081,-0.00026762464377368285
-0.03772305173374951,-0.005682996037477398,-0.00027046125877284495
-0.035026021790061,-0.00570118330585835,-0.00027330730360867886
-0.032336501166372426,-0.0057180239365974585,-0.0002761621054192928
-0.02967643702082646,-0.005733527171144258,-0.0002790249931962282
-0.027066965329447776,-0.005747713021731826,-0.00028189530324444724
-0.024527997745369342,-0.00576061176250053,-0.00028477238444050534
-0.022077830900239848,-0.0057722632196619324,-0.000287655603186046
-0.019732782054423883,-0.005782715872900598,-0.0002905443479591866
-0.017506854187435777,-0.005792025781961063,-0.000293438033372902
-0.01541143587512217,-0.005800255354476702,-0.0002963361036570115
-0.013455044832123673,-0.005807471974653514,-0.000299238035489294
-0.01164312603556522,-0.005813746517370436,-0.00030214334011230003
-0.009977915278073003,-0.005819151777698846,-0.00030505156468606736
-0.00845837808644756,-0.005823760851039976,-0.0003079622928432521
-0.007080232708542815,-0.005827645503738724,-0.00031087514443194677
-0.005836063611230586,-0.005830874577818667,-0.0003137897744523361
-0.00471552830739808,-0.005833512475798324,-0.00031670587121574036
-0.0037056559914465403,-0.0058356177718730355,-0.0003196231537776582
-0.0027912322267344986,-0.005837241993927581,-0.00032254136871910833
-0.0019552600298736377,-0.0058384286169917326,-0.00032546028637183815
-0.001179484017978535,-0.005839212303003696,-0.000328379696601837
-0.00044496097325661185,-0.005839618414251504,-0.0003312994042811508
0.00026734236373375997,-0.005839662818903885,-0.0003342192245894396
0.0009759449061883378,-0.005839351997086404,-0.0003371389782934372
0.0016982609708144898,-0.005838683445617153,-0.00034005848715411307
0.002450043622725888,-0.005837646369468768,-0.0003429775696078846
0.003244879032764553,-0.0058362226388048956,-0.00034589603685995297
0.00409374759814224,-0.005834387982147169,-0.000348813689515191
0.005004666961797202,-0.005832113378507184,-0.0003517303148553546
0.00598243175012508,-0.0058293666038292035,-0.0003546456848509387
0.007028463216082644,-0.005826113880087652,-0.00035755955497191795
0.008140778207107824,-0.005822321569731855,-0.00036047166383437285
0.009314081579191195,-0.00581795785478528,-0.00036338173369050215
0.010539980553285224,-0.005812994339252161,-0.0003662894717390115
0.011807314279825416,-0.005807407515543883,-0.00036919457220271055
0.013102586741822473,-0.005801180040288472,-0.0003720967190916686
0.014410485493692015,-0.005794301772229593,-0.00037499558954479816
0.015714463118344534,-0.005786770535076584,-0.00037789085762162473
0.016997354051057595,-0.005778592580784233,-0.00038078219840058993
0.018241997113844947,-0.005769782742993008,-0.0003836692922315342
0.019431833422018527,-0.0057603642853590415,-0.0003865518289886222
0.020551450553434266,-0.005750368464365179,-0.00038942951217605325
0.021587048011221677,-0.005739833839724015,-0.00039230206275207553
0.0225268064157228,-0.005728805376117279,-0.00039516922255603584
0.02336115238571986,-0.005717333386416918,-0.0003980307572466694
0.02408292054683231,-0.00570547236818378,-0.0004008864586853196
0.02468742160193876,-0.005693279782646587,-0.0004037361467230272
0.025172429978626898,-0.005680814819751446,-0.0004065796703736267
0.025538106012640487,-0.005668137185753629,-0.00040941690837500294
0.025786866244011882,-0.005655305942689466,-0.00041224776915711373
0.02592321242052548,-0.005642378423023332,-0.0004150721902485419
0.025953527051681552,-0.0056294092381552795,-0.0004178901371638366
0.025885842098312527,-0.005616449395867781,-0.00042070160182234234
0.025729587732761093,-0.0056035455384100125,-0.0004235066005559118
