acceleration,velocity,displacement
-0.035456373680127704,0.0,0.0
-0.034810736743907986,-1.7566777606008922e-05,-4.391694401502231e-09
-0.03417335748763243,-3.481280116389403e-05,-1.748658909397797e-08
-0.03355217496642952,-5.174418427740952e-05,-3.912583545430386e-08
-0.03295450687380588,-6.837085473746837e-05,-6.915459520802332e-08
-0.03238677999816947,-8.47061764554622e-05,-1.0742385300625597e-07
-0.03185431187740637,-0.00010076644942435616,-1.5379200947621056e-07
-0.03136115828982941,-0.0001165703169661651,-2.0812620107384087e-07
-0.030910032752977098,-0.00013213811472686672,-2.703033089970988e-07
-0.030502294318605266,-0.0001474911964947623,-3.402106368025061e-07
-0.030137993836347007,-0.00016265126853350038,-4.177462530595718e-07
-0.029815967920336615,-0.00017763975897267128,-5.028190099361147e-07
-0.029533971202846884,-0.00019247724375346715,-5.953482606176493e-07
-0.02928883800332837,-0.00020718294605501095,-6.952633080697689e-07
-0.029076663930273083,-0.00022177432153841132,-8.025026249681244e-07
-0.02889299756880016,-0.00023626673691317962,-9.170128895810222e-07
-0.02873303312030191,-0.00025067324458545516,-1.038747884955681e-06
-0.028591796399745767,-0.00026500445196546706,-1.1676673090934116e-06
-0.028464318668371923,-0.0002792684807324965,-1.3037355422679024e-06
-0.028345795441066954,-0.00029347100925985624,-1.4469204147659905e-06
-0.028231730179736923,-0.00030761539066505723,-1.597192014747219e-06
-0.028118064174879748,-0.0003217028392537114,-1.754521572226911e-06
-0.02800129298523745,-0.00033573267854374066,-1.918880451676274e-06
-0.02787856801577798,-0.00034970264379399454,-2.0902392822607077e-06
-0.027747781347954022,-0.00036360923113492753,-2.2685672509929384e-06
-0.027607632246386758,-0.00037744808453351274,-2.4538315799100484e-06
-0.027457672710717154,-0.0003912144107727887,-2.6459972037366238e-06
-0.02729832740226739,-0.0004049034108010348,-2.84502665913008e-06
-0.027130882719786715,-0.0004185107133315483,-3.0508801901632256e-06
-0.02695744134377297,-0.00043203279434743825,-3.263516067082972e-06
-0.02678084053065249,-0.0004454673648160446,-3.4828911068738427e-06
-0.026604533817885686,-0.0004588137084031792,-3.7089613751786487e-06
-0.02643243757300625,-0.0004720729512509022,-3.941683040092169e-06
-0.026268747262272383,-0.00048524824745972185,-4.1810133397698255e-06
-0.026117733043609176,-0.0004983448675361923,-4.426911618518804e-06
-0.025983527968538055,-0.0005113701827892291,-4.679340381100159e-06
-0.025869922139155888,-0.0005243335453161526,-4.938266313126504e-06
-0.025780172708478447,-0.0005372460690280612,-5.203661216712558e-06
-0.025716836264612842,-0.0005501203212713339,-5.4755028142874065e-06
-0.025681630292274226,-0.0005629699379105557,-5.753775379082879e-06
-0.025675333026588285,-0.0005758091787402713,-6.038470158245586e-06
-0.02569773203333129,-0.0005886524450052512,-6.3295855641819665e-06
-0.025747628860225674,-0.0006015137852286405,-6.627127121740439e-06
-0.025822901069275893,-0.0006144064177110159,-6.931107172475353e-06
-0.02592061627273038,-0.0006273422970465175,-7.2415443511647366e-06
-0.026037187124285502,-0.0006403317478957715,-7.5584628624003085e-06
-0.02616855200576014,-0.000653383182678283,-7.881891595043822e-06
-0.026310363617000766,-0.0006665029115839733,-8.211863118609386e-06
-0.026458167855654014,-0.000679695044452137,-8.548412607618413e-06
-0.026607559148303518,-0.0006929614762031264,-8.891576737782228e-06
-0.026754304460550868,-0.00070630194210534,-9.241392592359345e-06
-0.02689443364493265,-0.0007197141266317109,-9.597896609543607e-06
-0.02702429700689331,-0.0007331938092946673,-9.961123593525202e-06
-0.02714059258338552,-0.000746735031692237,-1.0331105803771927e-05
-0.02724036651684874,-0.0007603302714672956,-1.070787212956181e-05
-0.02732099046957865,-0.0007739706107139024,-1.109144735010711e-05
-0.027380120895943452,-0.000787645888555283,-1.1481851474924406e-05
-0.02741564657711862,-0.0008013448304235485,-1.1879099154669114e-05
-0.027425632495929088,-0.0008150551501918103,-1.2283199149822954e-05
-0.02740826897702521,-0.0008287636255600489,-1.269415384376092e-05
-0.0273618345411978,-0.0008424561514396047,-1.3111958788010832e-05
-0.027284678731534954,-0.0008561177797577878,-1.353660227081018e-05
-0.02717522735947417,-0.0008697327562805402,-1.3968064904819762e-05
-0.02703200836231116,-0.0008832845652109865,-1.4406319235192643e-05
-0.026853693183158688,-0.000896755990597354,-1.4851329374144728e-05
-0.026639146960701635,-0.0009101292006333191,-1.5303050671952395e-05
-0.026387481035623515,-0.0009233858576324003,-1.5761429436518826e-05
-0.026098103421380338,-0.0009365072537466512,-1.622640271436359e-05
-0.02577076637032678,-0.000949474471194578,-1.6697898145598898e-05
-0.02540561339367901,-0.0009622685661355795,-1.7175833904931437e-05
-0.025003229627853278,-0.0009748707768909626,-1.7660118740688072e-05
-0.024564699232049996,-0.0009872627591059383,-1.8150652124687296e-05
-0.024091672132132657,-0.000999426851946984,-1.8647324527450526e-05
-0.02358643989709815,-0.0010113463799542918,-1.9150017835425846e-05
-0.02305201676447267,-0.0010230059941196844,-1.965860592894434e-05
-0.022492217673507005,-0.0010343920527291794,-2.0172955440656556e-05
-0.021911722219801148,-0.0010454930377025065,-2.0692926713264477e-05
-0.02131611297208672,-0.0010562999965004784,-2.1218374971815224e-05
-0.020711878659877482,-0.0010668069944084694,-2.1749151719542462e-05
-0.020106376321193883,-0.0010770115581537373,-2.2285106357683014e-05
-0.01950775035791644,-0.0010869150898235149,-2.2826088019677326e-05
-0.018924809970442373,-0.0010965232299056046,-2.3371947599609606e-05
-0.018366869766167165,-0.001105846149839757,-2.392253994454595e-05
-0.017843561631659458,-0.0011148987576892137,-2.4477726171428192e-05
-0.017364628539355314,-0.0011237008052319673,-2.5037376062158486e-05
-0.016939711560081165,-0.0011322768902568264,-2.5601370486030683e-05
-0.0165781397220387,-0.0011406563530773563,-2.616960379686423e-05
-0.016288729929962796,-0.0011488730704903567,-2.6741986152756155e-05
-0.016079602557278784,-0.001156965153612167,-2.7318445708781787e-05
-0.015958018021213615,-0.0011649745587567902,-2.7898930636874027e-05
-0.015930240300483664,-0.0011729466233372145,-2.8483410932397527e-05
-0.016001433858684033,-0.0011809295418770064,-2.907187997370108e-05
-0.01617559888248734,-0.0011889738000622992,-2.9664355809185906e-05
-0.016455545482209642,-0.0011971315861534736,-3.026088215573985e-05
-0.016842902858499705,-0.001205456198238651,-3.086152910183788e-05
-0.017338157232988944,-0.001214001463261523,-3.146639351721292e-05
-0.017940712321869716,-0.0012228211806502376,-3.207559917819086e-05
-0.018648965839735642,-0.001231968600190639,-3.268929662340108e-05
-0.01946039400471267,-0.001241495940151751,-3.330766275848667e-05
-0.020371634710775365,-0.001251453947330623,-3.393090023035727e-05
-0.021378560383695327,-0.0012618914961042408,-3.4559236591215985e-05
-0.022476333479105465,-0.001272855219569941,-3.519292327013453e-05
-0.02365944034814304,-0.0012843891630267533,-3.58322343657837e-05
-0.02492170243781205,-0.001296534448723242,-3.6477465268721204e-05
-0.026256267358260508,-0.0013093289411722601,-3.712893111619508e-05
-0.027655585488108078,-0.0013228069043838523,-3.7786965077584105e-05
-0.02911137967064747,-0.0013369986456735412,-3.845191646509845e-05
-0.030614616624535452,-0.0013519301447473368,-3.9124148662703675e-05
-0.032155490164236834,-0.00136762267144453,-3.980403686675164e-05
-0.03372342792218642,-0.0013840924009661357,-4.0491965634854306e-05
-0.03530713303076129,-0.0014013500412043726,-4.1188326245396935e-05
-0.03689466921575127,-0.0014194004917660007,-4.189351387863953e-05
-0.0384735933929023,-0.001438242557418164,-4.2607924640935575e-05
-0.04003113606290614,-0.0014578687397821162,-4.3331952465235645e-05
-0.041554427069949114,-0.00147826513056533,-4.4065985932822504e-05
-0.04303076183143458,-0.001499411427790676,-4.4810405072411506e-05
-0.04444789995444749,-0.0015212810932371465,-4.556557820266846e-05
-0.04579438377627358,-0.0015438416641698268,-4.63318588920202e-05
-0.047059859400951275,-0.001567055224964133,-4.7109583114303695e-05
-0.04823537940097522,-0.0015908790346646146,-4.789906667921088e-05
-0.04931366709916981,-0.001615266296289651,-4.870060301194945e-05
-0.05028932725784831,-0.0016401670448789056,-4.9514461347241585e-05
-0.05115899405757999,-0.0016655291252077626,-5.034088538976325e-05
-0.051921411890015014,-0.0016912992266946614,-5.1180092477738854e-05
-0.052577447755335106,-0.001717423941605999,-5.203227326981402e-05
-0.05313003693620936,-0.0017438508127788851,-5.289759195841024e-05
-0.05358406640523002,-0.001770529338614245,-5.377618699625852e-05
-0.05394620290656202,-0.001797411905942193,-5.466817230739763e-05
-0.05422467449062329,-0.0018244546252914895,-5.557363894020605e-05
-0.05442901525306746,-0.001851618047727412,-5.649265710846078e-05
-0.05456978374121777,-0.0018788677474759834,-5.742527855726163e-05
-0.05465826678343668,-0.001906174760107147,-5.837153918415741e-05
-0.05470618179309291,-0.0019335158722512795,-5.933146184224702e-05
-0.05472539037249659,-0.001960873765292677,-6.030505925163301e-05
-0.05472763382070288,-0.001988237021340977,-6.129233694829142e-05
-0.054724297864399675,-0.0020156000042622526,-6.229329620469222e-05
-0.05472621072282151,-0.002042962631409058,-6.330793686361006e-05
-0.0547434758026432,-0.002070330053040424,-6.433626003472242e-05
-0.05478533751453632,-0.002097712256369719,-6.537827061207495e-05
-0.054860076174319795,-0.002125123609791933,-6.643397957861537e-05
-0.054974927135156816,-0.0021525823606193023,-6.750340607121818e-05
-0.05513602089321961,-0.0021801100976263964,-6.85865791857796e-05
-0.05534834315052414,-0.0022077311886373324,-6.968353950734554e-05
-0.05561571424718824,-0.0022354722029867607,-7.079434035525156e-05
-0.05594078593797227,-0.002263361328033051,-7.191904873800652e-05
-0.056325052277965616,-0.0022914277875870355,-7.305774601691155e-05
-0.05676887185944012,-0.002319701268621387,-7.421052828096366e-05
-0.05727150057856286,-0.0023482113617308877,-7.537750643855173e-05
-0.057831136433719024,-0.002376987020983958,-7.655880603423044e-05
-0.05844497928119627,-0.002406056049912687,-7.77545668019546e-05
-0.05910930836823419,-0.0024354446218250447,-7.896494196988904e-05
-0.05981957978766361,-0.0024651768438640194,-8.019009733631131e-05
-0.060570546025268304,-0.0024952743753172526,-8.143021014110662e-05
-0.061356399841590206,-0.002525756111783967,-8.268546776288192e-05
-0.062170942923524306,-0.002556637947475246,-8.395606627769673e-05
-0.06300777562179506,-0.0025879326271115756,-8.524220892134344e-05
-0.06386049942591064,-0.002619649695873502,-8.654410450208971e-05
-0.06472292066005696,-0.002651795550894994,-8.786196581378183e-05
-0.06558924271474943,-0.0026843735917386957,-8.919600809944026e-05
-0.06645423411738285,-0.002717384460946729,-9.054644761261162e-05
-0.06731336033460811,-0.0027508263595597267,-9.191350031773823e-05
-0.06816286920815579,-0.0027846954169454177,-9.329738076186451e-05
-0.06899982440347648,-0.002818986090348326,-9.469830113868795e-05
-0.06982208721152239,-0.002853691568252076,-9.611647055333806e-05
-0.07062825170839192,-0.0028888041529820546,-9.755209448364659e-05
-0.0714175401866404,-0.0029243156009558127,-9.900537442213105e-05
-0.0721896662770143,-0.002960217402571726,-0.00010047650767301294
-0.07294467434304198,-0.0029965009877267403,-0.00010196568727058756
-0.07368276593952366,-0.0030331578477973816,-0.00010347310197946859
-0.07440412602702247,-0.003070179570789018,-0.00010499893633411518
-0.07510876158266716,-0.0031075577926914406,-0.0001065433706749853
-0.07579636257173061,-0.0031452840737300402,-0.00010810658114159066
-0.07646619064499127,-0.003183349712034221,-0.00010968873958803172
-0.07711699627406608,-0.003221745508763985,-0.00011129001339323128
-0.07774696256522572,-0.0032604614984738083,-0.00011291056514504072
-0.07835367457337278,-0.003299486657758458,-0.00011455055218409879
-0.07893411484507146,-0.003338808605113069,-0.00011621012599981667
-0.07948468620422668,-0.0033784133053753936,-0.00011788943147743879
-0.0800012603646648,-0.0034182847920176166,-0.00011958860600178703
-0.08047924778768079,-0.003458404919055703,-0.00012130777842955536
-0.0809136830938627,-0.003498753151776089,-0.0001230470679472633
-0.0812993220455167,-0.003539306403060934,-0.00012480658283597256
-0.08163074933300116,-0.0035800389209055634,-0.00012658641916696417
-0.08190249957202526,-0.00362092223313182,-0.00012838665945547352
-0.08210919600461233,-0.00366192515702598,-0.00013020737130301296
-0.08224571140456186,-0.0037030138838782733,-0.00013204860606323902
-0.08230735272791212,-0.0037441521499113916,-0.00013391039757168643
-0.08229006557058943,-0.003785301504486017,-0.00013579276098528578
-0.08219064898660537,-0.0038264216831253154,-0.0001376956917821886
-0.08200696807863975,-0.003867471087391627,-0.00013961916497481783
-0.08173815071424892,-0.003908407367089849,-0.0001415631345884382
-0.08138475425860268,-0.003949188093333062,-0.00014352753345354394
-0.08094888887009857,-0.003989771504115237,-0.000145512273352906
-0.08043428720634811,-0.0040301172981343485,-0.0001475172455534684
-0.07984631553849411,-0.004070187448820559,-0.00014954232174020713
-0.0791919257221374,-0.0041099470091357174,-0.0001515873553546962
-0.07847955031579813,-0.0041493648781452015,-0.00015365218332651643
-0.07771894550338648,-0.0041884145020999975,-0.00015573662817157773
-0.07692098885845972,-0.004227074485690459,-0.00015784050041852535
-0.07609744026206668,-0.00426532909297059,-0.00015996360131319062
-0.07526067355816335,-0.004303168621425648,-0.00016210572574178967
-0.07442338468592935,-0.004340589635986672,-0.00016426666530614274
-0.07359828116465297,-0.004377595052449317,-0.00016644621147825174
-0.0727977594003114,-0.004414194062590558,-0.0001686441587570117
-0.07203357980700476,-0.0044504018973923875,-0.00017086030774700746
-0.07131655294456056,-0.004486239430580278,-0.00017309446807900063
-0.0706562503999081,-0.004521732631416395,-0.0001753464610944998
-0.07006075110362507,-0.004556911881792278,-0.00017761612222280196
-0.06953642837427254,-0.004591811176661752,-0.00017990330298741546
-0.06908777770639313,-0.004626467228181919,-0.00018220787258862637
-0.06871728231704691,-0.004660918493187779,-0.0001845297190189688
-0.0684253132708258,-0.004695204142084747,-0.00018686874967778694
-0.06821006245008968,-0.004729362986014976,-0.00018922489145981188
-0.06806750825032534,-0.00476343237869008,-0.00019159809030098814
-0.06799141539168672,-0.004797447109600583,-0.00019398831017306082
-0.06797337223613292,-0.004831438306507538,-0.00019639553152708784
-0.06800287113852836,-0.004865432367351203,-0.00019881974919555253
-0.06806743798185176,-0.004899449944631298,-0.00020126096977354815
-0.06815281518076646,-0.0049335050079219525,-0.00020371920851168645
-0.0682431991642723,-0.004967604011508212,-0.000206194485766544
-0.06832153019885105,-0.005001745193848993,-0.0002086868230678833
-0.06836982945730458,-0.005035918033763033,-0.0002111962388747863
-0.06836957503673122,-0.005070102884886542,-0.0002137227441044487
-0.06830210591227626,-0.005104270805123793,-0.00021626633752695127
-0.0681490416155147,-0.005138383592005741,-0.00021882700112623365
-0.06789270561196943,-0.005172394028812612,-0.00022140469553143824
-0.06751654118197757,-0.005206246340511099,-0.00022399935562376916
-0.06700550941384108,-0.005239876853160053,-0.00022661088642218695
-0.06634645875135865,-0.005273214845201353,-0.00022923915934677731
-0.06552845415296828,-0.005306183573427435,-0.0002318840089514345
-0.06454305320227133,-0.005338701450266245,-0.0002345452302073579
-0.06338451882327736,-0.005370683343272632,-0.00023722257640574262
-0.062049963471161866,-0.005402041963846241,-0.00023991575773252234
-0.06053942535005945,-0.005432689311051547,-0.00024262444055124678
-0.05885588109143675,-0.00546253813766192,-0.00024534824741342514
-0.0570052007192516,-0.0054915034081145925,-0.00024808675779986925
-0.054996050373975605,-0.005519503720887899,-0.00025083950958211987
-0.05283974737067618,-0.005546462670324062,-0.0002536060011799229
-0.05055007109606678,-0.005572310124940748,-0.0002563856943787391
-0.048143031629167,-0.005596983400622057,-0.00025917801776012984
-0.04563659629487571,-0.005620428307603067,-0.0002619823706871861
-0.04305037425803943,-0.005642600050241297,-0.0002647981277766472
-0.04040526148985187,-0.0056634639591782695,-0.00026762464377900206
-0.03772305173256085,-0.005682996037483873,-0.00027046125877816757
-0.035026021789361844,-0.005701183305864353,-0.00027330730361400463
-0.03233650116615279,-0.005718023936603232,-0.00027616210542462155
-0.02967643702106079,-0.005733527171150035,-0.00027902499320155985
-0.02706696533010053,-0.005747713021737825,-0.00028189530324978184
-0.02452799774639053,-0.005760611762506948,-0.00028477238444584303
-0.022077830901565045,-0.005772263219668936,-0.000287655603191387
-0.01973278205597977,-0.005782715872908323,-0.0002905443479645313
-0.01750685418914571,-0.005792025781969604,-0.0002934380333782508
-0.015411435876906156,-0.0058002553544861165,-0.00029633610366236473
-0.013455044833910608,-0.005807471974663821,-0.0002992380354946522
-0.011643126037299535,-0.0058137465173816235,-0.0003021433401176636
-0.009977915279716898,-0.005819151777710877,-0.0003050515646914367
-0.008458378087980997,-0.005823760851052802,-0.0003079622928486276
-0.0070802327099490844,-0.005827645503752284,-0.0003108751444373289
-0.005836063612502978,-0.005830874577832897,-0.0003137897744577252
-0.00471552830853988,-0.005833512475813158,-0.0003167058712211367
-0.0037056559924643685,-0.005835617771888409,-0.0003196231537830621
-0.002791232227646083,-0.005837241993943436,-0.00032254136872452
-0.001955260030705595,-0.005838428617008024,-0.00032546028637725786
-0.0011794840187619301,-0.005839212303020391,-0.000328379696607265
-0.0004449609740202957,-0.005839618414268586,-0.00033129940428658724
0.0002673423629598191,-0.0058396628189213515,-0.0003342192245948847
0.0009759449053797158,-0.005839351997104267,-0.0003371389782988911
0.00169826096996341,-0.005838683445635431,-0.00034005848715957604
0.00245004362183567,-0.0058376463694874816,-0.00034297756961335676
0.003244879031849614,-0.00583622263882406,-0.00034589603686543464
0.004093747597230316,-0.00583438798216679,-0.00034881368952068237
0.005004666960922688,-0.005832113378527251,-0.0003517303148608559
0.0059824317493157066,-0.0058293666038496915,-0.00035464568485645015
0.007028463215366144,-0.005826113880108521,-0.0003575595549774397
0.008140778206507484,-0.005822321569753052,-0.0003604716638399051
0.009314081578718098,-0.005817957854806746,-0.000363381733696045
0.01053998055293935,-0.005812994339273831,-0.0003662894717445652
0.011807314279595645,-0.0058074075155656974,-0.00036919457220827506
0.013102586741692143,-0.005801180040310375,-0.0003720967190972441
0.014410485493636696,-0.005794301772251543,-0.00037499558955038457
0.01571446311833647,-0.00578677053509855,-0.0003778908576272221
0.01699735405106682,-0.005778592580806199,-0.0003807821984061983
0.018241997113845936,-0.005769782743014971,-0.0003836692922371536
0.019431833421983544,-0.0057603642853810135,-0.0003865518289942526
0.020551450553330033,-0.0057503684643871854,-0.0003894295121816946
0.021587048011017136,-0.005739833839746099,-0.00039230206275772797
0.022526806415388012,-0.005728805376139497,-0.0003951692225616994
0.023361152385218225,-0.005717333386439346,-0.0003980307572523441
0.02408292054612501,-0.00570547236820651,-0.00040088645869100557
0.024687421600990314,-0.005693279782669731,-0.00040373614672872463
0.02517242997740737,-0.005680814819775132,-0.0004065796703793358
0.02553810601113216,-0.0056681371857779965,-0.0004094169083807241
0.02578686624221591,-0.005655305942714659,-0.00041224776916284726
0.025923212418461884,-0.0056423784230494895,-0.0004150721902542883
0.025953527049388126,-0.005629409238182527,-0.0004178901371695963
0.0258858420958426,-0.005616449395896219,-0.000420701601828116
0.025729587730179086,-0.0056035455384397135,-0.00042350660056169996
