acceleration,velocity,displacement
-0.03538326175624365,0.0,0.0
-0.035002990244512165,-1.7596563000188955e-05,-4.399140750047239e-09
-0.034623852958660224,-3.500327380098205e-05,-1.7549099950339993e-08
-0.03424697421043634,-5.22209805932562e-05,-3.935516354889955e-08
-0.0338734586563656,-6.925108880995668e-05,-6.972318089970277e-08
-0.03350438191200421,-8.609554895204914e-05,-1.0855984034020421e-07
-0.03314078170764276,-0.00010275683985696088,-1.5577293754245672e-07
-0.032783649745384974,-0.00011923794772021781,-2.112716344367514e-07
-0.032433924354469255,-0.00013554234124518136,-2.7496670667810117e-07
-0.03209248396794298,-0.0001516739433257844,-3.467707778208426e-07
-0.03176014139649392,-0.00016763709966689363,-4.2659853856901213e-07
-0.031437638864609894,-0.0001834365447321696,-5.143669496687779e-07
-0.031125643779708407,-0.00019907736539324916,-6.099954272001326e-07
-0.0308247452043403,-0.00021456496263926134,-7.134060092082602e-07
-0.03053545099273182,-0.00022990501168852938,-8.245235027902079e-07
-0.030258185545866033,-0.00024510342082317886,-9.43275610918135e-07
-0.029993288139971683,-0.00026016628924463827,-1.0695930384350893e-06
-0.029741011789996972,-0.00027509986422713046,-1.2034095768030315e-06
-0.02950152262040846,-0.0002899104978297318,-1.344662167317247e-06
-0.029274899730800354,-0.000304604603417534,-1.4932909426290636e-06
-0.029061135560057905,-0.0003191886122402486,-1.6492392465435092e-06
-0.028860136759454705,-0.0003336689303201268,-1.812453632183603e-06
-0.028671725575396687,-0.0003480518959038396,-1.9828838387395946e-06
-0.028495641727044174,-0.00036234373772944985,-2.160482747147917e-06
-0.0283315447582035,-0.0003765505343507618,-2.3452063151679698e-06
-0.02817901684292291,-0.0003906781747510434,-2.537013492443421e-06
-0.028037566014539456,-0.00040473232046540897,-2.735866116247534e-06
-0.02790662977155395,-0.0004187183694119323,-2.9417287887168694e-06
-0.027785579007828982,-0.000432641421606778,-3.154568736471547e-06
-0.02767372222388774,-0.0004465062469147072,-3.3743556536019183e-06
-0.02757030998831319,-0.00046031725496775743,-3.6010615290725346e-06
-0.027474539626216442,-0.0004740784673713898,-3.834660459657322e-06
-0.027385560122381646,-0.00048779349230853935,-4.075128449577304e-06
-0.027302477249169697,-0.0005014655016514272,-4.322443198067296e-06
-0.027224358960711934,-0.0005150972107038976,-4.576583876156127e-06
-0.027150241118662457,-0.0005286908607237413,-4.837530894013036e-06
-0.027079133612481484,-0.0005422482044065272,-5.105265660295603e-06
-0.02701002690954257,-0.0005557704945370332,-5.379770335031493e-06
-0.0269418990432651,-0.0005692584760252351,-5.66102757767206e-06
-0.026873723045322984,-0.0005827123815473821,-5.949020292065214e-06
-0.026804474843257473,-0.0005961319310195273,-6.243731370206942e-06
-0.02673314164873137,-0.0006095163351425245,-6.545143436747455e-06
-0.02665873083684533,-0.0006228643032639186,-6.853238596349065e-06
-0.02658027927046522,-0.0006361740557907462,-7.167998186112731e-06
-0.026496862972589724,-0.00064944334135151,-7.4894025353982954e-06
-0.02640760700635773,-0.0006626694588462469,-7.817430735447735e-06
-0.026311695389599054,-0.0006758492844452361,-8.152060421270606e-06
-0.02620838085061436,-0.0006889793035052894,-8.493267568258238e-06
-0.02609699423142824,-0.0007020556472758001,-8.84102630595351e-06
-0.02597695337061284,-0.0007150741341763104,-9.195308751316537e-06
-0.02584777134059299,-0.0007280303153541118,-9.556084863699143e-06
-0.02570906395328265,-0.0007409195241775807,-9.923322323582067e-06
-0.025560556471700822,-0.0007537369292838266,-1.029698643694742e-05
-0.025402089478318225,-0.0007664775907713314,-1.067704006696121e-05
-0.02523362385943287,-0.0007791365191057692,-1.1063443594430484e-05
-0.025055244871899352,-0.0007917087362886023,-1.1456154908279077e-05
-0.024867165268552385,-0.0008041893388237151,-1.1855129427057156e-05
-0.02466972747438067,-0.0008165735620094484,-1.2260320152265448e-05
-0.024463404822739534,-0.0008288568450837285,-1.2671677754038741e-05
-0.0242488018727704,-0.0008410348967576059,-1.3089150689499074e-05
-0.024026653832338374,-0.0008531037606838831,-1.3512685353859446e-05
-0.023797825102265687,-0.0008650598804175341,-1.39422262641348e-05
-0.02356330693818174,-0.0008769001634276459,-1.4377716275096094e-05
-0.023324214204125143,-0.0008886220437132226,-1.4819096826881311e-05
-0.02308178117730138,-0.0009002235425585792,-1.5266308223449262e-05
-0.02283735636093151,-0.0009117033269431374,-1.5719289940824692e-05
-0.022592396273138905,-0.0009230607651016551,-1.617798096383589e-05
-0.02234845820480832,-0.0009342959787211419,-1.664232014979159e-05
-0.022107191974151497,-0.0009454098912658819,-1.7112246617288346e-05
-0.02187033073868019,-0.0009564042719440898,-1.758770015809084e-05
-0.021639680946179223,-0.0009672817748653046,-1.806862166979319e-05
-0.021417111514589093,-0.0009780459729804966,-1.855495360675464e-05
-0.02120454233046886,-0.000988701386441761,-1.9046640446610205e-05
-0.021003932146820413,-0.0009992535050610833,-1.9543629169485915e-05
-0.020817265942912312,-0.0010097088045835166,-2.0045869746897064e-05
-0.02064654178712279,-0.0010200747565160253,-2.055331563717195e-05
-0.020493757230290593,-0.0010303598312703787,-2.106592428411855e-05
-0.020360895260273376,-0.0010405734943930197,-2.15836576155344e-05
-0.020249909868954048,-0.0010507261956753265,-2.210648253805149e-05
-0.020162711313143383,-0.0010608293509708508,-2.2634371424713035e-05
-0.02010115118195863,-0.0010708953165946263,-2.3167302591604405e-05
-0.020067007410728956,-0.0010809373562427982,-2.370526075981376e-05
-0.020061969406202744,-0.001090969600447031,-2.424823749898622e-05
-0.02008762347098956,-0.0011010069986663292,-2.479623164876456e-05
-0.02014543873176108,-0.0011110652642170168,-2.5349249714485398e-05
-0.020236753776783516,-0.001121160812344153,-2.590730623362569e-05
-0.020362764191934387,-0.0011313106918363325,-2.6470424109670813e-05
-0.020524511160788142,-0.001141532510674513,-2.7038634910298524e-05
-0.020722871275305244,-0.0011518443562835365,-2.7611979127038037e-05
-0.020958547692476986,-0.001162264711025482,-2.8190506393865293e-05
-0.021232062766672544,-0.0011728123636402694,-2.877427566253173e-05
-0.02154375227948874,-0.0011835063174018097,-2.936335533279225e-05
-0.021893761365256722,-0.001194365695812996,-2.995782333609595e-05
-0.022282042186429294,-0.0012054096467009174,-3.055776717172443e-05
-0.02270835336551046,-0.0012166572455889024,-3.1163283894796885e-05
-0.023172261149516725,-0.0012281273992176592,-3.1774480055998525e-05
-0.023673142267416358,-0.0012398387500718925,-3.2391471593320915e-05
-0.024210188423174104,-0.0012518095827445401,-3.3014383676525026e-05
-0.02478241234041627,-0.0012640577329354377,-3.364335050544502e-05
-0.02538865524968911,-0.001276600499832964,-3.427851506363712e-05
-0.02602759569632033,-0.0012894545625694663,-3.492002882923773e-05
-0.02669775954579303,-0.0013026359013799946,-3.5568051445225096e-05
-0.027397531068985178,-0.0013161597240336892,-3.622275035157852e-05
-0.0281251649992091,-0.0013300403980507378,-3.688430038209963e-05
-0.02887879946594327,-0.001344291389167026,-3.755288332890407e-05
-0.029656469721170215,-0.0013589252064638044,-3.822868747781178e-05
-0.030456122577520596,-0.0013739533545384772,-3.891190711806235e-05
-0.03127563147640669,-0.001389386293051959,-3.9602742029959956e-05
-0.03211281210769801,-0.0014052334039479852,-4.030139695420994e-05
-0.03296543850838721,-0.0014215029666020064,-4.100808104684744e-05
-0.033831259562298766,-0.001438202141119678,-4.172300732377786e-05
-0.0347080157994686,-0.0014553369599601199,-4.244639209904781e-05
-0.03559345636260806,-0.001472912328000639,-4.3178454421038e-05
-0.036485355982826345,-0.0014909320310869977,-4.391941551080991e-05
-0.037381531790986446,-0.0015093987530304508,-4.466949820683928e-05
-0.03827985977916661,-0.0015283141009229892,-4.542892642032764e-05
-0.03917829071138584,-0.0015476786385456272,-4.6197924605194794e-05
-0.040074865260698506,-0.0015674919275386484,-4.697671724671586e-05
-0.04096772812519269,-0.0015877525758851213,-4.7765528372571804e-05
-0.04185514086352664,-0.001608458293132301,-4.856458108982616e-05
-0.04273549320979988,-0.0016296059516506328,-4.937409715102189e-05
-0.0436073126776369,-0.001651191653122492,-5.019429655221517e-05
-0.044469272322655386,-0.0016732107993725652,-5.1025397165338933e-05
-0.04532019658236377,-0.0016956581665988199,-5.186761440683178e-05
-0.04615906515314915,-0.001718527982032698,-5.2721160943989654e-05
-0.046985014902162975,-0.001741814002046526,-5.358624644000946e-05
-0.04779733984934818,-0.0017655095907344038,-5.44630773382047e-05
-0.04859548928996706,-0.0017896077980192326,-5.535185668539311e-05
-0.04937906415792448,-0.0018141014363812055,-5.6252783993993216e-05
-0.05014781175329801,-0.0018389831553590112,-5.716605514192827e-05
-0.050901618977724036,-0.0018642455130417667,-5.8091862309028466e-05
-0.05164050424452773,-0.0018898810438473296,-5.903039394825074e-05
-0.05236460825251444,-0.00191588232197159,-5.998183478970547e-05
-0.053074183821841585,-0.001942242019990179,-6.094636587519591e-05
-0.05376958498415493,-0.0019689529621916783,-6.192416462074138e-05
-0.05445125550352975,-0.0019960081723135997,-6.29154049043677e-05
-0.05511971698790904,-0.0020234009154364596,-6.392025717630522e-05
-0.05577555673486686,-0.0020511247338671533,-6.493888858863112e-05
-0.05641941543784707,-0.0020791734769103317,-6.59714631413255e-05
-0.057051974861600324,-0.0021075413244851936,-6.701814184167438e-05
-0.05767394558849408,-0.002136222804597717,-6.80790828739451e-05
-0.058286054945897385,-0.002165212804731315,-6.915444177627737e-05
-0.05888903523639191,-0.0021945065772768875,-7.024437162177941e-05
-0.05948361238964538,-0.002224099739183397,-7.134902320089448e-05
-0.060070495137219154,-0.0022539882660651133,-7.246854520220661e-05
-0.060650364794397414,-0.0022841684810480174,-7.360308438898489e-05
-0.0612238657269899,-0.0023146370386783644,-7.475278576891648e-05
-0.0617915965844366,-0.002345390904256221,-7.591779275465012e-05
-0.06235410238604404,-0.002376427328998841,-7.709824731296389e-05
-0.06291186754565178,-0.002407743821481765,-7.829429010058404e-05
-0.06346530990728322,-0.0024393381158449986,-7.950606058491573e-05
-0.06401477584728425,-0.0024712081372836405,-8.073369714819788e-05
-0.06456053648645557,-0.0025033519653670754,-8.197733717386056e-05
-0.06510278504407677,-0.0025357677957497083,-8.323711711413976e-05
-0.06564163534102611,-0.002568453900845984,-8.451317253828868e-05
-0.06617712141841477,-0.002601408590035844,-8.580563816100914e-05
-0.0667091981939703,-0.0026346301699389403,-8.711464785100283e-05
-0.06723774304553791,-0.002668116905248817,-8.844033461979976e-05
-0.06776255819327978,-0.0027018669805585218,-8.97828305912516e-05
-0.06828337374337722,-0.002735878463542686,-9.11422669522769e-05
-0.06879985125241433,-0.002770149269791634,-9.251877388561047e-05
-0.06931158767905275,-0.0028046771295245007,-9.39124804854395e-05
-0.06981811961555043,-0.0028394595563481515,-9.532351465690766e-05
-0.07031892772915961,-0.002874493818184329,-9.675200300054079e-05
-0.07081344137253874,-0.0029097769104597534,-9.819807068270181e-05
-0.07130104333267638,-0.0029453055316360573,-9.966184129322576e-05
-0.0717810746890098,-0.0029810760611414786,-0.00010114343669142014
-0.07225283975814331,-0.003017084539753267,-0.00010264297684164383
-0.07271561111766567,-0.0030533266524722194,-0.0001041605796397002
-0.07316863471524714,-0.0030897977139304478,-0.00010569636073130087
-0.07361113506968221,-0.0031264926563766803,-0.00010725043332387765
-0.07404232055309433,-0.0031634060202823744,-0.00010882290799304242
-0.07446138871300738,-0.0032005319475989,-0.00011041389248501273
-0.07486753156287726,-0.003237864177667871,-0.00011202349151632942
-0.07525994075581131,-0.003275396045747543,-0.00011365180657218327
-0.07563781256490475,-0.003313120484077722,-0.00011529893570463959
-0.0760003526124176,-0.0033510300253720526,-0.00011696497333200203
-0.07634678029786741,-0.003389116808599624,-0.00011865001004049495
-0.07667633286425998,-0.003427372586890156,-0.00012035413238936739
-0.07698826902613833,-0.0034657887373627555,-0.00012207742272043063
-0.07728187208287116,-0.003504356272640008,-0.0001238199589729313
-0.07755645246099419,-0.003543065853775974,-0.0001255818145045353
-0.07781134966111534,-0.0035819078043065017,-0.00012736305791905594
-0.07804593361672171,-0.003620872125125961,-0.00012916375290141405
-0.078259605496618,-0.003659948509904296,-0.0001309839580601716
-0.0784517979925835,-0.003699126360776596,-0.00013282372677784183
-0.07862197512267159,-0.00373839480405541,-0.00013468310706904983
-0.07876963155145436,-0.0037777427057239413,-0.00013656214144649467
-0.07889429139924382,-0.0038171586864616156,-0.00013846086679454106
-0.07899550649972215,-0.003856631135936357,-0.00014037931425014055
-0.07907285406740504,-0.0038961482260781387,-0.00014231750909064417
-0.07912593374221935,-0.0039356979230305445,-0.00014427547062792134
-0.0791543639916596,-0.003975267997464014,-0.000146253212108045
-0.07915777788231133,-0.004014846032932507,-0.00014825074061564411
-0.07913581827619384,-0.0040544194319721335,-0.00015026805698187026
-0.07908813254490508,-0.004093975419677408,-0.00015230515569478265
-0.07901436691932003,-0.004133501044543464,-0.00015436202481083788
-0.07891416061266276,-0.004172983176426459,-0.00015643864586608035
-0.07878713987335076,-0.004212408501547963,-0.00015853499378557396
-0.07863291213315861,-0.00425176351454959,-0.00016065103678959835
-0.07845106040931273,-0.004291034507685208,-0.00016278673629515706
-0.0782411381025437,-0.004330207557313172,-0.00016494204681140665
-0.07800266432171775,-0.004369268507919238,-0.00016711691582771475
-0.07773511987005217,-0.00440820295396718,-0.00016931128369318635
-0.07743794404442214,-0.004446996219945799,-0.00017152508348666458
-0.07711053241180221,-0.004485633339059856,-0.000173758240876416
-0.07675223571874912,-0.004524099031092493,-0.00017601067396895407
-0.07636236005482556,-0.004562377680035887,-0.00017828229314673617
-0.07594016833772861,-0.004600453312134026,-0.00018057300089477864
-0.07548488313460341,-0.0046383095750021095,-0.00018288269161656267
-0.07499569079624932,-0.0046759297184848225,-0.0001852112514399344
-0.07447174686263934,-0.004713296577899545,-0.00018755855801403049
-0.07391218269134466,-0.004750392560288041,-0.0001899244802985774
-0.07331611325487823,-0.004787199634274596,-0.00019230887834721804
-0.07268264604696581,-0.004823699324100057,-0.0001947116030868117
-0.07201089103587235,-0.004859872708370767,-0.0001971324960949294
-0.07129997160291357,-0.004895700424030464,-0.0001995713893780297
-0.07054903639468017,-0.0049311626760298625,-0.00020202810515304476
-0.06975727199161319,-0.0049662392531264355,-0.00020450245563533384
-0.06892391626133525,-0.005000909550189673,-0.00020699424283616286
-0.06804827223373149,-0.005035152597313439,-0.00020950325837303864
-0.067129722306985,-0.005068947095948619,-0.00021202928329635415
-0.0661677425664285,-0.0051022714621669725,-0.00021457208793588305
-0.06516191697679163,-0.005135103877052778,-0.000217131431770688
-0.06411195120038682,-0.0051674223440970725,-0.00021970706332597546
-0.06301768579822799,-0.005199204753346726,-0.0002222987201003364
-0.06187910858270641,-0.00523042895194196,-0.00022490612852665859
-0.06069636590433912,-0.0052610728205637215,-0.000227529003969785
-0.05946977266439608,-0.005291114355205905,-0.0002301670507637274
-0.05819982084807594,-0.005320531753584023,-0.0002328199622909249
-0.05688718638254114,-0.005349303505391678,-0.00023548742110566883
-0.055532734157093595,-0.005377408485526586,-0.00023816909910339838
-0.05413752109814608,-0.005404826049340396,-0.00024086465773711513
-0.0527027972514015,-0.005431536128927783,-0.00024357374828168216
-0.051230004871473216,-0.005457519329458502,-0.00024629601214627874
-0.04972077554972834,-0.005482757024563803,-0.0002490310812347843
-0.04817692542933378,-0.0055072314498085684,-0.00025177857835337737
-0.04660044857063205,-0.00553092579330856,-0.00025453811766415664
-0.04499350854229299,-0.005553824282586791,-0.0002573093051831305
-0.04335842832123176,-0.0055759122668026725,-0.0002600917393204779
-0.041697678590132396,-0.005597176293530514,-0.0002628850114605612
-0.040013864537052905,-0.00561760417931231,-0.0002656887065787719
-0.0383097112920001,-0.005637185073269573,-0.0002685024038919174
-0.0365880481713755,-0.005655909513135417,-0.00027132567753851867
-0.03485179193075436,-0.005673769473160949,-0.0002741580972850928
-0.033103929246518705,-0.005690758403455267,-0.0002769992292542468
-0.03134749865885718,-0.005706871260431611,-0.0002798486366702185
-0.02958557221119692,-0.005722104528149125,-0.0002827058806173637
-0.027821237011201545,-0.005736456230454724,-0.00028557052080701467
-0.02605757691683595,-0.005749925933936733,-0.00028844211634811254
-0.02429765452610895,-0.00576251474179747,-0.0002913202265170461
-0.02254449363654453,-0.005774225278838133,-0.000294204411522205
-0.020801062347651323,-0.005785061667834182,-0.00029709423325887307
-0.01907025699430637,-0.005795029497669671,-0.00029998925605024905
-0.017354887101326346,-0.00580413578369358,-0.00030288904737058985
-0.015657661535571275,-0.0058123889208528045,-0.00030579317854672645
-0.013981176011056267,-0.0058197986302394615,-0.0003087012254344995
-0.012327902078717515,-0.005826375899761905,-0.0003116127690669998
-0.010700177701146176,-0.005832132919706871,-0.00031452739627186704
-0.009100199471486733,-0.005837083014000029,-0.00031744470025529375
-0.007530016489982736,-0.005841240567990397,-0.00032036428115079135
-0.005991525867339288,-0.005844620953579727,-0.0003232857465311839
-0.004486469783122087,-0.005847240452492342,-0.0003262087118827019
-0.003016433989398905,-0.005849116178435473,-0.00032913280104043385
-0.001582847615806694,-0.005850265998836774,-0.0003320576465847519
-0.0001869841053305119,-0.005850708456767059,-0.00033498289019865286
0.0011700369071218106,-0.005850462693566611,-0.0003379081829862363
0.0024872469671685803,-0.005849548372598039,-0.00034083318575277744
0.0037638256124027675,-0.0058479856044531455,-0.0003437575692470402
0.004999096797748494,-0.005845794873850608,-0.0003466810143666162
0.006192525097559821,-0.005842996968376781,-0.000349603212327173
0.007343711841173117,-0.005839612909142098,-0.00035252386479655277
0.008452391333202908,-0.005835663883348503,-0.00035544268399467544
0.009518427293960087,-0.005831171178691713,-0.0003583593927601855
0.010541809623289392,-0.005826156119462401,-0.000361273724584724
0.01152265154740244,-0.005820640004169728,-0.00036418542361563204
0.012461187161969391,-0.005814644044492385,-0.00036709424462779756
0.013357769341128208,-0.0058081893053666105,-0.0003699999529652623
0.014212867939371234,-0.0058012966460464855,-0.00037290232445311557
0.015027068167505203,-0.005793986662019766,-0.00037580114528013215
0.015801068979029873,-0.005786279627733133,-0.00037869621185257035
0.01653568126920456,-0.005778195440171074,-0.0003815873306195464
0.017231825669969884,-0.00576975356343628,-0.00038447431787044827
0.017890529717640272,-0.005760972974589378,-0.0003873569995049547
0.018512924179096953,-0.005751872111115193,-0.00039023521077638084
0.019100238353202976,-0.005742468820482119,-0.00039310879600928017
0.01965379422000851,-0.005732780312338816,-0.0003959776082924854
0.020174999382584637,-0.005722823113938168,-0.0003988415091490546
0.020665338819642637,-0.005712613029387611,-0.00040170036818488607
0.021126365527398324,-0.005702165103300851,-0.0004045540627180582
0.02155969016958625,-0.0056914935893766045,-0.00040740247739122753
0.021966969873446342,-0.005680611924365846,-0.00041024550376966314
0.022349896308767166,-0.005669532707820293,-0.00041308303992770965
0.022710183175322435,-0.005658267687949271,-0.00041591499002665205
0.023049553214020642,-0.005646827753851935,-0.00041874126388710236
0.023369724857691673,-0.0056352229343340065,-0.00042156177655914884
0.0236723986491364,-0.0056234624034573,-0.0004243764478935967
