frame_number,force
0,500.44628901176446
1,500.46303955276886
2,500.4797518901405
3,500.4963881519221
4,500.51291112421006
5,500.5292845666862
6,500.54547351165627
7,500.56144454168447
8,500.5771660426705
9,500.59260843127504
10,500.607744356928
11,500.62254887897564
12,500.6369996193984
13,500.6510768915801
14,500.6647638058861
15,500.67804635304293
16,500.69091346633076
17,500.7033570634572
18,500.7153720687253
19,500.7269564157347
20,500.73811103045216
21,500.7488397943459
22,500.7591494875972
23,500.7690497128732
24,500.7785528003526
25,500.78767369474264
26,500.7964298253333
27,500.8048409606356
28,500.8129290493512
29,500.82071804920537
30,500.8282337448743
31,500.83550355605274
32,500.84255633644574
33,500.8494221638761
34,500.8561321208568
35,500.8627180643434
36,500.86921238346423
37,500.8756477448061
38,500.8820568255949
39,500.8884720351747
40,500.8949252247721
41,500.9014473854235
42,500.90806833462057
43,500.9148163935093
44,500.92171805786813
45,500.92879766727515
46,500.936077077754
47,500.94357534372574
48,500.95130841507086
49,500.95928885436314
50,500.96752557811277
51,500.9760236247426
52,500.98478395132014
53,500.9938032606608
54,501.00307386013213
55,501.01258355324666
56,501.0223155648021
57,501.0322484998417
58,501.0423563361748
59,501.05260844981854
60,501.0629696725778
61,501.0734003811641
62,501.0838566177367
63,501.0942902423128
64,501.10464911784806
65,501.1148773288086
66,501.1249154337037
67,501.13470075131494
68,501.14416767935387
69,501.15324804333073
70,501.1618714728061
71,501.1699658019354
72,501.1774574911983
73,501.18427206742757
74,501.1903345797382
75,501.1955700695406
76,501.1999040531893
77,501.2032630157266
78,501.205574913618
79,501.2067696835448
80,501.2067797534728
81,501.20554055147676
82,501.20299100713487
83,501.1990740396984
84,501.193737026812
85,501.18693224756885
86,501.1786172941773
87,501.1687554472129
88,501.15731601000186
89,501.1442745980406
90,501.12961337956654
91,501.11332126366773
92,501.0953940330308
93,501.07583441970013
94,501.0546521235937
95,501.03186377442967
96,501.0074928382071
97,500.9815694699363
98,500.9541303151084
99,500.92521826314436
100,500.89488215647407
101,500.86317645898293
102,500.83016088746217
103,500.7959000094802
104,500.7604628107798
105,500.72392223504073
106,500.6863546987919
107,500.6478395843188
108,500.6084587133444
109,500.56829580412204
110,500.5274359147441
111,500.48596487613383
112,500.4439687190542
113,500.4015331001707
114,500.3587427326375
115,500.31568082699977
116,500.2724285486149
117,500.22906449839013
118,500.185664224289
119,500.14229977136443
120,500.0990392775171
121,500.05594662075885
122,500.0130811220895
123,499.97049730667237
124,499.92824472483215
125,499.8863678332983
126,499.8449059360383
127,499.8038931830048
128,499.76335862424696
129,499.7233263161454
130,499.68381547592463
131,499.6448406799016
132,499.6064121002763
133,499.568535774954
134,499.5312139050215
135,499.4944451748827
136,499.45822509048367
137,499.42254633145535
138,499.3873991134527
139,499.35277155741517
140,499.3186500626358
141,499.28501968026177
142,499.2518644835037
143,499.219167930887
144,499.18691321934625
145,499.1550836244205
146,499.1236628249664
147,499.09263520969836
148,499.06198616271143
149,499.03170232517675
150,499.00177183075317
151,498.97218451273244
152,498.9429320812707
153,498.9140082693887
154,498.8854089471124
155,498.8571322042683
156,498.8291784036807
157,498.8015502074425
158,498.77425257943935
159,498.74729276756733
160,498.72068026920465
161,498.6944267833119
162,498.66854615183775
163,498.6430542920949
164,498.6179691209828
165,498.59331047167404
166,498.56910000336694
167,498.5453611045428
168,498.5221187897673
169,498.49939958972294
170,498.477231434161
171,498.45564352796634
172,498.43466622138715
173,498.4143308763352
174,498.3946697310607
175,498.37571576528126
176,498.35750256734474
177,498.34006420479733
178,498.32343510004915
179,498.30764991327004
180,498.29274343466943
181,498.2787504877634
182,498.2657058443694
183,498.253644151201
184,498.242599867273
185,498.2326072110682
186,498.2237001167361
187,498.21591219941143
188,498.2092767305651
189,498.20382662465596
190,498.19959443831175
191,498.19661238312153
192,498.19491235276666
193,498.1945259643672
194,498.19548461272984
195,498.19781953515854
196,498.2015618838194
197,498.2067428021134
198,498.21339350101084
199,498.2215453310657
200,498.2312298460333
201,498.24247885449176
202,498.25532445619626
203,498.2697990597881
204,498.28593537804215
205,498.303766396501
206,498.32332531158016
207,498.3446454352135
208,498.3677600645811
209,498.3927023169468
210,498.4195049306824
211,498.44820003406767
212,498.4788188836434
213,498.511391574054
214,498.5459467214756
215,498.58251112277696
216,498.6211093925494
217,498.6617635803985
218,498.70449277159264
219,498.74931267509135
220,498.7962352038263
221,498.84526805285304
222,498.89641428171814
223,498.94967190795
224,499.0050335187682
225,499.06248590794786
226,499.1220097444172
227,499.18357927874246
228,499.24716209335264
229,499.31271890223576
230,499.3802034055222
231,499.44956220341186
232,499.52073477232375
233,499.5936535044424
234,499.6682438104657
235,499.74442428446304
236,499.8221069291986
237,499.90119743983576
238,499.98159554354953
239,500.0631953923198
240,500.1458860059699
241,500.2295517620428
242,500.3140729282278
243,500.3993262320155
244,500.4851854614115
245,500.57152208995444
246,500.65820591892765
247,500.7451057295619
248,500.83208993828356
249,500.9190272486494
250,501.00578729428895
251,501.0922412675198
252,501.17826252810363
253,501.2637271862128
254,501.34851465362414
255,501.4325081575581
256,501.5155952121787
257,501.59766804345423
258,501.6786239639759
259,501.75836569550063
260,501.8368016382873
261,501.9138460875625
262,501.98941939862766
263,502.06344810322224
264,502.1358649807454
265,502.20660908873737
266,502.27562575755394
267,502.3428665543876
268,502.40828922168805
269,502.47185759473143
270,502.53354150281683
271,502.5933166584569
272,502.651164538847
273,502.7070722635121
274,502.7610324712056
275,502.81304319798716
276,502.86310775717806
277,502.91123462074665
278,502.9574373005473
279,503.0017342266217
280,503.04414861857816
281,503.0847083451699
282,503.1234457666998
283,503.16039755474975
284,503.19560448400364
285,503.2291111918234
286,503.2609659028003
287,503.29122011752366
288,503.3199282668499
289,503.3471473346306
290,503.3729364529824
291,503.3973564747007
292,503.4204695273971
293,503.4423385535997
294,503.4630268407672
295,503.4825975451589
296,503.5011132138026
297,503.5186353092696
298,503.5352237424314
299,503.55093641870013
300,503.5658288033672
301,503.57995351149697
302,503.5933599272458
303,503.6060938564322
304,503.61819721494203
305,503.62970775441653
306,503.64065882579206
307,503.6510791807104
308,503.66099281070336
309,503.6704188244608
310,503.67937136439684
311,503.6878595649264
312,503.69588755589064
313,503.70345451497917
314,503.710554772721
315,503.7171779729311
316,503.7233092905949
317,503.7289297078828
318,503.73401634717584
319,503.7385428580457
320,503.7424798536897
321,503.74579539169054
322,503.7484554938952
323,503.7504247001668
324,503.75166665042565
325,503.75214468887685
326,503.7518224838929
327,503.750664656792
328,503.7486374126387
329,503.7457091660683
330,503.74185115495845
331,503.73703803468675
332,503.73124844592877
333,503.72446554945196
334,503.7166775219607
335,503.7078780076138
336,503.69806652028007
337,503.6872487918433
338,503.6754370620464
339,503.66265030590887
340,503.64891439596204
341,503.63426219829614
342,503.61873360324773
343,503.6023754931226
344,503.585241650518
345,503.5673926115753
346,503.5488954687949
347,503.529823627756
348,503.51025652130556
349,503.4902792838907
350,503.46998238805605
351,503.4494612448429
352,503.42881576991635
353,503.40814991773925
354,503.38757118688284
355,503.3671901002923
356,503.3471196646736
357,503.32747481306154
358,503.3083718342362
359,503.28992779213166
360,503.2722599378356
361,503.2554851164655
362,503.2397191714253
363,503.2250763492013
364,503.2116687084816
365,503.19960553765776
366,503.1889927847591
367,503.1799325039865
368,503.17252232358544
369,503.16685494071174
370,503.1630176495044
371,503.1610919081289
372,503.16115294915573
373,503.1632694359601
374,503.16750316662194
375,503.173908826419
376,503.18253379022707
377,503.19341797645546
378,503.206593754243
379,503.22208590547285
380,503.2399116426207
381,503.26008068225474
382,503.28259537219026
383,503.30745086840824
384,503.33463535645734
385,503.36413031136914
386,503.395910790023
387,503.4299457501604
388,503.46619839054705
389,503.5046265068711
390,503.5451828578078
391,503.5878155354843
392,503.63246833474585
393,503.679081116539
394,503.72759016227826
395,503.7779285175624
396,503.8300263244067
397,503.8838111412193
398,503.93920824952
399,503.9961409463579
400,504.0545308218982
401,504.11429802279923
402,504.1753615034298
403,504.237639267997
404,504.3010486068429
405,504.36550632973695
406,504.43092899837046
407,504.49723315946034
408,504.5643355785969
409,504.6321534733726
410,504.70060474299606
411,504.7696081909643
412,504.8390837373625
413,504.90895261771067
414,504.9791375657213
415,505.0495629777912
416,505.1201550577339
417,505.1908419414361
418,505.261553802518
419,505.3322229409141
420,505.40278385610253
421,505.473173306002
422,505.54333035225875
423,505.61319639303974
424,505.682715184887
425,505.7518328549103
426,505.82049790355995
427,505.8886611969483
428,505.95627594666234
429,506.0232976744194
430,506.0896841587892
431,506.15539536158974
432,506.22039333258186
433,506.2846420927116
434,506.3481074979497
435,506.41075708714527
436,506.4725599179418
437,506.53348639483875
438,506.5935080931538
439,506.6525975821076
440,506.71072824967257
441,506.76787413133644
442,506.82400974464775
443,506.87910993139883
444,506.9331497095212
445,506.9861041370937
446,507.0379481911086
447,507.08865666362277
448,507.1382040775215
449,507.18656462346155
450,507.23371211884245
451,507.2796199890689
452,507.3242612710121
453,507.3676086383547
454,507.40963444807164
455,507.45031080649676
456,507.4896096525231
457,507.527502854833
458,507.5639623195907
459,507.5989601045476
460,507.63246853508497
461,507.66446031770903
462,507.6949086471016
463,507.723787303906
464,507.75107074179704
465,507.77673416387626
466,507.8007535898043
467,507.8231059159957
468,507.8437689714314
469,507.86272157132413
470,507.8799435703226
471,507.8954159163526
472,507.9091207056507
473,507.92104123921644
474,507.93116208098525
475,507.9394691185796
476,507.9459496284392
477,507.95059234812925
478,507.95338755910035
479,507.9543271826882
480,507.95340489084816
481,507.9506162316324
482,507.94595876818903
483,507.9394322290962
484,507.93103866705866
485,507.920782622442
486,507.90867128785493
487,507.894714669846
488,507.8789257435274
489,507.8613205955885
490,507.8419185510126
491,507.8207422790249
492,507.7978178741249
493,507.77317490820485
494,507.7468464498937
495,507.7188690479523
496,507.6892826770711
497,507.65813064656135
498,507.62545947449433
499,507.5913187311408
500,507.5557608557854
501,507.51884095045756
502,507.48061655337625
503,507.44114739422497
504,507.4004951327726
505,507.35872308182985
506,507.3158959151402
507,507.27207936058767
508,507.2273398791742
509,507.18174433081117
510,507.13535962911703
511,507.0882523887303
512,507.04048856961117
513,506.99213312325134
514,506.9432496458176
515,506.89390004323855
516,506.84414421313744
517,506.79403974829785
518,506.7436416659581
519,506.6930021665777
520,506.64217042484074
521,506.59119241473167
522,506.54011076953134
523,506.48896467643726
524,506.4377898044159
525,506.3866182631915
526,506.3354785909963
527,506.2843957686085
528,506.2333912570832
529,506.1824830564258
530,506.13168578241687
531,506.0810107589659
532,506.03046612359896
533,505.98005694372347
534,505.929785341143
535,505.87965062230296
536,505.82964941230824
537,505.779775791906
538,505.73002143798914
539,505.6803757693181
540,505.6308260997912
541,505.58135780150195
542,505.5319544789664
543,505.4825981546666
544,505.43326946495444
545,505.38394786443126
546,505.3346118357972
547,505.28523910088063
548,505.2358068278525
549,505.18629183019794
550,505.136670754753
551,505.0869202582225
552,505.0370171733037
553,504.98693866658243
554,504.9366623909374
555,504.8861666355892
556,504.8354304772087
557,504.78443393553795
558,504.7331581368038
559,504.68158548791246
560,504.62969986390084
561,504.57748681021707
562,504.52493376010113
563,504.47203026585873
564,504.418768241372
565,504.3651422118974
566,504.31114956616216
567,504.2567908051066
568,504.20206978136036
569,504.1469939236503
570,504.0915744407907
571,504.03582650066966
572,503.9797693806693
573,503.92342658708054
574,503.86682594209543
575,503.80999963768477
576,503.7529842559815
577,503.69582075570526
578,503.6385544238283
579,503.58123479130336
580,503.52391551148037
581,503.4666542000401
582,503.4095122358361
583,503.3525545226346
584,503.2958492120935
585,503.23946738841016
586,503.18348271527566
587,503.1279710465601
588,503.0730100036269
589,503.0186785237874
590,502.9650563854784
591,502.9122237161348
592,502.8602604888238
593,502.8092460137885
594,502.75925843100123
595,502.71037420950785
596,502.6626676589144
597,502.6162104581734
598,502.57107120688545
599,502.5273150042732
600,502.48500306042723
601,502.44419234335504
602,502.4049352640868
603,502.3672794010226
604,502.33126726411507
605,502.2969360993381
606,502.2643177338699
607,502.2334384622255
608,502.20431897312
609,502.176974316269
610,502.1514139077872
611,502.1276415722974
612,502.10565561925677
613,502.0854489505338
614,502.0670091961578
615,502.0503188752223
616,502.03535557887625
617,502.0220921721942
618,502.01049701164396
619,502.00053417471923
620,501.99216369783375
621,501.9853418179526
622,501.9800212131199
623,501.9761512373423
624,501.9736781460885
625,501.9725453095939
626,501.9726934119304
627,501.974060634466
628,501.9765828230703
629,501.9801936392392
630,501.98482469605443
631,501.9904056803934
632,501.9968644630165
633,502.0041271982549
634,502.0121184152859
635,502.02076110338885
636,502.0299767936174
637,502.03968563861696
638,502.04980649109547
639,502.0602569803895
640,502.07095358611997
641,502.0818117080775
642,502.0927457319967
643,502.1036690916793
644,502.11449432893033
645,502.1251331536224
646,502.135496506596
647,502.14549462810555
648,502.1550371345089
649,502.1640331060547
650,502.17239118875034
651,502.18001971303556
652,502.1868268313554
653,502.192720676089
654,502.1976095388665
655,502.2014020719081
656,502.2040075115032
657,502.20533592325705
658,502.20529846836797
659,502.20380768989395
660,502.20077781766446
661,502.1961250903058
662,502.18976809275347
663,502.18162810733736
664,502.1716294758307
665,502.1596999690268
666,502.1457711599796
667,502.12977879712173
668,502.11166317359516
669,502.0913694887928
670,502.06884819744363
671,502.04405534117456
672,502.0169528577615
673,501.98750886402826
674,501.95569790899503
675,501.9215011940401
676,501.8849067566727
677,501.8459096145453
678,501.80451186680403
679,501.76072275057186
680,501.7145586510063
681,501.6660430639004
682,501.6152065101372
683,501.56208640147656
684,501.5067268573937
685,501.44917847329833
686,501.38949804141964
687,501.32774822671036
688,501.26399720113244
689,501.1983182406594
690,501.13078929033446
691,501.0614925037465
692,500.9905137641075
693,500.9179421943522
694,500.84386966320886
695,500.7683902934376
696,500.6915999778682
697,500.6135959084391
698,500.5344761227357
699,500.4543390714415
700,500.37328320892146
701,500.2914066080757
702,500.20880659962125
703,500.12557943516055
704,500.0418199730839
705,499.9576213865587
706,499.8730748931062
707,499.7882695051039
708,499.70329180003876
709,499.618225708806
710,499.5331523200303
711,499.4481496982976
712,499.36329271424233
713,499.2786528845568
714,499.1942982202787
715,499.11029308227836
716,499.0266980435902
717,498.9435697588337
718,498.8609608412574
719,498.77891974801645
720,498.6974906743598
721,498.6167134577399
722,498.5366234934737
723,498.45725166412365
724,498.37862428486903
725,498.3007630669432
726,498.22368510113245
727,498.147402863577
728,498.07192424639743
729,497.99725261556034
730,497.92338689781064
731,497.8503216978037
732,497.7780474461891
733,497.70655057944464
734,497.6358137524973
735,497.56581608528256
736,497.49653344421824
737,497.4279387590459
738,497.36000237466226
739,497.2926924365017
740,497.22597530687517
741,497.159816008545
742,497.0941786908082
743,497.0290271126012
744,496.9643251367081
745,496.9000372289953
746,496.83612895657694
747,496.77256747891454
748,496.7093220262241
749,496.6463643603407
750,496.5836692142999
751,496.5212147080443
752,496.45898273858
753,496.39695934356394
754,496.3351350379208
755,496.2735051237481
756,496.2120699743327
757,496.15083529338114
758,496.0898123504583
759,496.02901819318294
760,495.96847583608644
761,495.9082144252332
762,495.8482693767816
763,495.78868248700076
764,495.72950201137496
765,495.6707827113359
766,495.61258586833384
767,495.5549792659788
768,495.49803714183616
769,495.441840111181
770,495.3864750654186
771,495.3320350477001
772,495.2786191074647
773,495.2263321345368
774,495.1752846725035
775,495.12559271074997
776,495.0773774547952
777,495.03076507525884
778,494.9858864367431
779,494.9428768089896
780,494.90187556361974
781,494.8630258603298
782,494.82647432643336
783,494.7923707331551
784,494.7608676712452
785,494.7321202276047
786,494.7062856638744
787,494.6835230972777
788,494.66399318320936
789,494.6478577979725
790,494.63527971870684
791,494.62642229620894
792,494.62144911552383
793,494.62052363915177
794,494.62380882826596
795,494.63146673814157
796,494.643658085009
797,494.66054178277705
798,494.6822744492256
799,494.7090098819223
800,494.7408985042608
801,494.7780867819845
802,494.8207166105662
803,494.8689246738896
804,494.9228417749452
805,494.9825921399538
806,495.04829269859437
807,495.12005234468836
808,495.19797118332525
809,495.28213977155013
810,495.37263836033196
811,495.46953614591285
812,495.5728905389014
813,495.6827464592796
814,495.79913566466166
815,495.92207611816264
816,496.05157140186316
817,496.1876101823087
818,496.3301657352647
819,496.4791955373439
820,496.63464093171035
821,496.7964268738546
822,496.964461761716
823,497.1386373526059
824,497.3188287678153
825,497.5048945845736
826,497.69667701406263
827,497.89400216347593
828,498.09668037974416
829,498.3045066724715
830,498.5172612135556
831,498.7347099107158
832,498.9566050518214
833,499.18268601662214
834,499.41268005227766
835,499.64630310889044
836,499.883260730931
837,500.1232489999871
838,500.3659555238203
839,500.61106046629595
840,500.8582376122225
841,501.10715546039603
842,501.3574783373458
843,501.608867523551
844,501.8609823832668
845,502.11348148850107
846,502.36602372719096
847,502.6182693854645
848,502.8698811941799
849,503.12052533062615
850,503.36987236721376
851,503.61759816026876
852,503.8633846737828
853,504.10692073506675
854,504.3479027214249
855,504.58603517893323
856,504.82103137601024
857,505.052613795572
858,505.2805145701155
859,505.50447586419676
860,505.72425020892024
861,505.9396007936562
862,506.1503017211322
863,506.3561382326581
864,506.5569069098832
865,506.752415858071
866,506.94248487402905
867,507.1269456003228
868,507.3056416665844
869,507.47842881842655
870,507.6451750343111
871,507.805760630512
872,507.96007835413974
873,508.10803346413775
874,508.24954380001736
875,508.3845398376411
876,508.51296473062996
877,508.63477433514566
878,508.749937215085
879,508.85843462438663
880,508.96026046344184
881,509.05542120751716
882,509.14393580636664
883,509.2258355554182
884,509.3011639396245
885,509.3699764510904
886,509.4323403811263
887,509.4883345868974
888,509.5380492327533
889,509.58158550670305
890,509.619055313046
891,509.6505809424439
892,509.6762947205864
893,509.6963386362698
894,509.7108639493378
895,509.7200307785592
896,509.72400766926415
897,509.72297114033
