frame_number,force
0,615.4144900049952
1,615.4034182777287
2,615.3923118861019
3,615.3811363128585
4,615.3698573312533
5,615.3584411424472
6,615.3468545066514
7,615.3350648695514
8,615.3230404860653
9,615.3107505426392
10,615.2981652779853
11,615.2852561015416
12,615.2719957091448
13,615.2583581960392
14,615.2443191680827
15,615.2298558525827
16,615.2149472102016
17,615.1995740489612
18,615.1837191412834
19,615.1673673454467
20,615.1505057332072
21,615.1331237250005
22,615.1152132329905
23,615.0967688107304
24,615.0777878071269
25,615.0582705221957
26,615.0382203622697
27,615.0176439921925
28,614.9965514814982
29,614.974956440848
30,614.9528761441115
31,614.930331630732
32,614.9073477830156
33,614.8839533737673
34,614.8601810804694
35,614.8360674624004
36,614.8116528971215
37,614.7869814732153
38,614.7621008370478
39,614.7370619922814
40,614.7119190517953
41,614.6867289428164
42,614.6615510676747
43,614.6364469243838
44,614.6114796924405
45,614.5867137894276
46,614.5622144034734
47,614.538047005919
48,614.5142768480281
49,614.4909684454852
50,614.4681850548636
51,614.445988147051
52,614.4244368832815
53,614.4035875993928
54,614.3834933033131
55,614.36420319047
56,614.3457621826325
57,614.328210497399
58,614.3115832571162
59,614.2959101467559
60,614.2812151302045
61,614.2675162336718
62,614.254825403299
63,614.243148441332
64,614.2324850216627
65,614.2228287818634
66,614.2141674858661
67,614.2064832497405
68,614.1997528227433
69,614.1939479166849
70,614.1890355782621
71,614.1849786007851
72,614.1817359729977
73,614.1792633631119
74,614.1775136359418
75,614.1764374005197
76,614.1759835849924
77,614.1761000349294
78,614.1767341304841
79,614.1778334170459
80,614.1793462430536
81,614.1812223976196
82,614.1834137396153
83,614.1858748087542
84,614.1885634081226
85,614.1914411468887
86,614.1944739318209
87,614.197632396818
88,614.2008922609551
89,614.2042346073171
90,614.2076460766717
91,614.2111189717044
92,614.2146512694517
93,614.2182465420913
94,614.2219137891797
95,614.225667187096
96,614.2295257632663
97,614.2335130036589
98,614.237656402263
99,614.2419869609043
100,614.2465386469977
101,614.2513478162774
102,614.2564526076984
103,614.2618923184087
104,614.2677067673044
105,614.2739356559003
106,614.2806179353576
107,614.2877911886374
108,614.2954910367789
109,614.3037505781687
110,614.3125998694005
111,614.3220654558327
112,614.3321699592327
113,614.3429317290874
114,614.3543645631138
115,614.3664775009013
116,614.3792746924814
117,614.3927553417775
118,614.4069137241794
119,614.4217392777392
120,614.4372167675739
121,614.4533265222179
122,614.4700447389627
123,614.4873438529975
124,614.5051929626319
125,614.523558300454
126,614.5424037387064
127,614.5616913169044
128,614.5813817805451
129,614.6014351210572
130,614.6218111085775
131,614.6424698105874
132,614.6633720906557
133,614.6844800822388
134,614.7057576328128
135,614.7271707139122
136,614.7486877928503
137,614.7702801617621
138,614.7919222194549
139,614.8135917023071
140,614.8352698624069
141,614.8569415932318
142,614.8785955039872
143,614.9002239430123
144,614.9218229695925
145,614.9433922733582
146,614.964935041602
147,614.9864577768868
148,615.0079700693866
149,615.029484329618
150,615.0510154871398
151,615.0725806597601
152,615.0941987967835
153,615.115890299743
154,615.1376766249267
155,615.1595798732635
156,615.181622374064
157,615.203826269252
158,615.2262131038711
159,615.2488034270284
160,615.2716164056759
161,615.29466945236
162,615.3179778673983
163,615.3415544955498
164,615.3654093968547
165,615.389549531016
166,615.4139784546381
167,615.4386960308266
168,615.463698151168
169,615.4889764712686
170,615.5145181629307
171,615.5403056882068
172,615.566316602123
173,615.5925233912443
174,615.6188933545691
175,615.6453885321131
176,615.6719656855984
177,615.6985763349176
178,615.7251668528186
179,615.7516786182113
180,615.7780482265341
181,615.8042077550263
182,615.8300850816921
183,615.8556042580042
184,615.8806859357861
185,615.9052478481527
186,615.929205343284
187,615.9524719682248
188,615.9749600977061
189,615.9965816006044
190,616.0172485348215
191,616.03687386044
192,616.0553721607957
193,616.0726603613263
194,616.0886584364579
195,616.1032900953581
196,616.1164834382449
197,616.1281715760458
198,616.1382932070329
199,616.1467931441996
200,616.1536227869275
201,616.1587405306263
202,616.1621121087808
203,616.1637108629847
204,616.1635179379113
205,616.1615223995931
206,616.1577212766183
207,616.1521195247395
208,616.1447299160322
209,616.1355728541622
210,616.124676117617
211,616.1120745332285
212,616.0978095833151
213,616.0819289512931
214,616.0644860124005
215,616.0455392780362
216,616.0251518037579
217,616.0033905717981
218,615.9803258590224
219,615.9560306010094
220,615.9305797628285
221,615.9040497271176
222,615.8765177097143
223,615.8480612118516
224,615.8187575158897
225,615.7886832292271
226,615.7579138787416
227,615.7265235561413
228,615.694584613239
229,615.6621674056754
230,615.629340084157
231,615.596168433565
232,615.5627157611875
233,615.5290428346761
234,615.4952078683441
235,615.4612665545127
236,615.4272721357331
237,615.3932755135411
238,615.3593253891364
239,615.3254684308048
240,615.2917494623262
241,615.2582116661757
242,615.2248967946995
243,615.1918453816271
244,615.1590969458701
245,615.1266901801017
246,615.0946631180558
247,615.0630532761894
248,615.0318977666153
249,615.0012333789413
250,614.971096629437
251,614.9415237771523
252,614.9125508076896
253,614.8842133856778
254,614.8565467768051
255,614.8295857402861
256,614.8033643929691
257,614.7779160463209
258,614.7532730168664
259,614.7294664098703
260,614.7065258760937
261,614.6844793427864
262,614.6633527222388
263,614.6431696032904
264,614.6239509325303
265,614.6057146924744
266,614.5884755842601
267,614.5722447229848
268,614.5570293548808
269,614.5428326065331
270,614.529653276621
271,614.5174856799944
272,614.5063195524456
273,614.496140022474
274,614.4869276538847
275,614.4786585606896
276,614.4713045939003
277,614.4648335983017
278,614.4592097357346
279,614.4543938695499
280,614.4503440028993
281,614.4470157614672
282,614.4443629089695
283,614.4423378813815
284,614.4408923242476
285,614.4399776175131
286,614.4395453740408
287,614.4395479002741
288,614.4399386093415
289,614.4406723782294
290,614.4417058424361
291,614.4429976247125
292,614.4445084990043
293,614.4462014954177
294,614.4480419556504
295,614.4499975504101
296,614.4520382709125
297,614.4541364057416
298,614.4562665122689
299,614.458405389067
300,614.4605320533927
301,614.4626277266848
302,614.4646758309825
303,614.4666619993925
304,614.4685741035029
305,614.4704022997963
306,614.4721390957989
307,614.4737794353526
308,614.4753208014868
309,614.4767633348438
310,614.47810996491
311,614.479366550229
312,614.4805420227073
313,614.4816485302143
314,614.4827015707374
315,614.4837201105327
316,614.4847266785888
317,614.4857474305995
318,614.4868121771626
319,614.4879543723536
320,614.4892110596386
321,614.4906227722664
322,614.4922333852063
323,614.4940899159974
324,614.4962422730148
325,614.4987429513701
326,614.5016466779498
327,614.5050100073711
328,614.5088908706089
329,614.5133480790291
330,614.5184407889406
331,614.5242279346263
332,614.5307676400068
333,614.5381166201715
334,614.5463295841856
335,614.5554586502273
336,614.56555278357
337,614.576657267213
338,614.5888132139411
339,614.6020571272758
340,614.6164205174066
341,614.6319295770456
342,614.6486049212622
343,614.6664613943873
344,614.6855079457573
345,614.7057475744399
346,614.7271773413588
347,614.7497884455347
348,614.7735663597017
349,614.798491019638
350,614.8245370612867
351,614.8516741001324
352,614.8798670483062
353,614.9090764662284
354,614.9392589467225
355,614.9703675300976
356,615.0023521488564
357,615.0351601006179
358,615.0687365474603
359,615.1030250390248
360,615.1379680553446
361,615.1735075635494
362,615.2095855807034
363,615.2461447336376
364,615.2831288060723
365,615.3204832633967
366,615.3581557457394
367,615.3960965203679
368,615.4342588853254
369,615.4725995179135
370,615.5110787639268
371,615.5496608656009
372,615.5883141274227
373,615.6270110198088
374,615.6657282222027
375,615.7044466095358
376,615.7431511884703
377,615.7818309915331
378,615.8204789377857
379,615.8590916678726
380,615.8976693594676
381,615.9362155270409
382,615.9747368081904
383,616.0132427375629
384,616.0517455083328
385,616.090259720163
386,616.1288021115499
387,616.1673912734861
388,616.2060473405697
389,616.2447916554817
390,616.2836464036261
391,616.322634216797
392,616.3617777476165
393,616.401099219668
394,616.4406199612401
395,616.48035993293
396,616.5203372605798
397,616.5605677849962
398,616.6010646389352
399,616.641837860502
400,616.6828940508201
401,616.724236082634
402,616.7658628652687
403,616.8077691698006
404,616.84994551617
405,616.892378121371
406,616.9350489052408
407,616.9779355482747
408,617.0210115948508
409,617.0642465954596
410,617.1076062824914
411,617.1510527748458
412,617.1945448067031
413,617.2380379757839
414,617.2814850069693
415,617.3248360283096
416,617.3680388576739
417,617.4110392990557
418,617.4537814476017
419,617.496208001888
420,617.5382605811074
421,617.5798800440692
422,617.6210068064399
423,617.661581152246
424,617.701543535057
425,617.7408348636627
426,617.7793967670411
427,617.8171718343544
428,617.8541038274664
429,617.8901378655258
430,617.9252205829252
431,617.959300263209
432,617.9923269523255
433,618.0242525549315
434,618.0550309171116
435,618.0846178978887
436,618.1129714307127
437,618.1400515754233
438,618.1658205614784
439,618.1902428242066
440,618.2132850366196
441,618.2349161392485
442,618.2551073695208
443,618.2738322907937
444,618.2910668199268
445,618.3067892518555
446,618.3209802803184
447,618.3336230152565
448,618.3447029985118
449,618.3542082196259
450,618.3621291329853
451,618.3684586768826
452,618.3731922948404
453,618.3763279598395
454,618.3778662023823
455,618.3778101430903
456,618.3761655299274
457,618.3729407794902
458,618.368147021048
459,618.3617981408897
460,618.3539108234139
461,618.3445045851581
462,618.3336017991303
463,618.3212277088234
464,618.3074104329568
465,618.2921809624797
466,618.2755731508144
467,618.2576236975076
468,618.2383721251941
469,618.2178607502009
470,618.1961346477156
471,618.1732416125793
472,618.1492321163872
473,618.1241592610775
474,618.0980787288125
475,618.0710487276123
476,618.043129931751
477,618.0143854153381
478,617.9848805768478
479,617.9546830517882
480,617.9238626103598
481,617.8924910368294
482,617.8606419874014
483,617.8283908237488
484,617.7958144202503
485,617.762990944355
486,617.7299996109459
487,617.6969204127172
488,617.6638338292158
489,617.6308205172177
490,617.5979609844682
491,617.565335247971
492,617.5330224777704
493,617.5011006278793
494,617.4696460569457
495,617.4387331413395
496,617.4084338824345
497,617.3788175089877
498,617.3499500756915
499,617.321894060069
500,617.2947079611685
501,617.2684459047922
502,617.2431572613419
503,617.2188862832668
504,617.195671768936
505,617.1735467586187
506,617.1525382667924
507,617.1326670537875
508,617.1139474389729
509,617.0963871572345
510,617.079987260356
511,617.0647420650483
512,617.0506391496161
513,617.0376594011835
514,617.025777114642
515,617.0149601429094
516,617.0051700960065
517,616.9963625845952
518,616.988487502748
519,616.9814893450485
520,616.9753075541191
521,616.9698768953757
522,616.9651278557958
523,616.960987063101
524,616.9573777216365
525,616.9542200616045
526,616.951431799147
527,616.9489286059484
528,616.9466245881964
529,616.9444327753911
530,616.9422656193224
531,616.9400355027267
532,616.9376552561743
533,616.9350386811304
534,616.932101076914
535,616.928759769041
536,616.9249346359436
537,616.9205486305517
538,616.9155282931906
539,616.9098042528163
540,616.9033117144259
541,616.8959909307937
542,616.88778765571
543,616.8786535734664
544,616.8685466964635
545,616.8574317209614
546,616.8452803307811
547,616.8320714397937
548,616.8177913658664
549,616.802433931631
550,616.7860004910749
551,616.7684998848429
552,616.7499483299707
553,616.7303692505545
554,616.7097930547507
555,616.6882568615332
556,616.6658041788737
557,616.6424845341362
558,616.6183530576426
559,616.5934700212385
560,616.5679003348056
561,616.5417130047769
562,616.5149805595281
563,616.4877784466125
564,616.4601844062606
565,616.4322778251919
566,616.4041390753999
567,616.3758488441432
568,616.347487463046
569,616.319134245075
570,616.2908668380469
571,616.2627606028724
572,616.2348880246504
573,616.2073181650055
574,616.1801161641179
575,616.1533428002502
576,616.1270541132567
577,616.1013010971841
578,616.0761294662965
579,616.0515794986103
580,616.0276859605196
581,616.0044781145883
582,615.9819798098794
583,615.9602096506273
584,615.9391812354689
585,615.9189034567983
586,615.8993808484411
587,615.8806139693085
588,615.8625998105646
589,615.8453322143247
590,615.8288022932783
591,615.812998842631
592,615.7979087377939
593,615.7835173129141
594,615.7698087164449
595,615.7567662403766
596,615.7443726197057
597,615.7326102987488
598,615.7214616613912
599,615.7109092233144
600,615.7009357854247
601,615.6915245487991
602,615.6826591921404
603,615.6743239129834
604,615.6665034340883
605,615.6591829770007
606,615.652348205607
607,615.6459851433107
608,615.6400800678407
609,615.6346193876475
610,615.6295895034599
611,615.6249766580573
612,615.6207667768938
613,615.6169453022942
614,615.6134970246842
615,615.6104059153423
616,615.6076549659947
617,615.60522604107
618,615.6030997486699
619,615.6012553362135
620,615.5996706161928
621,615.5983219266429
622,615.597184129831
623,615.596230651183
624,615.5954335586122
625,615.5947636805454
626,615.5941907593185
627,615.5936836352274
628,615.5932104555185
629,615.592738902505
630,615.5922364361193
631,615.5916705481387
632,615.5910090270793
633,615.5902202334776
634,615.5892733847759
635,615.5881388477386
636,615.5867884348827
637,615.585195700078
638,615.58333622727
639,615.5811879052776
640,615.5787311809297
641,615.5759492823722
642,615.5728284042764
643,615.5693578473625
644,615.5655301064693
645,615.5613409041758
646,615.5567891701301
647,615.5518769691266
648,615.5466093833339
649,615.5409943556739
650,615.535042501876
651,615.5287668980676
652,615.5221828493603
653,615.5153076434424
654,615.5081602921556
655,615.5007612634312
656,615.4931322054916
657,615.4852956646982
658,615.4772747980844
659,615.4690930818583
660,615.4607740180267
661,615.4523408423413
662,615.4438162376349
663,615.4352220572343
664,615.4265790635613
665,615.41790668702
666,615.4092228095166
667,615.4005435754624
668,615.3918832312784
669,615.383253992773
670,615.374665938658
671,615.366126927999
672,615.3576425396102
673,615.3492160323617
674,615.3408483268264
675,615.3325380100248
676,615.3242813655874
677,615.3160724312928
678,615.3079030851293
679,615.2997631605108
680,615.2916405912713
681,615.2835215868689
682,615.2753908371466
683,615.2672317441367
684,615.2590266764606
685,615.2507572404375
686,615.2424045614441
687,615.233949569602
688,615.2253732853828
689,615.2166571026706
690,615.2077830683372
691,615.1987341577503
692,615.1894945447059
693,615.1800498626205
694,615.1703874522084
695,615.1604965897284
696,615.1503686893881
697,615.1399974737407
698,615.1293791068073
699,615.1185122859106
700,615.1073982894463
701,615.0960409788254
702,615.0844467536648
703,615.0726244603608
704,615.0605852556396
705,615.0483424281321
706,615.0359111819486
707,615.0233083868453
708,615.0105523004058
709,614.9976622685472
710,614.9846584109463
711,614.9715612977009
712,614.9583916234765
713,614.9451698861942
714,614.9319160787442
715,614.9186494032922
716,614.9053880176082
717,614.8921488216056
718,614.8789472906909
719,614.8657973609048
720,614.8527113690863
721,614.8397000494784
722,614.8267725866589
723,614.8139367235934
724,614.8011989227946
725,614.7885645777144
726,614.7760382704906
727,614.7636240711144
728,614.751325872156
729,614.739147752343
730,614.727094361346
731,614.7151713173201
732,614.7033856085841
733,614.6917459915
734,614.6802633776999
735,614.6689512046515
736,614.6578257838796
737,614.6469066210847
738,614.636216702365
739,614.6257827410379
740,614.6156353801082
741,614.6058093460331
742,614.5963435501419
743,614.5872811351365
744,614.5786694654344
745,614.5705600611558
746,614.5630084758927
747,614.5560741182519
748,614.5498200171327
749,614.5443125311165
750,614.5396210031186
751,614.5358173622637
752,614.5329756755481
753,614.5311716521073
754,614.5304821028622
755,614.5309843581864
756,614.5327556463423
757,614.5358724358424
758,614.5404097456815
759,614.5464404286679
760,614.5540344349046
761,614.5632580645703
762,614.5741732211183
763,614.5868366773923
764,614.6012993675221
765,614.6176057167991
766,614.6357930207589
767,614.6558908840921
768,614.67792072961
769,614.7018953866077
770,614.7278187663115
771,614.755685630081
772,614.7854814540523
773,614.8171823919902
774,614.8507553359653
775,614.8861580720862
776,614.9233395264943
777,614.9622400958978
778,615.0027920570337
779,615.0449200498539
780,615.0885416292634
781,615.133567879704
782,615.1799040860602
783,615.2274504537685
784,615.2761028708101
785,615.3257537041834
786,615.3762926230787
787,615.4276074403373
788,615.4795849630825
789,615.5321118427602
790,615.5850754141824
791,615.6383645125288
792,615.6918702567029
793,615.7454867872078
794,615.7991119470663
795,615.8526478952627
796,615.9060016434952
797,615.9590855085855
798,616.011817474972
799,616.0641214642682
800,616.1159275112494
801,616.1671718473449
802,616.2177968943962
803,616.2677511740027
804,616.3169891409134
805,616.3654709515029
806,616.4131621798281
807,616.4600334944622
808,616.5060603095155
809,616.5512224228437
810,616.5955036532206
811,616.6388914861423
812,616.6813767351096
813,616.722953222253
814,616.7636174796204
815,616.8033684706174
816,616.8422073299513
817,616.8801371199261
818,616.9171626008566
819,616.9532900133537
820,616.9885268699527
821,617.022881752962
822,617.056364114873
823,617.088984077595
824,617.1207522271034
825,617.1516794006351
826,617.1817764645319
827,617.2110540822863
828,617.2395224738689
829,617.2671911685468
830,617.294068754327
831,617.3201626283491
832,617.3454787539948
833,617.3700214316359
834,617.3937930900732
835,617.4167941044851
836,617.4390226445784
837,617.4604745545374
838,617.4811432648684
839,617.5010197354526
840,617.5200924290591
841,617.5383473151759
842,617.5557679050446
843,617.5723353195647
844,617.5880283915628
845,617.6028238027588
846,617.6166962544377
847,617.629618670224
848,617.6415624293767
849,617.6524976289519
850,617.6623933727042
851,617.6712180839795
852,617.6789398391437
853,617.685526716952
854,617.6909471578088
855,617.6951703258292
856,617.6981664665423
857,617.6999072539213
858,617.7003661219478
859,617.6995185778534
860,617.6973424959222
861,617.693818391448
862,617.6889296740655
863,617.6826628791881
864,617.6750078765601
865,617.6659580558176
866,617.655510489766
867,617.6436660765091
868,617.6304296617208
869,617.615810142333
870,617.5998205525408
871,617.582478132223
872,617.5638043768457
873,617.5438250670591
874,617.522570275832
875,617.5000743511475
876,617.4763758727654
877,617.4515175819945
878,617.4255462834341
879,617.3985127171537
880,617.370471399165
881,617.3414804278849
882,617.3116012548451
883,617.2808984188404
884,617.2494392436065
885,617.2172934997996
886,617.1845330327645
887,617.1512313587036
888,617.1174632332518
889,617.0833041974436
890,617.0488301061403
891,617.014116643537
892,616.9792388301044
893,616.9442705256189
894,616.9092839337293
895,616.8743491143706
896,616.8395335108773
897,616.8049014987463
898,616.7705139629078
899,616.7364279101819
900,616.7026961230395
901,616.6693668595414
902,616.6364836026004
903,616.6040848601157
904,616.5722040163913
905,616.5408692346118
906,616.5101034101837
907,616.4799241754412
908,616.4503439567899
909,616.4213700848327
910,616.3930049562043
911,616.3652462434918
912,616.3380871477433
913,616.3115166870338
914,616.2855200139445
915,616.260078754064
916,616.2351713567989
917,616.2107734494975
