frame_number,force
0,616.2576900000444
1,616.1164273250884
2,615.9782523698389
3,615.846189407078
4,615.723174471369
5,615.6120814226829
6,615.5157680307765
7,615.4370814096022
8,615.3787728772838
9,615.3433162178245
10,615.3326681383104
11,615.3480326540742
12,615.3896873800451
13,615.4569011509568
14,615.5479300728975
15,615.6600502241811
16,615.789594615507
17,615.9320014268595
18,616.0819135015626
19,616.2333732109872
20,616.3801404570511
21,616.5161342567699
22,616.6359573977529
23,616.735420071388
24,616.8119620840406
25,616.8648987300455
26,616.8954650873682
27,616.9066799444951
28,616.903076963681
29,616.8903516844291
30,616.8749539528567
31,616.8636316702757
32,616.8629198077675
33,616.8785769234169
34,616.9149991704189
35,616.9746821872375
36,617.0578411125931
37,617.1623123386495
38,617.283817973215
39,617.416576685853
40,617.5541396790129
41,617.6902731629839
42,617.8197176653757
43,617.9387108911103
44,618.0452342764901
45,618.1390067781442
46,618.2212813766417
47,618.2944951046954
48,618.3618064010012
49,618.4265591449969
50,618.4917435341188
51,618.5595475968662
52,618.6310843593981
53,618.7063397136249
54,618.7843295739209
55,618.863405451247
56,618.9416286765867
57,619.0171452420923
58,619.0885135765682
59,619.1549503872718
60,619.2164667653296
61,619.2738786756369
62,619.3286984091849
63,619.382936176549
64,619.4388461665719
65,619.4986396195262
66,619.5641790006896
67,619.6366737038308
68,619.7164087906216
69,619.8025432955525
70,619.8930185723651
71,619.9846250201543
72,620.0732721359843
73,620.1544704497137
74,620.2239681031043
75,620.2784223207137
76,620.3159603089927
77,620.336506505134
78,620.3418123282107
79,620.3351977759431
80,620.3210779889934
81,620.3043849440503
82,620.289995199212
83,620.2822432358677
84,620.2845591606828
85,620.2992424623764
86,620.3273690720323
87,620.3688132776076
88,620.4223488386707
89,620.4857831817636
90,620.5560785549939
91,620.6294320442777
92,620.7013285546786
93,620.7666267359451
94,620.8197511561609
95,620.8550362549938
96,620.8672200456755
97,620.8520343605582
98,620.8067947217187
99,620.7308798673384
100,620.626018506493
101,620.496343090371
102,620.3481982025313
103,620.1897034494519
104,620.0300821822659
105,619.8787918704919
106,619.7445343220802
107,619.6342690068267
108,619.5523741524252
109,619.5000876182097
110,619.4753240122272
111,619.4729211523512
112,619.4853205364587
113,619.5036216064368
114,619.5188633654094
115,619.5233057422441
116,619.5114545887707
117,619.4806275230517
118,619.43097950243
119,619.3650507579449
120,619.2870127692847
121,619.2018332860699
122,619.1145504111006
123,619.0297602916252
124,618.9513246115281
125,618.8822361470211
126,618.824568109258
127,618.7794650699562
128,618.7471697614234
129,618.7270896871079
130,618.7178965021826
131,618.717645844252
132,618.7239170758563
133,618.7339890659498
134,618.7450715604155
135,618.7545947272799
136,618.7605275178972
137,618.761660865608
138,618.7577727086373
139,618.7496071590219
140,618.738650091164
141,618.7267415395816
142,618.7156016067075
143,618.7063554984856
144,618.6991422600769
145,618.6928941456913
146,618.6853667352107
147,618.6734576867345
148,618.6537719445555
149,618.6233087074303
150,618.5801037398727
151,618.5236748506477
152,618.4551729946099
153,618.3772139025807
154,618.2934407147922
155,618.2079307726141
156,618.1245866864331
157,618.0466336333993
158,617.97630043275
159,617.9147168726205
160,617.8620198349917
161,617.8176209114483
162,617.7805551060252
163,617.7498195256176
164,617.7246260627752
165,617.7045193074915
166,617.6893397151533
167,617.6790471406196
168,617.6734635009842
169,617.6720280435184
170,617.6736591839854
171,617.6767726372857
172,617.6794318992365
173,617.6795449220481
174,617.6750140387453
175,617.6637963360481
176,617.6438872964613
177,617.613258730471
178,617.5697802540008
179,617.5111720484393
180,617.4350723877391
181,617.3393103328336
182,617.2224184566579
183,617.0843197186463
184,616.9270306281117
185,616.7551859116288
186,616.5762128186226
187,616.4000390796945
188,616.2382929204678
189,616.1030556716535
190,616.0053474779816
191,615.9536160754739
192,615.952512847222
193,616.0021762830095
194,616.0981316411039
195,616.2317966729706
196,616.3914846567563
197,616.5637292536404
198,616.7347275908795
199,616.8917118002765
200,617.0241020102294
201,617.124340948711
202,617.1883477005675
203,617.2155611056227
204,617.208586297191
205,617.172516264397
206,617.1140579851806
207,617.0406218331833
208,616.9595179931363
209,616.8773530655046
210,616.7996571977051
211,616.7307150207456
212,616.6735299559854
213,616.6298354130937
214,616.6000974073155
215,616.5835201306204
216,616.5781202574468
217,616.5809374993585
218,616.5884037094733
219,616.5968352331685
220,616.60297330624
221,616.6044875540557
222,616.6003730614631
223,616.5911930207839
224,616.5791289321747
225,616.5678031178157
226,616.5618581701474
227,616.5663303417945
228,616.5859221184969
229,616.6243215585924
230,616.6836995694554
231,616.7644498113815
232,616.8651635128524
233,616.9827906455439
234,617.1129349871644
235,617.2502471563981
236,617.3888931177623
237,617.5230678151906
238,617.6475001727711
239,617.7578825566021
240,617.8511699408954
241,617.9257227634309
242,617.9812989507304
243,618.0189265763895
244,618.0407009405099
245,618.0495442337958
246,618.048948722855
247,618.0427081323384
248,618.0346383354635
249,618.0282990398154
250,618.0267376857573
251,618.0322703334162
252,618.0463008480692
253,618.069183447387
254,618.1001600773506
255,618.1374259603322
256,618.1783614420824
257,618.2199133029842
258,618.259045149338
259,618.2931448215007
260,618.3202974945124
261,618.3393918879942
262,618.3500871943388
263,618.3527003714229
264,618.3480700358955
265,618.3374253214191
266,618.3222582648253
267,618.3041913884606
268,618.2848530767582
269,618.2657945739413
270,618.2484709416603
271,618.2342640264477
272,618.2244831064505
273,618.220276346329
274,618.2224340367148
275,618.23113726696
276,618.245757497483
277,618.2648096988449
278,618.2861081334892
279,618.3071044636725
280,618.3253357873998
281,618.3388848061063
282,618.3467495317897
283,618.3490332892535
284,618.346902399984
285,618.3423170170784
286,618.33760197179
287,618.334966268938
288,618.3360876825242
289,618.341848430169
290,618.3522477918434
291,618.3664558914196
292,618.3829459286214
293,618.3996603932778
294,618.414198702663
295,618.42402172233
296,618.4266543747045
297,618.4198612264546
298,618.4017846607401
299,618.3710554466669
300,618.3268947709786
301,618.2692237261547
302,618.1987826208518
303,618.1172367007881
304,618.0272164709476
305,617.932233443507
306,617.8364403544634
307,617.7442575713147
308,617.6599333006847
309,617.5871151398744
310,617.528488506651
311,617.48551708462
312,617.4583173403352
313,617.4456938937071
314,617.4453370236828
315,617.45414724073
316,617.468626532593
317,617.4852739280617
318,617.5009410092575
319,617.5131241153996
320,617.5201753155508
321,617.5214027871232
322,617.5170228356196
323,617.5079393303305
324,617.4953638442221
325,617.4803400830074
326,617.4632818064731
327,617.4436530290936
328,617.4198959000098
329,617.3896498926669
330,617.3502336728129
331,617.2993032721092
332,617.2355628276642
333,617.1593898890087
334,617.0732521367058
335,616.9818262459252
336,616.8917622304355
337,616.8110733959044
338,616.7481994190659
339,616.7108828522089
340,616.705069429357
341,616.7340487418211
342,616.7979920406184
343,616.8939425860173
344,617.0162052260633
345,617.1570019100719
346,617.3072368754346
347,617.4572532542844
348,617.5975308495431
349,617.7193250815689
350,617.8152532482031
351,617.8798077297089
352,617.9097490477499
353,617.904332746304
354,617.8653582798295
355,617.7970703512466
356,617.7059532776956
357,617.6004238993745
358,617.4903852648183
359,617.3866002941154
360,617.2998877482628
361,617.240198687725
362,617.2156717078321
363,617.2317840113489
364,617.290714180158
365,617.3910116474433
366,617.5276336289423
367,617.6923724938573
368,617.8746563973511
369,618.0626554773959
370,618.2445653151389
371,618.4098896203437
372,618.5505329699275
373,618.6615502364435
374,618.7414632770246
375,618.7921208486262
376,618.8181352980778
377,618.8259871733349
378,618.8229459443443
379,618.8159926621978
380,618.8109293336806
381,618.8118130391938
382,618.8207676872149
383,618.8381288128774
384,618.8628053754657
385,618.8927263533649
386,618.925279443361
387,618.957711444554
388,618.987500201692
389,619.0127053896075
390,619.0322759872071
391,619.0462674443642
392,619.0559214750072
393,619.0635871807814
394,619.0724986791554
395,619.0864483554675
396,619.1093950577392
397,619.1450363872353
398,619.1963722074713
399,619.2652934526992
400,619.3522393896508
401,619.4559778614271
402,619.5735714371345
403,619.7005773297611
404,619.8314782570889
405,619.9602768921698
406,620.0811490426155
407,620.1890582065733
408,620.2802641732856
409,620.3526754850171
410,620.4059925998687
411,620.4415942677583
412,620.462162840262
413,620.4711165969219
414,620.471978286474
415,620.4678224222286
416,620.4609043881528
417,620.4525108920631
418,620.4430226628907
419,620.4321601507445
420,620.4193695711763
421,620.4042760338801
422,620.3870942724153
423,620.3688829036716
424,620.351571403508
425,620.3377558602821
426,620.330316331914
427,620.3319409018183
428,620.3446483826483
429,620.3693863706796
430,620.4057541581443
431,620.4518735544025
432,620.5044112756013
433,620.5587429178258
434,620.6092377539316
435,620.64963806915
436,620.6735093508063
437,620.6747427569742
438,620.6480898388074
439,620.5896966902015
440,620.497581334064
441,620.3719749238182
442,620.2154434060162
443,620.0327342803582
444,619.8303462810071
445,619.6158763538426
446,619.3972400894174
447,619.1818856348032
448,618.9761274069924
449,618.7847051991318
450,618.61061793758
451,618.4552048481906
452,618.3183888181704
453,618.1989862726894
454,618.0950165813549
455,618.003976937894
456,617.9230616354279
457,617.8493089147863
458,617.779681597147
459,617.7111292820778
460,617.6407052408423
461,617.5657923262502
462,617.4844354056557
463,617.3957120898756
464,617.3000333128277
465,617.1992728471791
466,617.0966729188475
467,616.9965331988088
468,616.9037383040552
469,616.8232040743021
470,616.7593254126167
471,616.715497351477
472,616.6937663093869
473,616.6946494195238
474,616.7171284951731
475,616.7587863918149
476,616.8160293405305
477,616.884346607922
478,616.9585921798138
479,617.0333064333015
480,617.1031012793169
481,617.163099897332
482,617.2093700005959
483,617.239252636408
484,617.251495506023
485,617.2461553204613
486,617.2243133036569
487,617.1877109038367
488,617.1384281603297
489,617.07869136655
490,617.0108334131488
491,616.9373761530451
492,616.8611812985919
493,616.7856152388797
494,616.7146708745574
495,616.6529785481187
496,616.6056310868908
497,616.5777659368109
498,616.5739063127962
499,616.5971558165378
500,616.6484269206542
501,616.7259142749652
502,616.8249792472947
503,616.9385101241071
504,617.0576996616018
505,617.1730807375756
506,617.2756184514367
507,617.3576806008932
508,617.4137700851111
509,617.4409673386407
510,617.4390798575463
511,617.4105252147127
512,617.3599873228516
513,617.293890371125
514,617.2197374885608
515,617.1453681691399
516,617.0782041272566
517,617.0245712641987
518,616.9891913119038
519,616.9749233784743
520,616.9828041180327
521,617.0123807499805
522,617.0622534227126
523,617.1306736806331
524,617.2160306096737
525,617.3171058019254
526,617.4330566090151
527,617.5631566196702
528,617.7063725297752
529,617.8608886236233
530,618.0236989543316
531,618.1903700488343
532,618.3550447290692
533,618.5107258008615
534,618.6498437773445
535,618.7650576636923
536,618.8501654313839
537,618.9009491873782
538,618.9157846636441
539,618.8959002224935
540,618.8452442548796
541,618.7699891698556
542,618.677759582766
543,618.5767154530076
544,618.4746382850583
545,618.378157743899
546,618.2922226427224
547,618.2198710734282
548,618.162298310399
549,618.1191734002043
550,618.0891289251592
551,618.0703385335205
552,618.0610883404637
553,618.060239669927
554,618.0674899396444
555,618.0833819675894
556,618.1090787377761
557,618.1459773667543
558,618.1952602882168
559,618.2574769651969
560,618.3322262237594
561,618.4179774937029
562,618.5120452956849
563,618.6107218818206
564,618.7095604821624
565,618.8037720202858
566,618.8886668563536
567,618.9600654606589
568,619.0146241564984
569,619.0500590408907
570,619.0652792537106
571,619.0604453296672
572,619.0369571388007
573,618.9973675637198
574,618.9452189794238
575,618.8848031952014
576,618.8208467551937
577,618.7581251092724
578,618.7010203563214
579,618.6530632802699
580,618.616529045859
581,618.5921672897358
582,618.5791354107564
583,618.5751731532438
584,618.5770095430411
585,618.5809374570333
586,618.5834447106375
587,618.5817713001418
588,618.5742802858474
589,618.5605836259142
590,618.5414368776396
591,618.5184802167269
592,618.4939325236953
593,618.4703280138833
594,618.4503306298634
595,618.4366029120731
596,618.4316798218148
597,618.4378151872125
598,618.456804087385
599,618.4898014893724
600,618.5371462364202
601,618.5981855815211
602,618.6711027755903
603,618.7527729505657
604,618.8386912329204
605,618.9230216839408
606,618.998805966189
607,619.0583529175118
608,619.0938140908711
609,619.0979334567996
610,619.0649252191456
611,618.9913764602807
612,618.8770139470962
613,618.7251523730912
614,618.5426753476862
615,618.3394841999825
616,618.1274571910382
617,617.9190649718273
618,617.725865118436
619,617.5571286760666
620,617.4188205339061
621,617.3130733996279
622,617.2381963115639
623,617.1891735732042
624,617.1585496741695
625,617.1375637097002
626,617.1173935052285
627,617.0903779307913
628,617.051081270839
629,616.9970534380078
630,616.9291663646026
631,616.8514891523024
632,616.7707597721427
633,616.695561466193
634,616.6353108006823
635,616.5991492473707
636,616.594833707674
637,616.627745955331
638,616.7001609499549
639,616.8108965904179
640,616.9554053073757
641,617.1262859211297
642,617.3141234921263
643,617.5085218637017
644,617.6991805420176
645,617.8768785461707
646,618.0342529225834
647,618.1662912605017
648,618.2704969061803
649,618.3467371255421
650,618.3968414572278
651,618.4240593525816
652,618.4324934172378
653,618.4265950598075
654,618.4107626609555
655,618.3890452491358
656,618.3649404617623
657,618.3412801123485
658,618.3202064294147
659,618.3032417213863
660,618.2914371650722
661,618.2855610149021
662,618.2862684336868
663,618.2941954306771
664,618.3099403540442
665,618.3339311511265
666,618.3662101119609
667,618.4061846515023
668,618.4523920764495
669,618.5023261656953
670,618.5523854415877
671,618.5980071243375
672,618.6340192328382
673,618.6551854817122
674,618.6568694509745
675,618.6357230824528
676,618.5903034771496
677,618.5215339489653
678,618.4329426006204
679,618.3306235608702
680,618.2228750464271
681,618.1194937779624
682,618.030759700242
683,617.9662188639866
684,617.9334395965167
685,617.9369470631607
686,617.9775169846107
687,618.0519447114971
688,618.1533324376031
689,618.2718684672082
690,618.3959989567055
691,618.5138156686987
692,618.6144336052266
693,618.6891432632603
694,618.7321912290779
695,618.7411310719444
696,618.7167564422293
697,618.6626733494883
698,618.58460234093
699,618.4895289312557
700,618.3848324871734
701,618.2775095421042
702,618.1735696204172
703,618.0776358589437
704,617.9927440263639
705,617.9203072962969
706,617.8602057799233
707,617.8109744186052
708,617.7700857444298
709,617.734325816799
710,617.7002331221987
711,617.6645348111589
712,617.6245001770087
713,617.5781460169767
714,617.5242679280577
715,617.462326066499
716,617.3922628233412
717,617.3143487624044
718,617.229131873785
719,617.1375109645326
720,617.040888541699
721,616.9413158678619
722,616.8415475348984
723,616.7449658032546
724,616.6553847559979
725,616.5767755172654
726,616.5129584237873
727,616.4672981353732
728,616.4424355112191
729,616.4400992905352
730,616.4610383176451
731,616.5050853960817
732,616.571320436151
733,616.6582673741847
734,616.7640505239394
735,616.8864565931484
736,617.0228917973367
737,617.1702676796227
738,617.3248761454249
739,617.4823217009756
740,617.6375669254958
741,617.785116474475
742,617.9193331380186
743,618.0348665218542
744,618.1271704729442
745,618.1930615458831
746,618.2312269697434
747,618.2425610019334
748,618.2302233705196
749,618.1993715565951
750,618.1565978027884
751,618.1091737283008
752,618.0642424052833
753,618.0280872472773
754,618.0055647069606
755,617.9997432041108
756,618.0117613754007
757,618.0409021252425
758,618.084862735852
759,618.1401770173261
760,618.202719056212
761,618.2682064071004
762,618.332633938543
763,618.3926022878164
764,618.4455401574592
765,618.4898377407715
766,618.5248988300408
767,618.5510938709189
768,618.569586687052
769,618.5820370839318
770,618.5902387338766
771,618.5957950075705
772,618.599927330301
773,618.6034501335394
774,618.6068713148023
775,618.6105345721808
776,618.6147282941982
777,618.6197253200127
778,618.6257594853811
779,618.6329727864093
780,618.641376363636
781,618.6508584359573
782,618.6612484844067
783,618.6724224201321
784,618.684420912135
785,618.697554792273
786,618.7124769672067
787,618.7301977772898
788,618.7520140834063
789,618.779331893876
790,618.8133993047105
791,618.855010216536
792,618.9042569217567
793,618.9603943046009
794,619.021848798333
795,619.086376848672
796,619.1513512020251
797,619.214125925966
798,619.272407395759
799,619.3245502307885
800,619.3697116867345
801,619.4078308719419
802,619.4394400775197
803,619.4653558859964
804,619.4863288117059
805,619.5027409781492
806,619.514425376014
807,619.5206437003303
808,619.5202175797922
809,619.5117721140122
810,619.4940245819281
811,619.4660384588259
812,619.4273758524957
813,619.3781279705495
814,619.3188599351704
815,619.2505279869107
816,619.174399605568
817,619.0919694997704
818,619.0048604973149
819,618.9147252923257
820,618.823185499521
821,618.7318315489425
822,618.6422671939346
823,618.5561462689888
824,618.4751445795637
825,618.4008410974875
826,618.3345319965136
827,618.2770400049491
828,618.2285841444332
829,618.1887377202643
830,618.156456243912
831,618.1301400508197
832,618.1077142432754
833,618.0867351015095
834,618.0645430032757
835,618.0384730660363
836,618.0061162252965
837,617.9656079389027
838,617.9159159143844
839,617.8570994390344
840,617.7905113030569
841,617.7189010394021
842,617.6463616627714
843,617.5780639468292
844,617.5197619471819
845,617.4771228949008
846,617.4549977014137
847,617.4567689596898
848,617.4838841216906
849,617.5356243386678
850,617.6091040442195
851,617.6994648083803
852,617.8002269994267
853,617.903781515876
854,618.0020129271078
855,618.0870235380938
856,618.151881050513
857,618.1912702765975
858,618.2019232212568
859,618.1827458100857
860,618.1346435222789
861,618.0601375054881
862,617.9629102821596
863,617.8474001220789
864,617.7184946697661
865,617.5813014601487
866,617.4409306373167
867,617.3022298578193
868,617.169458210481
869,617.0459452536994
870,616.9338161139193
871,616.8338570235768
872,616.7455553534174
873,616.6672966025742
874,616.5966623559199
875,616.5307588477583
876,616.4665126334377
877,616.4008938653809
878,616.3310619965888
879,616.254457259433
880,616.1688692062232
881,616.0725000882959
882,615.9640176020655
883,615.8425759819247
884,615.7077892807522
885,615.5596615201177
886,615.3984957391153
887,615.2248031276874
888,615.0392193513162
889,614.8424245538217
890,614.6350650864129
891,614.4176820140749
892,614.1906545415452
893,613.9541687730641
894,613.7082311387832
895,613.4527516135528
896,613.1877041878995
897,612.9133346299784
898,612.6303610858871
899,612.3401228099092
900,612.0446611529537
901,611.7467360688843
902,611.4497778061283
903,611.1577542043856
904,610.8749190200056
905,610.6054183691832
906,610.3527777821844
907,610.1193519722233
908,609.9058589249353
909,609.7111151702932
910,609.5320433023736
911,609.3639632001798
912,609.2011319265789
913,609.0374672189894
914,608.8673621408831
915,608.6864726383349
916,608.4923551857089
917,608.2848601811813
