frame_number,force
0,821.0733000068396
1,821.076653807954
2,821.0798860102155
3,821.0828761815812
4,821.0855062072011
5,821.0876614077129
6,821.0892316110429
7,821.0901121646092
8,821.0902048760303
9,821.0894188719009
10,821.087671366298
11,821.0848883334492
12,821.0810050820763
13,821.0759667317078
14,821.0697285931836
15,821.0622564565044
16,821.0535267892903
17,821.0435268486906
18,821.0322547088865
19,821.0197192058563
20,821.0059398012879
21,820.990946368579
22,820.9747789054956
23,820.9574871797096
24,820.9391303145483
25,820.9197763224486
26,820.8995015927308
27,820.8783903386735
28,820.8565340072041
29,820.8340306534026
30,820.8109842815549
31,820.78750415442
32,820.7637040726307
33,820.7397016268679
34,820.7156174268362
35,820.6915743128109
36,820.6676965566675
37,820.6441090589917
38,820.6209365476461
39,820.5983027826479
40,820.5763297734134
41,820.5551370165745
42,820.5348407640239
43,820.5155533307465
44,820.4973824507048
45,820.4804306872061
46,820.46479490209
47,820.4505657859551
48,820.437827450151
49,820.4266570809218
50,820.4171246565597
51,820.4092927287563
52,820.4032162686414
53,820.3989425761376
54,820.3965112490946
55,820.3959542075409
56,820.3972957687853
57,820.4005527700566
58,820.4057347355806
59,820.4128440841578
60,820.4218763722369
61,820.4328205669585
62,820.4456593437852
63,820.4603694038564
64,820.4769218068033
65,820.4952823150098
66,820.5154117449766
67,820.5372663209447
68,820.5607980259591
69,820.5859549463406
70,820.6126816067507
71,820.6409192943551
72,820.6706063719677
73,820.7016785812566
74,820.7340693377471
75,820.7677100193404
76,820.802530249358
77,820.8384581737897
78,820.8754207310005
79,820.9133439113967
80,820.9521530045924
81,820.9917728319971
82,821.0321279631981
83,821.0731429150995
84,821.1147423335605
85,821.1568511583281
86,821.1993947733868
87,821.242299146377
88,821.2854909620609
89,821.3288977554321
90,821.3724480497289
91,821.4160715033597
92,821.4596990677593
93,821.5032631557327
94,821.5466978175316
95,821.5899389205023
96,821.6329243279943
97,821.6755940740358
98,821.7178905316074
99,821.7597585737522
100,821.8011457276777
101,821.8420023220959
102,821.8822816274618
103,821.9219399879861
104,821.9609369437547
105,821.9992353411373
106,822.0368014294744
107,822.0736049415827
108,822.1096191553513
109,822.144820934051
110,822.1791907437685
111,822.2127126473911
112,822.2453742759567
113,822.2771667797683
114,822.3080847627762
115,822.3381262038026
116,822.3672923672253
117,822.3955877041499
118,822.4230197435402
119,822.4495989719871
120,822.4753387012121
121,822.50025492372
122,822.5243661584676
123,822.5476932890872
124,822.5702593966843
125,822.5920895879789
126,822.6132108184818
127,822.6336517098102
128,822.6534423598641
129,822.6726141441153
130,822.6911995057744
131,822.7092317322056
132,822.7267447146994
133,822.7437726889608
134,822.7603499550553
135,822.7765105781177
136,822.7922880738572
137,822.8077150847364
138,822.8228230535518
139,822.8376419015716
140,822.8521997188175
141,822.8665224744112
142,822.8806337548214
143,822.8945545371314
144,822.908303003009
145,822.921894396924
146,822.935340929762
147,822.9486517269539
148,822.9618328188639
149,822.9748871699893
150,822.9878147418405
151,823.0006125821408
152,823.0132749310241
153,823.0257933340877
154,823.0381567529197
155,823.0503516659105
156,823.062362155045
157,823.0741699770216
158,823.0857546189856
159,823.0970933404301
160,823.1081612034773
161,823.1189310936979
162,823.1293737330573
163,823.1394576860883
164,823.149149360293
165,823.1584130017568
166,823.1672106868903
167,823.1755023113897
168,823.1832455781336
169,823.1903959864061
170,823.1969068251555
171,823.2027291730095
172,823.2078119079189
173,823.2121017300215
174,823.2155432027222
175,823.2180788184041
176,823.2196490955388
177,823.2201927128247
178,823.2196466840091
179,823.2179465751552
180,823.2150267646196
181,823.210820744928
182,823.2052614650553
183,823.1982817111926
184,823.18981452343
185,823.179793644549
186,823.1681539954703
187,823.1548321702135
188,823.1397669417885
189,823.122899769381
190,823.1041752968645
191,823.0835418334318
192,823.0609518089462
193,823.0363621987935
194,823.0097349145292
195,822.9810371570043
196,822.9502417284182
197,822.917327299614
198,822.8822786290025
199,822.8450867293304
200,822.8057489779661
201,822.764269166096
202,822.7206574830108
203,822.6749304337385
204,822.6271106914538
205,822.5772268899092
206,822.5253133646996
207,822.4714098543805
208,822.4155611729734
209,822.3578168649799
210,822.2982308535546
211,822.2368610920422
212,822.1737692280993
213,822.1090202879124
214,822.042682385903
215,821.9748264632494
216,821.9055260567039
217,821.8348570977123
218,821.762897740773
219,821.6897282192756
220,821.6154307266861
221,821.5400893208927
222,821.4637898495401
223,821.3866198938895
224,821.3086687281735
225,821.2300272910799
226,821.1507881661304
227,821.0710455680943
228,820.9908953325557
229,820.910434904861
230,820.8297633229165
231,820.7489811863073
232,820.6681906028488
233,820.587495103589
234,820.5069995185
235,820.4268098073269
236,820.3470328429559
237,820.26777614782
238,820.1891475867096
239,820.1112550214939
240,820.0342059347189
241,819.9581070297718
242,819.8830638149451
243,819.8091801772521
244,819.7365579498513
245,819.6652964752656
246,819.5954921655116
247,819.5272380597615
248,819.4606233802189
249,819.395733087388
250,819.3326474364004
251,819.2714415362484
252,819.212184913929
253,819.1549410859291
254,819.0997671400883
255,819.0467133315291
256,818.9958226971333
257,818.9471306939413
258,818.9006648674716
259,818.8564445558228
260,818.8144806342754
261,818.7747753032752
262,818.7373219207806
263,818.702104878693
264,818.6690995229294
265,818.6382721176398
266,818.6095798554484
267,818.5829709165939
268,818.5583845801632
269,818.5357513904739
270,818.5149933812861
271,818.4960243599729
272,818.4787502529365
273,818.4630695123599
274,818.4488735830639
275,818.4360474272055
276,818.4244701041744
277,818.4140154033742
278,818.4045525282287
279,818.3959468300643
280,818.3880605901579
281,818.3807538473909
282,818.3738852678111
283,818.367313050933
284,818.3608958658612
285,818.3544938085457
286,818.3479693698897
287,818.3411884031923
288,818.3340210788352
289,818.3263428144624
290,818.3180351700486
291,818.3089866986528
292,818.2990937445395
293,818.2882611803452
294,818.2764030745578
295,818.2634432809073
296,818.2493159429505
297,818.2339659097948
298,818.2173490617041
299,818.199432546703
300,818.1801949309939
301,818.1596262670198
302,818.1377280833764
303,818.1145133005026
304,818.0900060751835
305,818.0642415758138
306,818.0372656897343
307,818.0091346641957
308,817.9799146835594
309,817.9496813866035
310,817.9185193282794
311,817.8865213895375
312,817.8537881376172
313,817.8204271386822
314,817.7865522253421
315,817.7522827230542
316,817.7177426409123
317,817.6830598333291
318,817.6483651393967
319,817.6137915065561
320,817.5794731050667
321,817.5455444396545
322,817.5121394643763
323,817.4793907062309
324,817.4474284029744
325,817.4163796612652
326,817.3863676424534
327,817.3575107846901
328,817.3299220712968
329,817.303708356109
330,817.2789697562423
331,817.2557991212032
332,817.2342815849213
333,817.2144942047705
334,817.1965056894829
335,817.1803762161392
336,817.1661573348275
337,817.1538919575058
338,817.1436144249983
339,817.1353506438027
340,817.1291182835386
341,817.1249270265433
342,817.1227788624756
343,817.1226684218815
344,817.1245833432232
345,817.128504668232
346,817.1344072609918
347,817.1422602467746
348,817.1520274669173
349,817.1636679457536
350,817.1771363651336
351,817.1923835418687
352,817.2093569038983
353,817.2280009619568
354,817.2482577744938
355,817.2700674039829
356,817.293368362463
357,817.3180980438949
358,817.3441931416999
359,817.371590051859
360,817.4002252640306
361,817.4300357440196
362,817.460959310633
363,817.4929350094556
364,817.5259034860112
365,817.559807360846
366,817.5945916087483
367,817.6302039435266
368,817.6665952087228
369,817.7037197734592
370,817.7415359312241
371,817.780006298038
372,817.8190982056974
373,817.8587840860683
374,817.899041843222
375,817.939855210796
376,817.9812140920494
377,818.0231148799448
378,818.0655607543503
379,818.1085619527653
380,818.1521360096426
381,818.196307957745
382,818.2411104838037
383,818.2865840302719
384,818.332776834806
385,818.3797448989119
386,818.4275518772649
387,818.476268880229
388,818.5259741844212
389,818.5767528494524
390,818.6286962421202
391,818.6819014713268
392,818.7364707375202
393,818.792510600065
394,818.8501311654704
395,818.9094451994681
396,818.9705671669589
397,819.0336122060257
398,819.098695045044
399,819.1659288743895
400,819.235424185858
401,819.3072875939683
402,819.3816206541187
403,819.4585186928806
404,819.5380696652857
405,819.620353053051
406,819.7054388168003
407,819.7933864147979
408,819.8842439005479
409,819.9780471115357
410,820.0748189609673
411,820.174568843322
412,820.2772921628793
413,820.38296999228
414,820.4915688660154
415,820.6030407117547
416,820.717322920503
417,820.834338554487
418,820.9539966895233
419,821.0761928869446
420,821.2008097892182
421,821.3277178329782
422,821.4567760728594
423,821.5878331090294
424,821.7207281106465
425,821.8552919265558
426,821.9913482732696
427,822.1287149887465
428,822.2672053389124
429,822.4066293622348
430,822.5467952358829
431,822.6875106455361
432,822.82858414041
433,822.9698264556142
434,823.1110517850487
435,823.2520789896065
436,823.3927327279188
437,823.5328445003703
438,823.6722536010403
439,823.8108079758521
440,823.9483649878812
441,824.0847920919958
442,824.2199674206399
443,824.3537802812499
444,824.4861315645959
445,824.6169340630736
446,824.7461126986616
447,824.8736046612321
448,824.9993594585385
449,825.1233388795256
450,825.2455168732098
451,825.3658793465651
452,825.4844238863162
453,825.6011594106052
454,825.7161057566925
455,825.8292932102
456,825.9407619804372
457,826.0505616259934
458,826.1587504354753
459,826.2653947693791
460,826.3705683695438
461,826.4743516421723
462,826.5768309195375
463,826.6780977047716
464,826.7782479037447
465,826.8773810478111
466,826.9755995109442
467,827.0730077244236
468,827.1697113918335
469,827.2658167067062
470,827.3614295748015
471,827.4566548427354
472,827.5515955344024
473,827.6463520964844
474,827.7410216547681
475,827.8356972843616
476,827.9304672990246
477,828.0254145671528
478,828.1206158639831
479,828.2161412710765
480,828.3120536348928
481,828.4084080958917
482,828.5052516978521
483,828.6026230844336
484,828.700552287429
485,828.7990606091524
486,828.8981605995044
487,828.9978561259451
488,829.0981425321978
489,829.1990068796252
490,829.300428264058
491,829.4023782002013
492,829.5048210655107
493,829.607714595758
494,829.7110104252117
495,829.8146546647961
496,829.918588511262
497,830.0227488793702
498,830.1270690477907
499,830.2314793083166
500,830.3359076074034
501,830.4402801690911
502,830.5445220889885
503,830.6485578903741
504,830.7523120356907
505,830.855709389476
506,830.9586756315987
507,831.061137622259
508,831.1630237226113
509,831.2642640770164
510,831.3647908643381
511,831.4645385255251
512,831.5634439727081
513,831.6614467821693
514,831.7584893711842
515,831.8545171577724
516,831.9494787029297
517,832.0433258366321
518,832.1360137708032
519,832.2275012032651
520,832.3177504159111
521,832.4067273685299
522,832.4944017879094
523,832.5807472507915
524,832.6657412592722
525,832.7493653079957
526,832.8316049432482
527,832.9124498143805
528,832.9918937182671
529,833.0699346380837
530,833.1465747781762
531,833.2218205963267
532,833.2956828328618
533,833.3681765331388
534,833.4393210570499
535,833.5091400675996
536,833.5776614912314
537,833.6449174451499
538,833.7109441300853
539,833.7757816893719
540,833.8394740361649
541,833.9020686503151
542,833.9636163453309
543,834.0241710046433
544,834.0837892858327
545,834.1425302920705
546,834.2004552113945
547,834.2576269256507
548,834.3141095915084
549,834.3699681963038
550,834.425268092438
551,834.480074515763
552,834.5344520948912
553,834.5884643587473
554,834.6421732489802
555,834.6956386427612
556,834.7489178903646
557,834.802065370736
558,834.8551320672564
559,834.9081651656383
560,834.9612076766183
561,835.0142980875817
562,835.0674700487003
563,835.1207520997995
564,835.1741674440382
565,835.2277337742132
566,835.2814631572559
567,835.3353619818146
568,835.3894309723638
569,835.4436652711272
570,835.4980545864707
571,835.5525834036303
572,835.6072312511401
573,835.6619730146327
574,835.716779289082
575,835.7716167607847
576,835.8264486104371
577,835.8812349277467
578,835.9359331266269
579,835.9904983495135
580,836.0448838504736
581,836.0990413490775
582,836.1529213495173
583,836.2064734216648
584,836.2596464426823
585,836.3123887996816
586,836.3646485559323
587,836.4163735851281
588,836.4675116796454
589,836.518010638986
590,836.5678183437278
591,836.6168828189928
592,836.6651522904223
593,836.7125752353998
594,836.7591004325634
595,836.8046770127975
596,836.8492545144251
597,836.8927829446478
598,836.9352128490617
599,836.9764953911106
600,837.0165824426839
601,837.0554266853958
602,837.0929817201769
603,837.1292021815663
604,837.1640438526408
605,837.1974637767323
606,837.229420363003
607,837.2598734843692
608,837.288784567364
609,837.3161166736344
610,837.3418345718859
611,837.3659047976242
612,837.3882956965814
613,837.4089774466868
614,837.4279220529849
615,837.4451033100833
616,837.4604967277727
617,837.4740794176374
618,837.4858299416818
619,837.4957281276656
620,837.5037548590167
621,837.5098918490396
622,837.5141214096058
623,837.5164262241734
624,837.516789134487
625,837.5151929497691
626,837.511620286322
627,837.506053443865
628,837.4984743227656
629,837.4888643841587
630,837.4772046535543
631,837.4634757682264
632,837.4476580689422
633,837.4297317363927
634,837.4096769715243
635,837.3874742171582
636,837.363104416297
637,837.3365493008259
638,837.3077917032274
639,837.2768158832752
640,837.2436078610313
641,837.208155746915
642,837.1704500597986
643,837.1304840252631
644,837.0882538479046
645,837.0437589532277
646,836.9970021958019
647,836.9479900309933
648,836.8967326479838
649,836.8432440621198
650,836.787542164728
651,836.7296487284303
652,836.669589366088
653,836.607393442276
654,836.543093937582
655,836.4767272675588
656,836.4083330593354
657,836.337953889713
658,836.2656349893966
659,836.1914239189954
660,836.1153702234196
661,836.0375250718819
662,835.9579408905167
663,835.8766709935512
664,835.7937692173508
665,835.7092895603
666,835.6232858309953
667,835.5358113076749
668,835.446918412496
669,835.3566584044667
670,835.2650810944532
671,835.1722345852858
672,835.0781650399293
673,834.982916480657
674,834.88653062166
675,834.7890467365082
676,834.6905015606056
677,834.5909292276164
678,834.4903612379856
679,834.3888264573462
680,834.2863511429289
681,834.1829589970484
682,834.0786712479613
683,833.9735067591184
684,833.8674821673943
685,833.7606120493535
686,833.6529091129373
687,833.54438441105
688,833.4350475738064
689,833.3249070575787
690,833.2139704108354
691,833.1022445580105
692,832.9897361025235
693,832.8764516488368
694,832.7623981420953
695,832.6475832233123
696,832.5320155982885
697,832.4157054187074
698,832.2986646731931
699,832.1809075844592
700,832.0624510067913
701,831.943314816656
702,831.823522288223
703,831.7031004448928
704,831.5820803777269
705,831.4604975221823
706,831.3383918857166
707,831.2158082206031
708,831.092796138419
709,830.9694101645115
710,830.845709731832
711,830.7217591141899
712,830.5976273002292
713,830.473387811822
714,830.3491184733414
715,830.2249011399721
716,830.1008213931681
717,829.9769682101589
718,829.8534336128765
719,829.7303123003195
720,829.607701267402
721,829.4856994127379
722,829.3644071375187
723,829.2439259377891
724,829.1243579930623
725,829.0058057548971
726,828.8883715390376
727,828.7721571238596
728,828.6572633565569
729,828.5437897670748
730,828.4318341885075
731,828.3214923820987
732,828.2128576655971
733,828.106020545039
734,828.0010683512044
735,827.8980848827637
736,827.7971500585028
737,827.6983395808645
738,827.6017246125492
739,827.5073714677188
740,827.4153413196675
741,827.3256899271107
742,827.2384673811645
743,827.1537178750142
744,827.0714794986998
745,826.9917840623061
746,826.9146569516691
747,826.8401170208105
748,826.7681765242324
749,826.6988410901564
750,826.6321097336767
751,826.5679749075127
752,826.50642258791
753,826.4474323938999
754,826.3909777390095
755,826.3370260153578
756,826.2855388108743
757,826.2364721606381
758,826.1897768324291
759,826.1453986446165
760,826.1032788123647
761,826.0633543167318
762,826.0255582909268
763,825.9898204187308
764,825.9560673413113
765,825.9242230692807
766,825.8942093962194
767,825.8659463085718
768,825.8393523859063
769,825.8143451852801
770,825.7908416034004
771,825.7687582102292
772,825.7480115481255
773,825.7285183920072
774,825.7101959683887
775,825.6929621343097
776,825.6767355205267
777,825.6614356458268
778,825.6469830101561
779,825.6332991735792
780,825.6203068267696
781,825.6079298574908
782,825.5960934165556
783,825.5847239860789
784,825.5737494528005
785,825.5630991898174
786,825.5527041504179
787,825.5424969770094
788,825.5324121265538
789,825.5223860122484
790,825.5123571596793
791,825.5022663741781
792,825.4920569149516
793,825.4816746714287
794,825.4710683381662
795,825.4601895854735
796,825.4489932227506
797,825.437437350595
798,825.4254834968757
799,825.4130967317619
800,825.4002457573296
801,825.3869029688832
802,825.3730444871767
803,825.358650162615
804,825.3437035538484
805,825.3281918840995
806,825.312105979487
807,825.2954401946033
808,825.2781923314429
809,825.260363558117
810,825.2419583333934
811,825.2229843419391
812,825.2034524433562
813,825.1833766359296
814,825.1627740338131
815,825.1416648543739
816,825.1200724104151
817,825.0980230999207
818,825.0755463846303
819,825.052674749461
820,825.0294436378564
821,825.0058913623534
822,824.9820589930664
823,824.9579902281932
824,824.9337312500868
825,824.90933056885
826,824.8848388537388
827,824.8603087515994
828,824.83579469145
829,824.8113526747572
830,824.7870400510901
831,824.7629152780838
832,824.7390376632146
833,824.7154670835589
834,824.6922636794667
835,824.6694875193418
836,824.6471982352551
837,824.6254546324138
838,824.6043142788133
839,824.5838330837905
840,824.5640648751632
841,824.5450609843315
842,824.5268698474805
843,824.5095366292305
844,824.4931028731781
845,824.4776061821279
846,824.4630799295321
847,824.449553002723
848,824.4370495781113
849,824.4255889288856
850,824.4151852667056
851,824.4058476197504
852,824.3975797494954
853,824.3903801075348
854,824.3842418321082
855,824.3791527827872
856,824.3750956118301
857,824.3720478717398
858,824.369982159315
859,824.3688662960718
860,824.3686635435562
861,824.369332850766
862,824.3708291303827
863,824.3731035606822
864,824.37610391025
865,824.3797748827009
866,824.3840584788355
867,824.3888943743709
868,824.3942203122837
869,824.3999725092873
870,824.4060860757993
871,824.4124954481532
872,824.4191348312463
873,824.4259386495975
874,824.4328420049957
875,824.439781139344
876,824.4466939016364
877,824.4535202178646
878,824.460202561746
879,824.466686422572
880,824.4729207647531
881,824.4788584725233
882,824.4844567729598
883,824.4896776307393
884,824.4944881085917
885,824.4988606880021
886,824.50277354499
887,824.5062107757869
888,824.5091625675404
889,824.5116253100986
890,824.5136016461893
891,824.5151004586608
892,824.516136794782
893,824.5167317285768
894,824.5169121623862
895,824.516710568498
896,824.5161646714242
897,824.5153170718119
898,824.514214814164
899,824.5129089022089
900,824.5114537671848
901,824.5099066948958
902,824.5083272171365
903,824.5067764728019
904,824.5053165448282
905,824.5040097814598
906,824.5029181132635
907,824.5021023791934
908,824.5016216750504
909,824.5015327362707
910,824.501889364928
911,824.5027419087522
912,824.5041367982494
913,824.5061161466203
914,824.5087174159615
915,824.5119731521343
916,824.5159107898072
917,824.5205525286984
918,824.5259152818497
