frame_number,force
0,830.4749800000272
1,831.0687683060462
2,831.6386497702657
3,832.1628386311525
4,832.6234823295028
5,833.0079270040261
6,833.3093114346018
7,833.5264836769966
8,833.6633402279878
9,833.727767205417
10,833.7303982683712
11,833.6833815445302
12,833.5992817371916
13,833.4901735899545
14,833.3669432305819
15,833.2388032936801
16,833.1130171391277
17,832.9948011022672
18,832.8873512748023
19,832.7919496744521
20,832.7081369635198
21,832.6339620255911
22,832.5663170951648
23,832.5013543202118
24,832.4349663790881
25,832.3632933034318
26,832.2831920253394
27,832.1925965320398
28,832.0907157263979
29,831.9780467535966
30,831.8562082194624
31,831.7276238286637
32,831.5951169128136
33,831.4615011060818
34,831.3292565967482
35,831.2003536263162
36,831.076228577117
37,830.9578592471751
38,830.8458609123106
39,830.7405492002639
40,830.6419690046234
41,830.5499301734475
42,830.464094166552
43,830.3841263134705
44,830.3098870244646
45,830.2416022089945
46,830.1799455874034
47,830.125989224465
48,830.0810172738946
49,830.0462342519085
50,830.0224332687563
51,830.0097164899813
52,830.0073529960265
53,830.0138035347871
54,830.026868835791
55,830.0438801320976
56,830.061864295115
57,830.0776531070294
58,830.087935504397
59,830.089269463383
60,830.0780876735927
61,830.0507520822815
62,830.0037249901046
63,829.9339068038345
64,829.839131507333
65,829.7187294002683
66,829.5740072518103
67,829.4084969073765
68,829.2278832734011
69,829.0396047547985
70,828.8521865035676
71,828.6744035652994
72,828.5143831368714
73,828.3787600546784
74,828.272002865467
75,828.196011379957
76,828.1500358973826
77,828.1309016447824
78,828.133472848559
79,828.1512682962282
80,828.1771311611205
81,828.2038591680391
82,828.2247273611446
83,828.2338761756012
84,828.2265683565397
85,828.1993337563456
86,828.1500328441574
87,828.0778763738676
88,827.9834269178997
89,827.8685823627665
90,827.7365216777222
91,827.5915880581962
92,827.4390911458163
93,827.2850265902299
94,827.1357319413831
95,826.9975089278156
96,826.87623573006
97,826.776978218015
98,826.7036028545095
99,826.6584036621904
100,826.6417772053281
101,826.6520029212116
102,826.6852000100795
103,826.7355277104821
104,826.7956663713469
105,826.8575569772944
106,826.9132961788092
107,826.9560163874959
108,826.9805646596745
109,826.9838450741905
110,826.9647910988862
111,826.9240442162962
112,826.8634803002824
113,826.7857207601674
114,826.6937158293542
115,826.5904404391548
116,826.4787229701955
117,826.3612175375658
118,826.2405043887337
119,826.1192624585767
120,826.0004312877826
121,825.8872844190248
122,825.783367753348
123,825.6923004494619
124,825.6174791263171
125,825.5617556710209
126,825.5271666539262
127,825.5147764862694
128,825.5246622220193
129,825.5560259886768
130,825.6073842138513
131,825.676765845419
132,825.7618655026643
133,825.860134198368
134,825.9688262033706
135,826.0850393306008
136,826.2057875120157
137,826.3281341610573
138,826.4493942146711
139,826.5673830334314
140,826.6806597582315
141,826.7886987188886
142,826.8919372735096
143,826.9916833654866
144,827.0899004886743
145,827.1889107456243
146,827.2910679354724
147,827.3984488278363
148,827.5125916959262
149,827.6342932556782
150,827.7634768520896
151,827.8991612950216
152,828.0395667440639
153,828.1823728532883
154,828.3251006109131
155,828.4655476175606
156,828.6021874355877
157,828.7344515203001
158,828.8628433297234
159,828.9888784167838
160,829.1148818638709
161,829.2436889996189
162,829.3782890163993
163,829.521436661917
164,829.6752437246274
165,829.8407577305188
166,830.0175510924373
167,830.2033800824108
168,830.3940096215715
169,830.5833076482138
170,830.7636702427835
171,830.9267515853385
172,831.0643790534795
173,831.1694753075144
174,831.2368066282885
175,831.2634304702653
176,831.2488044231823
177,831.1946037285878
178,831.1043450177167
179,830.9829287187943
180,830.836202770092
181,830.6706210493578
182,830.4930215860933
183,830.3104900830551
184,830.1302286260956
185,829.9593452636539
186,829.8045182137682
187,829.6715432080598
188,829.5648223173513
189,829.486891699978
190,829.4381067103845
191,829.4165907603874
192,829.4185040363867
193,829.4386151536427
194,829.4710893785682
195,829.5103610115241
196,829.5519414346827
197,829.5930272877251
198,829.6328107177944
199,829.6724462855097
200,829.7146862422512
201,829.7632497348219
202,829.8220352157738
203,829.8943114827006
204,829.982025684637
205,830.0853449754803
206,830.2025069976532
207,830.3300042428832
208,830.4630780399766
209,830.5964478895231
210,830.7251504077894
211,830.8453280441671
212,830.9548170895966
213,831.053442376043
214,831.1430096838352
215,831.22705909392
216,831.3104744632172
217,831.3990346176997
218,831.4989605063794
219,831.6164770326404
220,831.7573774102054
221,831.9265621767548
222,832.1275389298778
223,832.3619142847277
224,832.6289630010391
225,832.9253889432085
226,833.245382382083
227,833.581027086896
228,833.9230289183575
229,834.2616540553066
230,834.587714803471
231,834.8934377496141
232,835.1730862204323
233,835.4232782520642
234,835.6430243873615
235,835.8335709731812
236,835.9981486872388
237,836.1416988079852
238,836.2706045636809
239,836.392412453404
240,836.515500708545
241,836.6486448057389
242,836.8004472776656
243,836.9786402218666
244,837.1893211769611
245,837.436226374498
246,837.7201635463116
247,838.0387132285776
248,838.3862694146492
249,838.7544434232217
250,839.132810893644
251,839.5099397794296
252,839.8745914668223
253,840.2169417152849
254,840.5296400571054
255,840.8085372315041
256,841.0529692057697
257,841.2655772875278
258,841.4517348760018
259,841.6187130642035
260,841.7747331017924
261,841.9280306902054
262,842.0860235231875
263,842.2546493752873
264,842.4379218156632
265,842.6377245825526
266,842.8538375189313
267,843.0841623768927
268,843.3250953415503
269,843.5719785503077
270,843.819563459957
271,844.0624340353778
272,844.2953584304414
273,844.5135582932646
274,844.7129034401728
275,844.890054649361
276,845.0425842497069
277,845.1690950191968
278,845.2693328300637
279,845.344266170857
280,845.3961017165129
281,845.4282088662783
282,845.4449245108755
283,845.4512155639047
284,845.4522080617085
285,845.4526362712131
286,845.4562956480707
287,845.4655855447791
288,845.4812054027643
289,845.5020342692887
290,845.5251926435113
291,845.5462674002068
292,845.5596707783296
293,845.5590928688797
294,845.537995275273
295,845.4900940734864
296,845.4097967729425
297,845.2925816003695
298,845.1353288807013
299,844.9366267514631
300,844.6970655325861
301,844.4195007548315
302,844.1092215083643
303,843.7739368100544
304,843.423499184983
305,843.0693196668973
306,842.7234927894652
307,842.397730642165
308,842.1022635011459
309,841.8448729074515
310,841.630189720393
311,841.459336436431
312,841.3299342397975
313,841.2364442293735
314,841.1707794305
315,841.1231062702154
316,841.0827428621427
317,841.039056509613
318,840.9822673834936
319,840.9040801189502
320,840.7980929606489
321,840.6599750219143
322,840.4874430994736
323,840.2800938167684
324,840.0391518866527
325,839.7671894726705
326,839.4678611826606
327,839.1456835437401
328,838.8058645933709
329,838.454162027682
330,838.0967300189163
331,837.7399205474718
332,837.3900383761669
333,837.0530911539475
334,836.7345921550481
335,836.4394410040024
336,836.1718517937514
337,835.9352684646143
338,835.732222541519
339,835.5641274532568
340,835.4310473929801
341,835.3315167213015
342,835.2624983995347
343,835.2195417817903
344,835.1971447682762
345,835.189271690596
346,835.189943034479
347,835.1937988886589
348,835.1965482059768
349,835.1952524189992
350,835.1884391879182
351,835.1760727298719
352,835.1594100233984
353,835.1407622171055
354,835.123176633207
355,835.1100590949541
356,835.10476222792
357,835.1101699926136
358,835.1283101329408
359,835.1600236041885
360,835.204719758193
361,835.2602528814274
362,835.322959094597
363,835.3878757336469
364,835.449127206474
365,835.5004218492185
366,835.5355848057081
367,835.549055516459
368,835.5362941892743
369,835.494066242644
370,835.4206131215623
371,835.3157587840157
372,835.181004726227
373,835.0196151998565
374,834.8366262521299
375,834.6386862360207
376,834.4336749929868
377,834.2301262737138
378,834.036539508304
379,833.860676302378
380,833.7089066058838
381,833.5856433913134
382,833.4929031960951
383,833.4300342178906
384,833.3936477675416
385,833.3777796603887
386,833.3742991884303
387,833.3735660737054
388,833.3653079233486
389,833.3396556813062
390,833.2882325173284
391,833.2051514299695
392,833.087761213056
393,832.9370063154652
394,832.7573337836133
395,832.5561737862862
396,832.343103965324
397,832.1288450315735
398,831.9242209315613
399,831.7391806359165
400,831.5819467170916
401,831.4583311267693
402,831.3712386607062
403,831.3203730490427
404,831.3021717511721
405,831.3100036513919
406,831.3346516701612
407,831.3650754829089
408,831.389418041302
409,831.3961807479714
410,831.3754457002608
411,831.3199833883334
412,831.2260685791516
413,831.093852036343
414,830.9272134556979
415,830.7331406716518
416,830.5207941378891
417,830.3004657819226
418,830.0826076176958
419,829.8770222391217
420,829.6922284050509
421,829.5349722171171
422,829.4098499560595
423,829.3190296634792
424,829.2620878827084
425,829.2359982821149
426,829.2353082337593
427,829.2525165626716
428,829.278630281943
429,829.3038447205035
430,829.3182708127543
431,829.3126284903193
432,829.2788379554937
433,829.2104762287211
434,829.103113673746
435,828.9545661930764
436,828.7650717508225
437,828.5373558020716
438,828.2765350453228
439,827.9898349322036
440,827.6861421332962
441,827.3754439302296
442,827.068201601502
443,826.7746817852876
444,826.504263684694
445,826.2647595703122
446,826.0618120364509
447,825.8984464131023
448,825.7748545387755
449,825.6884632713271
450,825.6342942499886
451,825.6055569217916
452,825.5943630190924
453,825.59244457565
454,825.5918058267804
455,825.5853035706475
456,825.5671808026451
457,825.5335550459638
458,825.4828096901639
459,825.4158009797043
460,825.3358045070943
461,825.2481697720497
462,825.1596965089188
463,825.0777812988788
464,825.0094224753493
465,824.9602222200234
466,824.9335645562819
467,824.9301416375836
468,824.9479320081401
469,824.9826220685336
470,825.0283519069933
471,825.0786055323355
472,825.1270691487376
473,825.168328117775
474,825.1983322934439
475,825.2146132222418
476,825.2162781397906
477,825.2038291721627
478,825.1788630155831
479,825.1437068718692
480,825.1010464971926
481,825.0535943698527
482,825.0038222392418
483,824.9537521637078
484,824.9047843845183
485,824.8575482211047
486,824.8117829938076
487,824.7662735036247
488,824.7188709904767
489,824.6666234283148
490,824.6060168538987
491,824.5332998179797
492,824.4448428173001
493,824.337481434117
494,824.2088002310554
495,824.0573291167867
496,823.8826424393656
497,823.6853665058683
498,823.4671080382783
499,823.2303204111129
500,822.9781358348519
501,822.7142044213341
502,822.4425776139557
503,822.1676462752239
504,821.8941052751791
505,821.6268904090746
506,821.3710397884922
507,821.1314685390288
508,820.9126866738637
509,820.7185117571556
510,820.5518287892754
511,820.4144372820986
512,820.3070015311539
513,820.2290875045201
514,820.1792439567083
515,820.1550870864899
516,820.1533814276809
517,820.1701519120239
518,820.2008796347844
519,820.240810228675
520,820.285353743026
521,820.3305112854941
522,820.3732493426478
523,820.4117591102315
524,820.4455712690208
525,820.4755251114133
526,820.5035997602747
527,820.5326102806899
528,820.5657758798483
529,820.6061984780293
530,820.656336539445
531,820.7175843287152
532,820.7900431708283
533,820.872511971957
534,820.9626694950744
535,821.0573975054867
536,821.1531990966648
537,821.2466804770067
538,821.3350648916413
539,821.4166844328794
540,821.4913648123504
541,821.5606094856547
542,821.6275186982922
543,821.6964349885642
544,821.7723648232012
545,821.860268252789
546,821.9643284682439
547,822.087309708732
548,822.2300867759263
549,822.3913932419691
550,822.5678058840261
551,822.7539652469553
552,822.9430142849019
553,823.1272134660356
554,823.2986737384929
555,823.4501433875251
556,823.5757767073491
557,823.6717923895553
558,823.7369145580133
559,823.7725076614605
560,823.7823744044993
561,823.7722554771656
562,823.7491141268613
563,823.7202990743493
564,823.6926769767582
565,823.6718264491475
566,823.6613830382984
567,823.6626107472474
568,823.6742566088212
569,823.6927244305941
570,823.7125734916598
571,823.7272995427815
572,823.7302960629235
573,823.7158446077859
574,823.6799662733022
575,823.6209900707643
576,823.5397496587179
577,823.4393908835126
578,823.3248428492601
579,823.202059523669
580,823.0771650538317
581,822.9556325956914
582,822.8416042232453
583,822.7374315371152
584,822.6434872341025
585,822.5582613963079
586,822.4787107201333
587,822.400788669645
588,822.3200670781703
589,822.2323632332881
590,822.134296525875
591,822.0237124771608
592,821.8999389954828
593,821.7638807835253
594,821.6179927368646
595,821.4661748167105
596,821.3135926586949
597,821.1663756569615
598,821.0311196991485
599,820.9141551796208
600,820.8206263947442
601,820.7535252117328
602,820.7128819752376
603,820.6953116066394
604,820.6940452162806
605,820.6994771310514
606,820.7001612853163
607,820.6841203837685
608,820.640289198149
609,820.5599003483977
610,820.4376373734102
611,820.2724179192976
612,820.067718081058
613,819.8314019432735
614,819.575075914578
615,819.3130402282771
616,819.0609516272941
617,818.834336023612
618,818.6470990255423
619,818.510178519281
620,818.4304675989395
621,818.4101110196399
622,818.4462494379724
623,818.53125553513
624,818.6534691868318
625,818.7983832724425
626,818.950157123527
627,819.0932652120694
628,819.2140568266036
629,819.3020233946152
630,819.3506332030875
631,819.3576714386717
632,819.3250943401194
633,819.2584646764345
634,819.1660827535495
635,819.0579564227323
636,818.94475487276
637,818.8368601179749
638,818.7435749007016
639,818.6724896609959
640,818.6289858131639
641,818.6158697496086
642,818.6331668972437
643,818.678122984324
644,818.7454503230371
645,818.8278286358842
646,818.916629678813
647,819.0027928932772
648,819.0777525331052
649,819.1343104197662
650,819.1673511634609
651,819.1743050371651
652,819.1552924793783
653,819.112938238272
654,819.051901002959
655,818.9782037385545
656,818.8984693898594
657,818.8191735707521
658,818.7460218814989
659,818.6835382600749
660,818.6349015482691
661,818.6019935549322
662,818.5855567275818
663,818.585343386008
664,818.6001792035149
665,818.6279323372873
666,818.6654399910051
667,818.7084782871507
668,818.7518692403079
669,818.7898012433683
670,818.8163902681326
671,818.8264289780076
672,818.8161894193242
673,818.7841081859685
674,818.731210807915
675,818.6611979872722
676,818.5801785400093
677,818.4960754027263
678,818.4177631227291
679,818.3540322793868
680,818.3125157351068
681,818.2987379228523
682,818.3154448862531
683,818.3623264624351
684,818.436154150248
685,818.5312592135317
686,818.640212870052
687,818.754570066287
688,818.8655836050317
689,818.9648468406452
690,819.0448541591609
691,819.0994785969535
692,819.12436656557
693,819.1172469763319
694,819.0781477548908
695,819.0095087023677
696,818.9161736386609
697,818.8052327367851
698,818.685675789941
699,818.5678279965723
700,818.4625798935705
701,818.3804752215387
702,818.3307583120555
703,818.320494367159
704,818.3538654335998
705,818.4317178060622
706,818.5514001886445
707,818.7069004992062
708,818.8892757116043
709,819.0873673478922
710,819.288780015575
711,819.4810538243993
712,819.6528949889756
713,819.7952774814315
714,819.9022277524872
715,819.9711670208578
716,820.0027903855389
717,820.0005655265574
718,819.9699973210469
719,819.9178153731125
720,819.8512116849461
721,819.7772074136982
722,819.7021797884098
723,819.631547090803
724,819.5695983376885
725,819.5194589998117
726,819.4831899512104
727,819.4620124912802
728,819.4566342669332
729,819.4676240261432
730,819.4957604573447
731,819.5422754895889
732,819.6089324944274
733,819.6979232282957
734,819.8116152503247
735,819.9522043840481
736,820.1213179457576
737,820.319600820478
738,820.5463218315978
739,820.799055366777
740,821.0735035911808
741,821.3635224125297
742,821.6614028394225
743,821.958430545868
744,822.2456877320103
745,822.5149841674713
746,822.7597476304416
747,822.9756997507427
748,823.16119058669
749,823.3171430341349
750,823.4466448625986
751,823.5542990403046
752,823.6454776627781
753,823.7256137541725
754,823.7996295221931
755,823.8715654947063
756,823.9444422947419
757,824.0203399951587
758,824.1006252362304
759,824.1862237196947
760,824.2778454499268
761,824.3761139695213
762,824.4816008431051
763,824.5947942232751
764,824.716031023886
765,824.8454190607713
766,824.9827811563599
767,825.1276475959613
768,825.2792957403759
769,825.43681613762
770,825.599197125595
771,825.7654413855128
772,825.9347264809314
773,826.1065996272014
774,826.281173962069
775,826.4592800226098
776,826.6425272824416
777,826.8332477213794
778,827.0343186496086
779,827.2488859302365
780,827.4800260852918
781,827.7303911004153
782,828.0018716287562
783,828.2953026314813
784,828.6102314731849
785,828.9447729081638
786,829.2955822755089
787,829.6579778175311
788,830.0262247551694
789,830.3939595363071
790,830.7546996638666
791,831.102370467849
792,831.4317928039283
793,831.7391077357304
794,832.0221427110566
795,832.2807234226514
796,832.5169023274489
797,832.7350341267861
798,832.941615515135
799,833.1448355238088
800,833.3538394975398
801,833.577769513032
802,833.8246902749815
803,834.1005372853899
804,834.408234112659
805,834.7471164253074
806,835.112766818957
807,835.4973044973098
808,835.8900968113264
809,836.2787869607948
810,836.6504891144311
811,836.9930008088636
812,837.2959115003163
813,837.55152208843
814,837.7555171820128
815,837.9073499024553
816,838.0103153374749
817,838.0713055533173
818,838.1002577528665
819,838.1093371919808
820,838.111939890287
821,838.1216310296988
822,838.1511215603148
823,838.211338433897
824,838.3106119507597
825,838.454010663066
826,838.6428723332066
827,838.8745820010137
828,839.142645369436
829,839.4371055696696
830,839.7453310255731
831,840.0531419153012
832,840.3461604143806
833,840.6112069757447
834,840.8375513842902
835,841.01786269351
836,841.1487618062678
837,841.230938287622
838,841.2688425156501
839,841.2700153408565
840,841.2441693726573
841,841.2021685211413
842,841.1550496437875
843,841.113197503189
844,841.0857375602029
845,841.0801624479743
846,841.1021634786393
847,841.1556045278469
848,841.2425638107936
849,841.3633892151561
850,841.5167553047982
851,841.699744920121
852,841.9079844507138
853,842.135847259389
854,842.3767210698937
855,842.6233172306298
856,842.8679875910204
857,843.1030208437993
858,843.3209155465565
859,843.5146523108695
860,843.6779927460403
861,843.8058136810306
862,843.8944521357951
863,843.9420077872298
864,843.9485433074067
865,843.9161417644676
866,843.8488105260012
867,843.752248561652
868,843.6335100918336
869,843.5005955051242
870,843.3619815801222
871,843.2260832579007
872,843.1006432107101
873,842.9920868783935
874,842.9049390595376
875,842.841425428198
876,842.8013486160207
877,842.7822551434967
878,842.7798445871238
879,842.7885426434998
880,842.8021574936786
881,842.8145443697806
882,842.8202079029529
883,842.8147827287629
884,842.7953554702436
885,842.7606150918054
886,842.7108319758979
887,842.6476747826523
888,842.5738916601994
889,842.4929082056698
890,842.4084123235891
891,842.3239920410923
892,842.2428697215381
893,842.1677496015047
894,842.1007756771559
895,842.0435805557975
896,841.997383883219
897,841.9630760439942
898,841.9412180394326
899,841.931912572558
900,841.9345491748242
901,841.9474845915753
902,841.967764129671
903,841.9909917495185
904,842.0114174778205
905,842.0222641424596
906,842.016281797313
907,841.9864830841489
908,841.9269645123318
909,841.8336784905905
910,841.705020757891
911,841.5421423108362
912,841.3489549936452
913,841.1318418592473
914,840.8991018627356
915,840.6601744020152
916,840.4247182197552
917,840.2016541754045
918,839.9983031421214
