frame_number,force
0,621.9758900000493
1,621.5082547428925
2,621.0583787892879
3,620.6424467626204
4,620.2737359717119
5,619.9617084682861
6,619.7116180706483
7,619.5246211678572
8,619.3982848861724
9,619.3273227832005
10,619.3043851937998
11,619.3207868775957
12,619.3671310112188
13,619.4338415258866
14,619.5116228928987
15,619.5918417523367
16,619.6668081304882
17,619.7299519272462
18,619.7759311201108
19,619.800736263776
20,619.8018410681982
21,619.7783919196113
22,619.7313689187359
23,619.6636298046964
24,619.5797719127568
25,619.4857919272823
26,619.3885651639087
27,619.2951933647099
28,619.2122819438952
29,619.1452177453742
30,619.0975416203383
31,619.0705383174911
32,619.0631648287298
33,619.0723759740681
34,619.093790361077
35,619.1225275830509
36,619.1540063779328
37,619.1845418438199
38,619.2116729372755
39,619.2342300511848
40,619.2521878512242
41,619.2663484783841
42,619.2778960176236
43,619.2878846553724
44,619.296766938326
45,619.3040962320532
46,619.308510049128
47,619.3080148486108
48,619.3004868704596
49,619.2842340526211
50,619.2584627191728
51,619.2235449339074
52,619.1810508197091
53,619.1335659722531
54,619.0843448255416
55,619.0368604663475
56,618.9943162400672
57,618.9591914267924
58,618.9328888342013
59,618.9155266928452
60,618.9058829480736
61,618.9014736828112
62,618.8987354243509
63,618.8932851814121
64,618.8802481988417
65,618.8546570958882
66,618.8119235768806
67,618.7483626568325
68,618.6617134843369
69,618.5515647298382
70,618.4195872433266
71,618.2695227734364
72,618.1069479494897
73,617.9388746827808
74,617.7732448951865
75,617.6183588693058
76,617.4822678356503
77,617.3721565872279
78,617.2937354657709
79,617.2506694577405
80,617.2441016803095
81,617.2723525640588
82,617.330867974992
83,617.4124554113973
84,617.5078103291378
85,617.6063054972541
86,617.6969879294574
87,617.7696893061781
88,617.8161100360993
89,617.8307075659219
90,617.8112363892932
91,617.7588597612529
92,617.6778506472157
93,617.5749722067522
94,617.4586525060454
95,617.3380574980653
96,617.222144907817
97,617.1187688402752
98,617.0339129130556
99,616.9711511643759
100,616.9314377302187
101,616.913277172786
102,616.9132374694151
103,616.9266870119878
104,616.9486063266896
105,616.9743392521211
106,617.0001780016881
107,617.0237109761061
108,617.0439065162283
109,617.0609537399076
110,617.0759184245442
111,617.0902948388258
112,617.1055461131269
113,617.1227181799197
114,617.1421807813347
115,617.1635104878164
116,617.1855057138587
117,617.2063109285708
118,617.2236155868055
119,617.2348847254653
120,617.2375800325642
121,617.2293444033464
122,617.2081509842707
123,617.1724520261962
124,617.1213762794803
125,617.0549922149539
126,616.9745901112088
127,616.8828842677935
128,616.7840372325244
129,616.6834585469854
130,616.5873929693616
131,616.5023565664847
132,616.4344997384151
133,616.3889783749431
134,616.3694006697475
135,616.3774000322885
136,616.4123788139333
137,616.471468896183
138,616.549745314175
139,616.640700076867
140,616.7369402041126
141,616.8310218149485
142,616.9162835413765
143,616.9875284664025
144,617.0414477448027
145,617.0767626045716
146,617.094132170517
147,617.0958926763789
148,617.085671249488
149,617.0679058292457
150,617.0473292540298
151,617.0285089255624
152,617.0155278036765
153,617.0118413115674
154,617.0202782310372
155,617.0431057257389
156,617.0820676914865
157,617.138334085376
158,617.2123552873882
159,617.3036732966968
160,617.410769788566
161,617.5310186565064
162,617.6607736172379
163,617.7955855607422
164,617.9305258241836
165,618.0605870151915
166,618.1811250021924
167,618.288286320443
168,618.3793488809931
169,618.4529111603712
170,618.5089025318213
171,618.5484409710579
172,618.5736050589821
173,618.587190296281
174,618.5924858318485
175,618.593064223151
176,618.5925552555734
177,618.5943842483722
178,618.6014818645892
179,618.6159987822475
180,618.6390728316234
181,618.6706940920333
182,618.7097011285717
183,618.7539270888765
184,618.8004976790852
185,618.8462605537579
186,618.8882982740655
187,618.9244500404232
188,618.9537481082835
189,618.9766727505972
190,618.9951548831456
191,619.0123079402055
192,619.0319335940966
193,619.0578964034959
194,619.0934863383535
195,619.1408846120416
196,619.2008236697505
197,619.2724942416262
198,619.3537088764183
199,619.4412860907752
200,619.5315723442823
201,619.6209805709944
202,619.7064164349248
203,619.7854987900797
204,619.8565452761146
205,619.9183622535347
206,619.9699312872779
207,620.0101090615137
208,620.0374444313384
209,620.0501706246013
210,620.0463768961012
211,620.0243238580795
212,619.9828415515863
213,619.9217324721016
214,619.8420933030874
215,619.7464748966116
216,619.6388273179542
217,619.5242252281032
218,619.4084227766629
219,619.2973246603725
220,619.1964677662584
221,619.1105857937214
222,619.0432916898786
223,618.9968827941985
224,618.9722629273567
225,618.9689723129961
226,618.9853055525429
227,619.0184867024808
228,619.064874995815
229,619.1201947087584
230,619.1798016275834
231,619.2390008835969
232,619.2934125991637
233,619.3393534478904
234,619.3741820643917
235,619.3965529660057
236,619.4065339496365
237,619.4055660159044
238,619.3962821548434
239,619.38223087795
240,619.3675475863479
241,619.3565902192117
242,619.3535397757204
243,619.3619796049948
244,619.384494331298
245,619.4223438717511
246,619.475261522743
247,619.541407017272
248,619.6174870838137
249,619.6990431251692
250,619.7808974577987
251,619.857734758628
252,619.9247601217169
253,619.9783262925309
254,620.0163951881557
255,620.0387281110562
256,620.0467810733421
257,620.0433689900229
258,620.0322097963201
259,620.0174597525914
260,620.0033197852972
261,619.9937439989487
262,619.9922343631029
263,620.0016837728857
264,620.0242395522324
265,620.0611822798795
266,620.1128279888728
267,620.1784600996928
268,620.2562936407554
269,620.3434821618874
270,620.436192796019
271,620.5297772878674
272,620.619047698185
273,620.698639583993
274,620.7634310701601
275,620.8089854288284
276,620.8319872632003
277,620.8306389414994
278,620.8049729752346
279,620.7570240269342
280,620.6908023159764
281,620.612026115382
282,620.527605197375
283,620.4449180402427
284,620.3709864235256
285,620.3116952528537
286,620.271199016881
287,620.2515976427024
288,620.2528950731597
289,620.2732120148427
290,620.3092038944772
291,620.3566099060629
292,620.4108318251547
293,620.4674386377951
294,620.5225242411873
295,620.5728951469856
296,620.6161151192223
297,620.6504681039407
298,620.6749023268328
299,620.6889839922021
300,620.6928457586354
301,620.6871013389898
302,620.6727221677716
303,620.650905618758
304,620.622974054448
305,620.5903258786321
306,620.5544310010013
307,620.5168394848907
308,620.4791625612567
309,620.4429969977813
310,620.4097951042793
311,620.3807134561205
312,620.3564820441003
313,620.3373222842491
314,620.3229242728004
315,620.3124809963218
316,620.3047679733925
317,620.2982500458612
318,620.29119430569
319,620.2817687115904
320,620.2681132045772
321,620.2483889356189
322,620.2208331499697
323,620.1838553102259
324,620.1361953030381
325,620.0771294276332
326,620.0066684302421
327,619.9256706059396
328,619.8358128506974
329,619.7394156516714
330,619.6391705962421
331,619.5378397423189
332,619.4379830440171
333,619.3417510232945
334,619.2507804471583
335,619.1662373803364
336,619.0890258056786
337,619.0201106111197
338,618.9608279261394
339,618.9130253391287
340,618.8789210833685
341,618.8606843991238
342,618.8598629224954
343,618.876851059883
344,618.910575711998
345,618.958486278671
346,619.0168177564383
347,619.0810082702384
348,619.1461410838283
349,619.2073392459641
350,619.2601133683261
351,619.3006972247364
352,619.3263927398054
353,619.3359100403776
354,619.329655496539
355,619.3099064775517
356,619.2808228075536
357,619.2482706813767
358,619.2194497058757
359,619.2023129332582
360,619.2047808361666
361,619.2337937383797
362,619.2943086859984
363,619.3883958023237
364,619.5146055811701
365,619.6677541553752
366,619.8392079573358
367,620.0176556451361
368,620.1902618140524
369,620.3440313214401
370,620.4671883315373
371,620.5503905206547
372,620.5876448986852
373,620.576846241498
374,620.5199043582934
375,620.4224601325134
376,620.2932226060029
377,620.1430020378235
378,619.9835678139441
379,619.8265045756013
380,619.6822401640936
381,619.55935804936
382,619.4642124520716
383,619.4007909913747
384,619.3707478658865
385,619.3735462094562
386,619.4066751591237
387,619.4659325807206
388,619.5457771666092
389,619.6397432118922
390,619.740889554486
391,619.8422463637738
392,619.9372343718418
393,620.0200438227417
394,620.085962285543
395,620.1316322051616
396,620.155212037302
397,620.1564244384349
398,620.1364993354398
399,620.0980355567993
400,620.0448002969009
401,619.9814753033826
402,619.9133542103049
403,619.8459915835581
404,619.7848007303404
405,619.7346074880651
406,619.6991921238008
407,619.6808704343057
408,619.6801679985646
409,619.6956441911359
410,619.7239315145011
411,619.7600478388362
412,619.7979952703942
413,619.8315921492512
414,619.8554196266808
415,619.8657176610329
416,619.8610507896739
417,619.8425990826025
418,619.8140136009735
419,619.7808733529141
420,619.749849070457
421,619.7277064563132
422,619.7202892137597
423,619.7316289763847
424,619.763324994113
425,619.8142996018287
426,619.8809666695664
427,619.9577701089222
428,620.0379781860183
429,620.1145768159026
430,620.1811083813033
431,620.2323449368611
432,620.2647387236581
433,620.2766393564227
434,620.2682978064219
435,620.2416874122491
436,620.2001698987567
437,620.148039821098
438,620.0899991893491
439,620.030630240612
440,619.9739384197405
441,619.9230304450423
442,619.879969758759
443,619.8458131423782
444,619.8207950218716
445,619.8046045101499
446,619.7966905564979
447,619.7965294298903
448,619.8038010058606
449,619.8184421013702
450,619.8405668633512
451,619.8702683465026
452,619.9073493078253
453,619.951065714705
454,619.9999808542254
455,620.0520055152956
456,620.104644721466
457,620.1554032814734
458,620.2022476605497
459,620.2440045821342
460,620.2806023602374
461,620.3131114034879
462,620.3435914997732
463,620.3747875705138
464,620.409727187787
465,620.4512746841283
466,620.5017026752761
467,620.5623449239607
468,620.6333783023414
469,620.7137513487068
470,620.8012518299006
471,620.8926903073032
472,620.9841638950124
473,621.0713577000806
474,621.1498516995705
475,621.2154258722928
476,621.2643766523463
477,621.2938521003617
478,621.3021791462446
479,621.2891155370545
480,621.2559418443808
481,621.2053316650619
482,621.1409931088456
483,621.0671364136654
484,620.9878682674407
485,620.9066336631831
486,620.8258171593634
487,620.7465769588092
488,620.6689279196761
489,620.5920318485178
490,620.5146132972209
491,620.4354118937553
492,620.3536071579014
493,620.2691805300947
494,620.1831826492554
495,620.0978573347574
496,620.0165689858604
497,619.9435091431521
498,619.883215060981
499,619.839990040476
500,619.8173398742139
501,619.8175187454767
502,619.8412269086145
503,619.8874565089101
504,619.9534701187395
505,620.0349172988098
506,620.1261170035409
507,620.2205278223656
508,620.3113889242861
509,620.3924601632473
510,620.4587447902348
511,620.5070612633782
512,620.5363514931777
513,620.5476714604304
514,620.5438878026027
515,620.5291659868385
516,620.5083598751496
517,620.4864049879952
518,620.4677930783394
519,620.4561716233926
520,620.4540802219511
521,620.4628207340202
522,620.4824566267729
523,620.5119332283888
524,620.5492977443707
525,620.5919824393411
526,620.6371040357978
527,620.6817347540454
528,620.723121359069
529,620.7588567364717
530,620.7870179734696
531,620.806267703676
532,620.8158938218504
533,620.8157612361865
534,620.8061712333878
535,620.7876558164801
536,620.7607617558139
537,620.7258906918273
538,620.6832447657503
539,620.6328812877682
540,620.5748315595183
541,620.5092199293546
542,620.4363329358885
543,620.3566148924925
544,620.2705902960967
545,620.1787356832008
546,620.0813467025025
547,619.9784608115227
548,619.8698867123762
549,619.7553545505561
550,619.6347517932309
551,619.5083745570854
552,619.3771193761796
553,619.2425607208135
554,619.1068883231746
555,618.9727090720627
556,618.8427552571719
557,618.7195763635507
558,618.6053017758367
559,618.5015360291948
560,618.4094020618289
561,618.3297006566424
562,618.2631150560804
563,618.2103689628311
564,618.1722575536722
565,618.1495146755401
566,618.1425362668355
567,618.1510285011326
568,618.1736766761494
569,618.2079329762855
570,618.2499971183673
571,618.2950175029573
572,618.3374855210661
573,618.3717523487579
574,618.3925791150695
575,618.3956371987747
576,618.3778983628969
577,618.3378863442477
578,618.2757888842128
579,618.19343673985
580,618.0941491434652
581,617.9824518192754
582,617.8637055445789
583,617.7437105751217
584,617.6283410418398
585,617.5232207341636
586,617.4334149870429
587,617.3631078824277
588,617.3152586605302
589,617.2912748565775
590,617.2907849117621
591,617.3116118557404
592,617.3500198589763
593,617.4012310691928
594,617.4601202149134
595,617.52192917546
596,617.5828348505471
597,617.6402548002441
598,617.6928620006195
599,617.7403661480208
600,617.7831682670651
601,617.8219906141924
602,617.8575444848937
603,617.8902660413554
604,617.9201463475828
605,617.9466883987707
606,617.9690080275582
607,617.9860511904607
608,617.9968609871221
609,618.0008298916738
610,617.9979101874274
611,617.9887864663784
612,617.9750065398676
613,617.9590322278623
614,617.9441492715503
615,617.9341926950849
616,617.9330921971465
617,617.9442973316875
618,617.970187368231
619,618.0115949397682
620,618.0675631823783
621,618.1354072673125
622,618.2110764183085
623,618.2897391475047
624,618.3664678934285
625,618.436890396345
626,618.4976992538874
627,618.5469576259901
628,618.5841965920041
629,618.6103477779657
630,618.6275681989202
631,618.638989585571
632,618.6483915936924
633,618.6597926783935
634,618.6769836005597
635,618.7030738982955
636,618.7401442837242
637,618.7890756343511
638,618.8495674179143
639,618.9202992461453
640,618.9991635926148
641,619.083511235391
642,619.1703796417127
643,619.2566982987445
644,619.3394810554588
645,619.4160201192147
646,619.4840846729683
647,619.5421084257553
648,619.5893400445153
649,619.6259306898561
650,619.6529363460282
651,619.6722170621589
652,619.6862237237638
653,619.6976755392692
654,619.7091458472964
655,619.7225908953483
656,619.7388785727908
657,619.7573997779023
658,619.7758610789912
659,619.790344583473
660,619.7956752806289
661,619.7860770711142
662,619.7560464901694
663,619.7013281406232
664,619.6198353115237
665,619.5123410818089
666,619.3827932301157
667,619.2381777455507
668,619.0879430200404
669,618.943075340306
670,618.8149722696826
671,618.714280924627
672,618.6498478942822
673,618.6278832049289
674,618.6513978094241
675,618.7199420255521
676,618.8296463788195
677,618.9735468578145
678,619.1421673480344
679,619.3243228149046
680,619.5080801454301
681,619.6817728552443
682,619.8349426966748
683,619.9591038491169
684,620.0482844665075
685,620.0993547596819
686,620.1121689070909
687,620.0895354396225
688,620.0370118236448
689,619.9625065687683
690,619.8756712383121
691,619.7870871035886
692,619.7073003629712
693,619.6458146577936
694,619.6101789609227
695,619.6052947981624
696,619.6330169654861
697,619.6920657314141
698,619.7782305362623
699,619.884828061251
700,620.0033728906033
701,620.1244159265365
702,620.238490538478
703,620.3370744244587
704,620.4134413822431
705,620.4632681585817
706,620.4848971343627
707,620.4792324088403
708,620.4493313725699
709,620.3998006206656
710,620.3360985514147
711,620.2638208490206
712,620.1880397033907
713,620.1127796204026
714,620.0407102556921
715,619.9731073646844
716,619.9100856658756
717,619.8510492392381
718,619.7952473064512
719,619.7422915200256
720,619.692506178585
721,619.6470415981939
722,619.6077556907229
723,619.5769235400653
724,619.5568519871073
725,619.5494702769469
726,619.5559613368891
727,619.5764931174043
728,619.6100916739518
729,619.6546641152605
730,619.7071465836818
731,619.7637383599011
732,619.8201900270236
733,619.8721273438023
734,619.9153970210205
735,619.9464120641072
736,619.962462978369
737,619.9619602099351
738,619.9445859285128
739,619.9113490086893
740,619.8645422005742
741,619.8075963461201
742,619.7448308336245
743,619.6811212920727
744,619.6215270268588
745,619.5709203521527
746,619.5336451793689
747,619.513227161513
748,619.5121646151822
749,619.5318259680686
750,619.5724523030863
751,619.6332261865947
752,619.7123482263665
753,619.8070828640801
754,619.9137926260606
755,620.0280391338575
756,620.1448382928924
757,620.2590968175498
758,620.3661665029484
759,620.4623921139581
760,620.545524388742
761,620.6149074155671
762,620.671405422845
763,620.7170870609903
764,620.7547231643673
765,620.7871808936904
766,620.8168210553109
767,620.8450166940648
768,620.8718921619765
769,620.8963338713895
770,620.9162670568103
771,620.9291426296339
772,620.9325362323109
773,620.9247327821671
774,620.9051706326497
775,620.8746559116214
776,620.8353109256561
777,620.7902715886969
778,620.7431988748102
779,620.6977179284135
780,620.6569192443974
781,620.6230220251292
782,620.5972256579306
783,620.5797115903755
784,620.569738876407
785,620.5657947109419
786,620.565789252841
787,620.567301452871
788,620.567881086558
789,620.565393478187
790,620.5583640793241
791,620.5462486564721
792,620.5295391084238
793,620.5096375171667
794,620.4884949923685
795,620.4680918254268
796,620.449895710528
797,620.4344481417747
798,620.4211882627949
799,620.4085461360204
800,620.3942584496045
801,620.3758118374207
802,620.3509129941634
803,620.3179068449003
804,620.2760951370473
805,620.2259359093753
806,620.1691187073914
807,620.1085040301
808,620.0478969279199
809,619.9916194738955
810,619.9438822675327
811,619.9080346440293
812,619.8858600829076
813,619.8771196406583
814,619.8794969245898
815,619.8889772355697
816,619.9005564803557
817,619.9090863458564
818,619.9100527543246
819,619.9001393796225
820,619.877511333994
821,619.8418352716936
822,619.7941045994025
823,619.7363488030664
824,619.6712890294333
825,619.6019838609465
826,619.5314988004723
827,619.4626247868105
828,619.3976598095506
829,619.3382537357855
830,619.2853082152818
831,619.2389334386763
832,619.1984884191623
833,619.1627424235535
834,619.1301644042479
835,619.0992829407647
836,619.0690038147972
837,619.0387704313116
838,619.0085156455099
839,618.9784463280193
840,618.9487650287643
841,618.9194344579265
842,618.8900499050029
843,618.8598424561123
844,618.8278075484984
845,618.792928680647
846,618.7544415063333
847,618.712073333878
848,618.6662059134972
849,618.6179335245544
850,618.5690091185165
851,618.5216900726547
852,618.4785181979892
853,618.4420861010477
854,618.4148338620631
855,618.3988852554911
856,618.3959011384917
857,618.4069306778458
858,618.4322744309305
859,618.4714017551505
860,618.5229630980889
861,618.58491154693
862,618.6547203257749
863,618.7296677894271
864,618.8071529787235
865,618.884990486512
866,618.9616197113642
867,619.0361741902096
868,619.1083994306222
869,619.1784613493181
870,619.2467240568056
871,619.3135799003627
872,619.3793877719785
873,619.4445334692687
874,619.5095839003895
875,619.5754696242485
876,619.6436041112482
877,619.7158506198672
878,619.7942903988016
879,619.8808192977923
880,619.9766728200191
881,620.0820114420513
882,620.1956687454526
883,620.3151020174022
884,620.4365368834685
885,620.5552805521738
886,620.6661731085836
887,620.7641364911011
888,620.844767903358
889,620.9049140939607
890,620.9431576538734
891,620.9601501830502
892,620.9587432201978
893,620.9438923445947
894,620.9223344915404
895,620.9020574348721
896,620.8915950296156
897,620.8992023498079
898,620.9319964827147
899,620.9951751408489
900,621.0914237350718
901,621.2205929998796
902,621.3796930972643
903,621.56321311627
904,621.7637278442544
905,621.972700524076
906,622.1813582184908
907,622.3815263881392
908,622.5663489825059
909,622.73085851444
910,622.872379109978
911,622.9907440355362
912,623.0882947770446
913,623.1696193063465
914,623.2410071241673
915,623.3096527933367
916,623.3827040191073
