frame_number,force
0,696.2613600074308
1,696.2800419624659
2,696.2987070970504
3,696.3173383849476
4,696.3359183959739
5,696.3544291127225
6,696.3728517685812
7,696.3911667122894
8,696.409353303339
9,696.4273898420773
10,696.4452535379828
11,696.4629205184566
12,696.4803658784895
13,696.4975637695559
14,696.5144875248062
15,696.5311098170281
16,696.5474028455764
17,696.5633385483451
18,696.5788888345545
19,696.5940258331757
20,696.6087221502042
21,696.6229511265028
22,696.6366870874617
23,696.6499055765072
24,696.6625835661791
25,696.674699642476
26,696.6862341598081
27,696.6971693650765
28,696.7074894905347
29,696.7171808163862
30,696.7262317051761
31,696.7346326107164
32,696.7423760647907
33,696.7494566454443
34,696.7558709310928
35,696.761617444854
36,696.7666965934874
37,696.7711106049638
38,696.7748634675602
39,696.7779608717291
40,696.7804101546658
41,696.7822202469184
42,696.7834016203643
43,696.7839662369968
44,696.783927497862
45,696.7833001909279
46,696.7821004356406
47,696.7803456204841
48,696.7780543282776
49,696.7752462431636
50,696.7719420341982
51,696.7681632128307
52,696.7639319641169
53,696.759270953317
54,696.7542031104352
55,696.7487513955408
56,696.7429385477142
57,696.736786820514
58,696.7303177071841
59,696.7235516594224
60,696.7165078042864
61,696.7092036646984
62,696.7016548899359
63,696.6938750029709
64,696.6858751708753
65,696.6776640024983
66,696.6692473748504
67,696.6606282872519
68,696.6518067411882
69,696.642779643899
70,696.6335407344249
71,696.6240805316743
72,696.6143863047413
73,696.604442065903
74,696.5942285864742
75,696.583723435557
76,696.5729010421479
77,696.5617327818195
78,696.5501870895673
79,696.5382296001887
80,696.5258233173118
81,696.5129288126255
82,696.4995044577579
83,696.4855066914314
84,696.470890323013
85,696.4556088705991
86,696.43961492846
87,696.422860556145
88,696.4052976803606
89,696.3868785007347
90,696.367555891284
91,696.3472837904061
92,696.3260175732986
93,696.303714401763
94,696.2803335473454
95,696.2558366847343
96,696.2301881533493
97,696.2033551864523
98,696.1753081090807
99,696.1460205080516
100,696.1154693781046
101,696.0836352474759
102,696.0505022843814
103,696.0160583841391
104,695.9802952358625
105,695.9432083679902
106,695.904797172746
107,695.865064910317
108,695.8240186937486
109,695.7816694550947
110,695.7380318921458
111,695.6931243935795
112,695.6469689394846
113,695.5995909743157
114,695.5510192503534
115,695.5012856414406
116,695.4504249288694
117,695.3984745634098
118,695.345474409134
119,695.291466475543
120,695.236494644391
121,695.1806043965961
122,695.1238425430378
123,695.0662569616406
124,695.0078963426174
125,694.9488099439749
126,694.8890473595358
127,694.8286583013361
128,694.7676923977203
129,694.706199008297
130,694.6442270570342
131,694.5818248846822
132,694.5190401214413
133,694.4559195809812
134,694.3925091778291
135,694.3288538712433
136,694.2649976391083
137,694.2009834846415
138,694.136853476887
139,694.0726488238614
140,694.008409975727
141,693.9441767546474
142,693.8799885072469
143,693.8158842741487
144,693.7519029693691
145,693.6880835618591
146,693.6244652530212
147,693.5610876466101
148,693.4979909094806
149,693.4352159224942
150,693.3728044208206
151,693.3107991221195
152,693.2492438398688
153,693.1881835778267
154,693.1276646007357
155,693.067734475985
156,693.0084420810148
157,692.9498375718431
158,692.8919723093443
159,692.8348987415676
160,692.7786702421733
161,692.7233409067097
162,692.668965309656
163,692.6155982257562
164,692.5632943191999
165,692.5121078038773
166,692.4620920776746
167,692.4132993340186
168,692.3657801547871
169,692.3195830901045
170,692.2747542320607
171,692.2313367904145
172,692.1893706784632
173,692.1488921168259
174,692.1099332626759
175,692.0725218722376
176,692.0366810047312
177,692.0024287759728
178,691.9697781695284
179,691.9387369127501
180,691.9093074239768
181,691.8814868353753
182,691.8552670933826
183,691.8306351359639
184,691.8075731435413
185,691.7860588586224
186,691.7660659674281
187,691.7475645348989
188,691.7305214827023
189,691.7149010987589
190,691.7006655663207
191,691.6877755004714
192,691.6761904801438
193,691.6658695647947
194,691.6567717869016
195,691.6488566139559
196,691.6420843756605
197,691.6364166528206
198,691.6318166240767
199,691.6282493660046
200,691.62568210189
201,691.6240843947683
202,691.623428281218
203,691.6236883441977
204,691.6248417256768
205,691.6268680819855
206,691.629749486068
207,691.6334702815726
208,691.6380168945633
209,691.6433776096546
210,691.6495423182535
211,691.6565022472589
212,691.6642496771713
213,691.6727776590277
214,691.6820797395183
215,691.6921497027646
216,691.7029813359432
217,691.7145682247548
218,691.7269035836697
219,691.7399801244001
220,691.7537899638256
221,691.7683245701197
222,691.7835747440216
223,691.7995306313392
224,691.8161817622364
225,691.8335171122696
226,691.8515251798292
227,691.8701940748609
228,691.8895116141979
229,691.9094654191803
230,691.9300430113063
231,691.9512319014323
232,691.9730196677945
233,691.9953940182402
234,692.0183428326521
235,692.0418541827734
236,692.0659163285535
237,692.0905176923435
238,692.1156468140407
239,692.1412922916064
240,692.1674427127698
241,692.1940865851686
242,692.2212122729502
243,692.248807947533
244,692.2768615591581
245,692.3053608346532
246,692.3342933056934
247,692.3636463703161
248,692.3934073880955
249,692.4235638064891
250,692.4541033134841
251,692.4850140107837
252,692.5162846024647
253,692.5479045953762
254,692.579864508477
255,692.6121560882931
256,692.644772526695
257,692.677708675489
258,692.7109612505727
259,692.7445290174473
260,692.7784129500288
261,692.8126163553786
262,692.84714495725
263,692.8820069310035
264,692.917212882362
265,692.9527757633751
266,692.9887107207779
267,693.0250348743562
268,693.0617670259267
269,693.0989273028098
270,693.1365367426072
271,693.1746168283448
272,693.213188984631
273,693.2522740464914
274,693.2918917130014
275,693.3320599978263
276,693.3727946884475
277,693.414108825344
278,693.4560122119188
279,693.4985109656166
280,693.5416071201194
281,693.5852982873315
282,693.6295773862377
283,693.6744324440888
284,693.7198464737096
285,693.7657974287339
286,693.8122582362935
287,693.8591969045114
288,693.9065767003042
289,693.9543563914656
290,694.0024905456279
291,694.0509298776052
292,694.0996216362032
293,694.1485100221624
294,694.1975366303487
295,694.2466409111173
296,694.2957606474256
297,694.3448324454672
298,694.393792237305
299,694.4425757940942
300,694.4911192476006
301,694.5393596156763
302,694.587235324828
303,694.6346867212203
304,694.6816565611688
305,694.7280904731067
306,694.7739373842177
307,694.8191499057594
308,694.86368467161
309,694.9075026253151
310,694.9505692524683
311,694.992854757401
312,695.034334184919
313,695.074987488473
314,695.1147995460341
315,695.1537601246586
316,695.1918637943182
317,695.229109790854
318,695.265501827244
319,695.3010478525345
320,695.3357597590692
321,695.3696530405658
322,695.4027464054936
323,695.4350613518935
324,695.4666217110615
325,695.4974531680027
326,695.5275827661053
327,695.5570384024454
328,695.585848319242
329,695.6140405968821
330,695.6416426546223
331,695.6686807657968
332,695.6951795944019
333,695.7211617593589
334,695.7466474322656
335,695.7716539742045
336,695.7961956165448
337,695.8202831892094
338,695.8439238982592
339,695.867121153962
340,695.8898744510408
341,695.9121793037981
342,695.9340272392644
343,695.9554058508927
344,695.9762989136815
345,695.9966865593598
346,696.0165455077874
347,696.0358493484468
348,696.0545688642686
349,696.0726723892193
350,696.0901261906968
351,696.1068948672984
352,696.1229417520984
353,696.1382293119844
354,696.1527195354053
355,696.1663743036144
356,696.1791557428726
357,696.1910265559388
358,696.201950330562
359,696.2118918216562
360,696.2208172031848
361,696.2286942855195
362,696.2354926942965
363,696.2411840080675
364,696.2457418545821
365,696.2491419687374
366,696.251362217936
367,696.2523826017681
368,696.2521852326162
369,696.2507543028319
370,696.2480760434181
371,696.2441386789468
372,696.238932383393
373,696.2324492411373
374,696.224683216563
375,696.2156301350467
376,696.2052876780833
377,696.1936553954843
378,696.1807347372998
379,696.1665291070054
380,696.1510439358796
381,696.1342867771739
382,696.1162674181898
383,696.0969980086232
384,696.0764932038734
385,696.0547703218349
386,696.0318495109778
387,696.0077539265835
388,695.982509911146
389,695.9561471743009
390,695.9286989672976
391,695.900202246931
392,695.8706978238305
393,695.8402304900794
394,695.8088491215132
395,695.7766067507287
396,695.7435606076153
397,695.7097721249072
398,695.6753069069645
399,695.6402346608761
400,695.6046290897652
401,695.5685677481099
402,695.532131857513
403,695.4954060795253
404,695.4584782414759
405,695.4214390125321
406,695.3843815296956
407,695.3474009759889
408,695.3105941149554
409,695.2740587866459
410,695.2378933708081
411,695.202196223368
412,695.1670650927227
413,695.1325965230301
414,695.0988852524499
415,695.0660236146464
416,695.0341009514332
417,695.0032030434878
418,694.973411564923
419,694.9448035662477
420,694.9174509890842
421,694.8914202154783
422,694.8667716548705
423,694.843559372086
424,694.8218307594124
425,694.8016262549938
426,694.7829791087049
427,694.7659151954915
428,694.7504528751624
429,694.7366028973594
430,694.7243683510903
431,694.7137446591174
432,694.7047196178514
433,694.6972734832252
434,694.6913791029965
435,694.6870020963407
436,694.6841010818825
437,694.6826279550176
438,694.6825282149565
439,694.6837413419988
440,694.6862012257847
441,694.68983664472
442,694.694571794978
443,694.7003268649734
444,694.7070186487955
445,694.7145611902051
446,694.7228664475413
447,694.7318449691514
448,694.7414065686304
449,694.7514609891347
450,694.7619185463744
451,694.7726907406404
452,694.7836908293887
453,694.7948343533784
454,694.8060396111067
455,694.8172280783624
456,694.8283247718928
457,694.8392585579664
458,694.8499624079429
459,694.8603736042031
460,694.8704339009267
461,694.8800896446186
462,694.8892918587637
463,694.8979962962205
464,694.906163462681
465,694.9137586145768
466,694.92075173427
467,694.92711748375
468,694.93283513592
469,694.937888481158
470,694.9422657070394
471,694.9459592506073
472,694.9489656242445
473,694.9512852173083
474,694.9529220763822
475,694.9538836674578
476,694.9541806232818
477,694.9538264783276
478,694.9528373929378
479,694.9512318677935
480,694.9490304502069
481,694.9462554345944
482,694.942930560536
483,694.9390807126032
484,694.9347316263069
485,694.9299096040756
486,694.9246412442791
487,694.9189531852865
488,694.9128718658575
489,694.9064233030284
490,694.899632888891
491,694.8925252080018
492,694.8851238774977
493,694.8774514122664
494,694.8695291175326
495,694.8613770108441
496,694.8530137747199
497,694.8444567401361
498,694.8357218994724
499,694.8268239456862
500,694.8177763328422
501,694.8085913520957
502,694.7992802168513
503,694.7898531509601
504,694.7803194741618
505,694.7706876790695
506,694.7609654937413
507,694.7511599238815
508,694.7412772696581
509,694.7313231140782
510,694.721302282317
511,694.7112187738966
512,694.7010756718006
513,694.690875034045
514,694.6806177735288
515,694.6703035312464
516,694.6599305468867
517,694.649495530308
518,694.6389935375681
519,694.6284178555895
520,694.617759899611
521,694.6070091272657
522,694.5961529726196
523,694.5851768029296
524,694.5740639003114
525,694.5627954700986
526,694.5513506775962
527,694.5397067152903
528,694.5278389031115
529,694.5157208245755
530,694.503324501198
531,694.4906206065913
532,694.477578720203
533,694.464167618648
534,694.4503556002062
535,694.4361108360071
536,694.421401740391
537,694.4061973529531
538,694.3904677253627
539,694.374184306835
540,694.3573203231177
541,694.33985114512
542,694.3217546444762
543,694.3030115339052
544,694.2836056904124
545,694.2635244601547
546,694.2427589455596
547,694.2213042771083
548,694.1991598728016
549,694.1763296875333
550,694.1528224531363
551,694.1286519081555
552,694.1038370145125
553,694.078402156721
554,694.052377319237
555,694.0257982389186
556,693.9987065309797
557,693.9711497867725
558,693.9431816401938
559,693.9148617976576
560,693.8862560254242
561,693.8574360878074
562,693.8284796300343
563,693.7994699999745
564,693.7704960034804
565,693.7416515889215
566,693.7130354579523
567,693.6847506015465
568,693.6569037625053
569,693.6296048279695
570,693.6029661579439
571,693.5771018581247
572,693.5521270070054
573,693.5281568485311
574,693.505305962995
575,693.483687430413
576,693.463412001502
577,693.4445872908374
578,693.4273170046538
579,693.4117002127056
580,693.3978306707066
581,693.3857961978837
582,693.3756781130805
583,693.3675507319876
584,693.3614809268745
585,693.3575277488148
586,693.3557421114086
587,693.3561665345642
588,693.3588349465039
589,693.3637725415446
590,693.370995690803
591,693.3805119030927
592,693.3923198334955
593,693.4064093368098
594,693.4227615621659
595,693.4413490838253
596,693.4621360618847
597,693.4850784258141
598,693.5101240741069
599,693.5372130849929
600,693.5662779357766
601,693.5972437312789
602,693.6300284445359
603,693.6645431747148
604,693.7006924275248
605,693.7383744222994
606,693.777481428408
607,693.817900132702
608,693.859512039324
609,693.9021939026635
610,693.9458181929604
611,693.9902535920147
612,694.035365514113
613,694.0810166452854
614,694.1270674931109
615,694.1733769400989
616,694.2198027961564
617,694.2662023489169
618,694.3124329137129
619,694.3583523868372
620,694.4038198059768
621,694.4486959203605
622,694.4928437709376
623,694.5361292787009
624,694.5784218375669
625,694.6195949069763
626,694.6595265983298
627,694.6981002483734
628,694.7352049719334
629,694.7707361864252
630,694.8045961013424
631,694.8366941668089
632,694.8669474758248
633,694.8952811154863
634,694.9216284637245
635,694.9459314297078
636,694.9681406371567
637,694.9882155499902
638,695.0061245392847
639,695.021844889972
640,695.0353627454202
641,695.0466729882531
642,695.0557790565106
643,695.062692695206
644,695.0674336442951
645,695.0700292651852
646,695.0705141094545
647,695.0689294353859
648,695.0653226799732
649,695.059746895795
650,695.0522601631832
651,695.0429249882133
652,695.031807696295
653,695.0189778298125
654,695.004507556718
655,694.9884710955969
656,694.9709441618302
657,694.9520034391422
658,694.9317260806428
659,694.9101892431466
660,694.8874696581979
661,694.8636432431871
662,694.8387847562475
663,694.8129674988054
664,694.7862630692027
665,694.7587411696467
666,694.7304694670736
667,694.7015135064727
668,694.671936673034
669,694.6418001978327
670,694.611163201069
671,694.5800827667882
672,694.548614042829
673,694.5168103591965
674,694.4847233573556
675,694.4524031223903
676,694.4198983099152
677,694.3872562604295
678,694.3545230955848
679,694.3217437930831
680,694.2889622389589
681,694.256221257634
682,694.2235626214617
683,694.1910270423953
684,694.1586541486549
685,694.1264824487872
686,694.0945492845509
687,694.0628907729072
688,694.0315417363972
689,694.0005356208103
690,693.9699043993527
691,693.9396784630784
692,693.9098864977652
693,693.8805553477894
694,693.851709867754
695,693.823372762246
696,693.7955644134532
697,693.7683026968006
698,693.7416027870182
699,693.7154769603658
700,693.6899344015567
701,693.664981025378
702,693.6406193231027
703,693.6168482431136
704,693.5936631143151
705,693.5710556202063
706,693.549013830714
707,693.5275222977473
708,693.5065622190639
709,693.4861116736872
710,693.466145930668
711,693.4466378310382
712,693.4275582401907
713,693.4088765648323
714,693.3905613254218
715,693.3725807718938
716,693.354903527814
717,693.3374992463365
718,693.3203392607641
719,693.3033972130833
720,693.2866496450109
721,693.2700765372925
722,693.2536617842076
723,693.237393592074
724,693.2212647936357
725,693.2052730743743
726,693.1894211107051
727,693.1737166223356
728,693.1581723417931
729,693.1428059045207
730,693.1276396641139
731,693.1127004390477
732,693.0980191987915
733,693.0836306980984
734,693.0695730684874
735,693.0558873754592
736,693.0426171489853
737,693.0298078939543
738,693.0175065871443
739,693.0057611678975
740,692.9946200303684
741,692.9841315253341
742,692.9743434788662
743,692.965302734002
744,692.9570547202562
745,692.9496430545964
746,692.9431091766327
747,692.9374920204265
748,692.9328277251359
749,692.9291493860298
750,692.9264868458665
751,692.9248665245053
752,692.9243112826176
753,692.9248403141899
754,692.9264690624005
755,692.9292091540119
756,692.9330683480925
757,692.9380504954687
758,692.9441555059511
759,692.9513793213567
760,692.9597138937496
761,692.9691471700152
762,692.9796630854734
763,692.991241570208
764,693.0038585717822
765,693.0174860970868
766,693.0320922745573
767,693.0476414362154
768,693.064094217291
769,693.0814076701397
770,693.0995353892931
771,693.1184276458216
772,693.1380315313858
773,693.158291114816
774,693.1791476161533
775,693.2005396040771
776,693.2224032220818
777,693.2446724470088
778,693.2672793817563
779,693.2901545831251
780,693.3132274258229
781,693.3364265036747
782,693.3596800680472
783,693.3829165012975
784,693.4060648205754
785,693.4290552054296
786,693.4518195414272
787,693.4742919708599
788,693.4964094404057
789,693.5181122346318
790,693.5393444838563
791,693.5600546354831
792,693.5801958795303
793,693.5997265210829
794,693.6186102939271
795,693.6368166105393
796,693.6543207445275
797,693.671103943154
798,693.6871534697648
799,693.7024625784875
800,693.7170304259624
801,693.730861926696
802,693.7439675596487
803,693.7563631339856
804,693.7680695218769
805,693.7791123661036
806,693.7895217698832
807,693.7993319754407
808,693.8085810364233
809,693.8173104876437
810,693.8255650142667
811,693.8333921216683
812,693.8408418067123
813,693.8479662308025
814,693.8548193946236
815,693.8614568140113
816,693.8679351959148
817,693.8743121128467
818,693.8806456735305
819,693.8869941868255
820,693.8934158156258
821,693.8999682172962
822,693.9067081671873
823,693.9136911619828
824,693.9209710005123
825,693.9285993415199
826,693.9366252406363
827,693.9450946718944
828,693.9540500416456
829,693.9635297038678
830,693.9735674854624
831,693.9841922288914
832,693.9954273584491
833,694.0072904762698
834,694.0197929948333
835,694.032939813742
836,694.0467290494115
837,694.0611518267771
838,694.0761921420035
839,694.0918268041484
840,694.1080254613773
841,694.1247507137231
842,694.1419583103699
843,694.1595974262187
844,694.1776110107228
845,694.1959362014657
846,694.2145047951205
847,694.2332437689143
848,694.2520758463551
849,694.2709201014001
850,694.2896925949556
851,694.3083070364796
852,694.3266754622438
853,694.3447089215562
854,694.3623181630463
855,694.3794143139856
856,694.3959095459578
857,694.4117177204549
858,694.4267550087566
859,694.4409404817479
860,694.4541966666873
861,694.4664500688722
862,694.47763165636
863,694.4876773055626
864,694.4965282053565
865,694.504131217891
866,694.5104391952956
867,694.5154112523594
868,694.5190129956799
869,694.5212167098624
870,694.5220015011053
871,694.5213533980219
872,694.5192654092173
873,694.5157375372985
874,694.5107767495635
875,694.5043969061484
876,694.4966186466092
877,694.4874692359544
878,694.4769823715801
879,694.4651979536734
880,694.4521618229203
881,694.4379254699102
882,694.4225457200847
883,694.4060843970249
884,694.3886079662735
885,694.3701871620838
886,694.3508966000127
887,694.3308143785505
888,694.3100216726656
889,694.2886023213873
890,694.2666424107264
891,694.2442298525382
892,694.2214539592756
893,694.1984050141083
894,694.1751738360044
895,694.1518513400194
896,694.1285280938013
897,694.1052938719256
898,694.082237210124
899,694.0594449617893
900,694.03700185939
901,694.014990083821
902,693.9934888453429
903,693.9725739801585
904,693.9523175662616
905,693.9327875612101
906,693.9140474637961
907,693.8961560017124
908,693.8791668479832
909,693.8631283695004
910,693.8480834108776
911,693.8340691158727
912,693.821116787369
913,693.8092517861495
914,693.7984934687207
915,693.7888551648441
916,693.7803441955215
917,693.7729619314721
