frame_number,force
0,595.0272800000187
1,595.0901649356712
2,595.1417937281802
3,595.1721087822734
4,595.1732430001279
5,595.1401590755353
6,595.0708910901806
7,594.966441412468
8,594.8304377523364
9,594.6686527125711
10,594.4884570975696
11,594.2982475775964
12,594.1068734832168
13,593.9230864140046
14,593.7550379783294
15,593.6098429468937
16,593.493211414141
17,593.4091497568269
18,593.3597391014549
19,593.3450084069093
20,593.3629197113875
21,593.4094793687101
22,593.4789816102707
23,593.5643774851228
24,593.6577505967526
25,593.7508798000248
26,593.8358689112995
27,593.9058050202215
28,593.955372524354
29,593.9813287906632
30,593.9827607463591
31,593.9610802750399
32,593.9197552531865
33,593.8637994388296
34,593.7990676388425
35,593.7314377127226
36,593.6660016834871
37,593.6064065880414
38,593.5544613805672
39,593.5100666071113
40,593.4714545705683
41,593.4356713056753
42,593.3991955486295
43,593.3585753061936
44,593.3109703045823
45,593.2545133875386
46,593.1884403066657
47,593.1129878358399
48,593.0291186389192
49,592.9381713800125
50,592.8415355222842
51,592.7404190683142
52,592.6357344952005
53,592.5280891042057
54,592.4178400421965
55,592.3051651258878
56,592.1901096297186
57,592.0725972240125
58,591.9524312839121
59,591.8293354866537
60,591.7030683338158
61,591.5736052534749
62,591.4413485775169
63,591.3073184115073
64,591.173283032106
65,591.0417891230887
66,590.9160540102107
67,590.7996984208547
68,590.6963339892724
69,590.6090672155694
70,590.5400242550853
71,590.4900141015264
72,590.4584124635077
73,590.4432756258402
74,590.4416241899888
75,590.4498089330868
76,590.4638865280834
77,590.4799617702212
78,590.4944719629767
79,590.5044026153757
80,590.5074430803985
81,590.5021105646607
82,590.4878751328414
83,590.4652982868533
84,590.4361590901061
85,590.4035039661547
86,590.3715433014765
87,590.3453439213846
88,590.3303247161942
89,590.3316279491048
90,590.353485726641
91,590.3987166132252
92,590.4684617835383
93,590.5622013791602
94,590.6780090795836
95,590.8129520301122
96,590.9635360070796
97,591.1261082475015
98,591.2971513804704
99,591.4734407311392
100,591.6520856658809
101,591.8305035333136
102,592.0063719642125
103,592.1775945766559
104,592.3423128562573
105,592.4989913157882
106,592.6465826445719
107,592.7847518726575
108,592.9141125204208
109,593.0364085172512
110,593.1545735352761
111,593.2726199856198
112,593.395345623245
113,593.527883568827
114,593.675151128586
115,593.8412717509132
116,594.029057547259
117,594.2396426756482
118,594.4723366049892
119,594.7247228703002
120,594.9929852604727
121,595.2724140893666
122,595.5580246537073
123,595.8451971985661
124,596.1302274500899
125,596.4106819920274
126,596.6854977928301
127,596.9548307343806
128,597.2197070028997
129,597.4815480210586
130,597.7416416147651
131,598.0006398908828
132,598.2581716292581
133,598.5126439192256
134,598.7612737657278
135,599.0003514087022
136,599.2256980599706
137,599.433240322789
138,599.6195972306043
139,599.7825808024065
140,599.9215374218959
141,600.0374842047706
142,600.1330191026325
143,600.2120124383571
144,600.2791178564011
145,600.3391649639555
146,600.3965114601223
147,600.4544388866093
148,600.5146720403424
149,600.5770836559553
150,600.6396098306764
151,600.6983573260507
152,600.7478574255259
153,600.7814320148573
154,600.7916710383251
155,600.7710366255287
156,600.7125844901558
157,600.610742346014
158,600.4620434541242
159,600.2657064709647
160,600.0239803758155
161,599.742215869921
162,599.428659474665
163,599.0939829688126
164,598.75056975727
165,598.4116031994005
166,598.0900435519039
167,597.7976173792235
168,597.5439548193808
169,597.3359910631465
170,597.1776971560836
171,597.0701301370733
172,597.011727957125
173,596.9987533216796
174,597.025808311846
175,597.0863714254027
176,597.1733307473409
177,597.2794912226623
178,597.398017257563
179,597.5227486704424
180,597.6483300663881
181,597.7701395685611
182,597.8840708026996
183,597.9862680372419
184,598.0729159243973
185,598.1401559495117
186,598.1841629940524
187,598.2013708923474
188,598.1887871034794
189,598.1443067265877
190,598.0669459918606
191,597.9569502883559
192,597.8157634633449
193,597.6458709508972
194,597.4505587137558
195,597.2336518604544
196,596.9992924528458
197,596.7517894597162
198,596.4955448893554
199,596.235040073975
200,595.9748532409777
201,595.7196703223083
202,595.4742477774483
203,595.2432953018507
204,595.0312689465816
205,594.8420939244777
206,594.6788621849603
207,594.543566839533
208,594.4369360553035
209,594.3584059944878
210,594.3062322841423
211,594.277703523578
212,594.2694088356257
213,594.2775284168774
214,594.2981433618539
215,594.3275696479643
216,594.3626958493702
217,594.4012617110208
218,594.4419961453477
219,594.4845678748504
220,594.529372597082
221,594.5772353509333
222,594.6291144286457
223,594.6858692261867
224,594.7481246096992
225,594.81623122476
226,594.8902846225583
227,594.9701486578231
228,595.0554522301709
229,595.1455763533185
230,595.2396738642416
231,595.3367404330379
232,595.435705504686
233,595.5354807872802
234,595.6349189726093
235,595.7326917850497
236,595.8271648119015
237,595.9163827668449
238,595.9982445699621
239,596.0708476954401
240,596.1328784461152
241,596.1838915244268
242,596.2243753432389
243,596.2555954506843
244,596.2792876109621
245,596.2972985277146
246,596.3112519759735
247,596.322287347976
248,596.3309015279586
249,596.3369159079907
250,596.3395716424316
251,596.3377269088862
252,596.3301010348026
253,596.3154973853888
254,596.2929532400692
255,596.2618062212291
256,596.2217068199766
257,596.1726198105083
258,596.1148441602975
259,596.0490586622774
260,595.9763771687819
261,595.8983744603744
262,595.8170360263823
263,595.7346090954609
264,595.6533752651814
265,595.5753907315012
266,595.5022347105423
267,595.4347941656175
268,595.3731145841509
269,595.3163535063451
270,595.262868827119
271,595.2104521598226
272,595.1566795185539
273,595.0993069178846
274,595.0366131761518
275,594.967608056513
276,594.8920713333719
277,594.8104362859104
278,594.7235604761687
279,594.6324417613746
280,594.5379447533224
281,594.440596463488
282,594.3404875836965
283,594.2372906681312
284,594.1303889856756
285,594.0190960691566
286,593.9029290006827
287,593.7818813479215
288,593.6566355784323
289,593.5286658358597
290,593.400205588187
291,593.2740840302165
292,593.1534637799341
293,593.041527726874
294,592.9411548088035
295,592.854605278776
296,592.7832332387643
297,592.7272657648418
298,592.6857105919117
299,592.6564543443637
300,592.636588827191
301,592.6229590419728
302,592.6128643473128
303,592.6047783567759
304,592.5989189473587
305,592.5975212736902
306,592.6047316504457
307,592.6261205241209
308,592.6678937813286
309,592.7359506310336
310,592.834965243449
311,592.9676421918543
312,593.1342365902755
313,593.3323765515945
314,593.5571920472927
315,593.8017294962438
316,594.0575986746693
317,594.3157569155716
318,594.5673095937858
319,594.8042183209609
320,595.019848371043
321,595.2093247123114
322,595.3696875468718
323,595.4998519619129
324,595.6003938991568
325,595.6732030667852
326,595.7210489821982
327,595.7470984108346
328,595.7544202744363
329,595.7455296666499
330,595.7220408355843
331,595.6844956798767
332,595.6324029545356
333,595.5644773848567
334,595.4790243606069
335,595.3743839200723
336,595.2493312576961
337,595.103336683508
338,594.9366229729553
339,594.7500176903328
340,594.5446616661261
341,594.3216786525694
342,594.0819211423668
343,593.8258795230948
344,593.5537850160752
345,593.2658763752171
346,592.9627628727235
347,592.6458092083401
348,592.3174809770287
349,591.9816073294296
350,591.6435283390134
351,591.3100950877327
352,590.9894908220832
353,590.6908537844257
354,590.4237063139425
355,590.1972236499444
356,590.019404939729
357,589.8962331453328
358,589.8309260407058
359,589.8233896734343
360,589.8699846798706
361,589.9636830362865
362,590.094613277806
363,590.2508933923784
364,590.4195896409311
365,590.587649301991
366,590.7427165973573
367,590.873807799376
368,590.9718599475126
369,591.0301705175536
370,591.0447242161396
371,591.0143765654667
372,590.9408494076469
373,590.8284996891298
374,590.6838500918319
375,590.5149144695815
376,590.3304021973723
377,590.1389212135283
378,589.9482954568127
379,589.7650668482912
380,589.5941970028666
381,589.4389543093062
382,589.3009646290749
383,589.1803929580636
384,589.0762068680519
385,588.9864686867027
386,588.9086177083828
387,588.8397271346305
388,588.7767445311032
389,588.7167419409401
390,588.6572004746112
391,588.5963256580319
392,588.5333463987163
393,588.4687228876724
394,588.4041963216193
395,588.3426475404938
396,588.2877728188565
397,588.2436176217719
398,588.2140242189241
399,588.2020505147852
400,588.2094201972451
401,588.2360743341994
402,588.2799007207102
403,588.3367078842886
404,588.4004847813127
405,588.463945839079
406,588.5193028727132
407,588.559143068293
408,588.5772575510912
409,588.5692808681439
410,588.5330554374591
411,588.4686939349615
412,588.378358087258
413,588.2658070404003
414,588.1357953117216
415,587.9934122608265
416,587.8434484227586
417,587.6898571099646
418,587.5353635121494
419,587.3812624981637
420,587.2274338889424
421,587.0725769028489
422,586.9146228454905
423,586.7512499820423
424,586.5804201500274
425,586.40087273605
426,586.2125166586769
427,586.0166505597948
428,585.8159470124225
429,585.6141804521222
430,585.4157445900223
431,585.2250607942773
432,585.0460058357532
433,584.8814809742253
434,584.7332055058521
435,584.601759390328
436,584.4868419143368
437,584.3876660444687
438,584.303375130744
439,584.2333643358722
440,584.1774237946378
441,584.1356800110582
442,584.1083695900504
443,584.0955164583125
444,584.0965948692807
445,584.1102516610792
446,584.1341453343755
447,584.1649444296681
448,584.1985074413243
449,584.2302307642402
450,584.2555057635753
451,584.2701967072089
452,584.271058510085
453,584.2560481246728
454,584.224517340019
455,584.1772875635902
456,584.1165990836142
457,584.0459126709319
458,583.9695395382454
459,583.8921015228843
460,583.8178747170326
461,583.7501211001393
462,583.6905331297238
463,583.638897771768
464,583.5930410109062
465,583.549052360235
466,583.5017271374737
467,583.4451303647631
468,583.3731948464118
469,583.2802991821821
470,583.161795568742
471,583.0144528281877
472,582.8367586626582
473,582.6290203109795
474,582.3932366957315
475,582.1327745550652
476,581.8519321269916
477,581.5554913800738
478,581.2483384194713
479,580.9351854277515
480,580.6203848161913
481,580.3078117530919
482,580.0007971989934
483,579.7020856098271
484,579.4137608586213
485,579.1370734085059
486,578.8721515996284
487,578.6176653551106
488,578.370564883949
489,578.1260081704605
490,577.8775448612688
491,577.6175758157829
492,577.3380674573683
493,577.0314640536494
494,576.691702146943
495,576.3151853193095
496,575.9015376396602
497,575.453951413695
498,574.979001125139
499,574.4859004519589
500,573.9852981914285
501,573.4878111920458
502,573.0025630662002
503,572.5360190898238
504,572.0913528185386
505,571.6684460541387
506,571.2644623237848
507,570.8748118546124
508,570.4942694070006
509,570.1180087917182
510,569.742371168565
511,569.3652712844776
512,568.9862369095048
513,568.6061532623808
514,568.2268424974983
515,567.850637400448
516,567.4800882624578
517,567.1178699455273
518,566.7668665889242
519,566.4303554319141
520,566.1122068041824
521,565.8170302164073
522,565.5501920673304
523,565.3176273832679
524,565.125409347836
525,564.9791259172508
526,564.8831928346027
527,564.8402629835059
528,564.8508667956936
529,564.9133511417222
530,565.0240964629635
531,565.1779196216634
532,565.3685481831799
533,565.5890834763717
534,565.8324231114218
535,566.0916524390028
536,566.360421906118
537,566.6333098794018
538,566.906148389111
539,567.1762747292483
540,567.442660707387
541,567.7058665707087
542,567.9677893829227
543,568.2312295088836
544,568.4993497062719
545,568.7751175040468
546,569.0608094555269
547,569.3576379551367
548,569.6655447618303
549,569.9831843720983
550,570.3080911532187
551,570.6369929556088
552,570.9662167913774
553,571.2921407899947
554,571.6116729211673
555,571.9227577341504
556,572.2249067508967
557,572.5197115034426
558,572.8112500838876
559,573.106273111026
560,573.4140713081283
561,573.7459690665975
562,574.1144360626668
563,574.5318669630262
564,575.0091546546961
565,575.554248756235
566,576.1709090779085
567,576.8578290376518
568,577.6082461395204
569,578.4100975610937
570,579.246720242687
571,580.0980369904312
572,580.9421201561154
573,581.7569871946893
574,582.522457444192
575,583.2218855987716
576,583.8435858462149
577,584.3817788247488
578,584.836941050584
579,585.2155127037502
580,585.5290095560841
581,585.7926684825292
582,586.0238177213814
583,586.240190544647
584,586.458385670192
585,586.6926256378397
586,586.9538984426471
587,587.2495082425002
588,587.5830126710327
589,587.9544878029624
590,588.3610422749757
591,588.7974996541391
592,589.2571731297912
593,589.7326610004923
594,590.216597193958
595,590.7023021987148
596,591.1842929581213
597,591.6586188343094
598,592.1229978770181
599,592.5767475836958
600,593.020542405322
601,593.4560695169237
602,593.8856726883631
603,594.3120659318552
604,594.7381715370727
605,595.1670966378449
606,595.6022137332001
607,596.047270573763
608,596.5064449128746
609,596.9842820164529
610,597.4854868500494
611,598.0145689202742
612,598.5753594939642
613,599.1704574083125
614,599.8007099697898
615,600.4648642290298
616,601.1595000791945
617,601.8792895181016
618,602.6175482148614
619,603.3669795694369
620,604.1204697735257
621,604.8717822181735
622,605.6160219974424
623,606.3497928068501
624,607.0710420172638
625,607.7786662909294
626,608.4720014534412
627,609.1503304856103
628,609.8125215496865
629,610.4568686982992
630,611.0811538769057
631,611.6828877398176
632,612.2596443978855
633,612.8093979084138
634,613.3307861117028
635,613.8232587017433
636,614.2871090481741
637,614.7234274931345
638,615.1340198532284
639,615.5213064540964
640,615.8881866887201
641,616.2378517136808
642,616.5735526732936
643,616.8983618792872
644,617.2149784581765
645,617.5256208221514
646,617.8320229323019
647,618.1355195942992
648,618.4371759839679
649,618.7379023848943
650,619.0385100742033
651,619.3396988175027
652,619.6419935541239
653,619.9456563584155
654,620.2506013592221
655,620.5563425976226
656,620.8619981198141
657,621.1663492610743
658,621.4679225034878
659,621.765043780202
660,622.0558238959958
661,622.3380672240629
662,622.6091414443089
663,622.8658785053337
664,623.1045725038792
665,623.3211034544477
666,623.5111752885894
667,623.6706307382444
668,623.7957929501327
669,623.8837787303585
670,623.9327362120765
671,623.9419847473519
672,623.9120640080453
673,623.8447115582976
674,623.7427804575809
675,623.6100978314129
676,623.4512667148566
677,623.2714258837709
678,623.0759935106141
679,622.8704215873355
680,622.65998423816
681,622.4496209390744
682,622.2438481652135
683,622.0467312302841
684,621.8618784284506
685,621.6923995546242
686,621.540780077406
687,621.4086701324721
688,621.2966526896853
689,621.2040916270745
690,621.129141078108
691,621.0689406169473
692,621.0199647151899
693,620.9784587423492
694,620.9408738233685
695,620.9042078079731
696,620.866181899041
697,620.8252358145335
698,620.7803851621247
699,620.7310196810945
700,620.6767148360032
701,620.6170928599682
702,620.5517310255525
703,620.480099894767
704,620.4015259767222
705,620.3151967885092
706,620.220242540805
707,620.1159182523601
708,620.0018663538584
709,619.8783889749334
710,619.7466439273239
711,619.6087109616337
712,619.4675254066436
713,619.3267113911581
714,619.1903567021939
715,619.0627618694651
716,618.9481788985338
717,618.8505444317789
718,618.7732147018091
719,618.718720817964
720,618.6885761063086
721,618.6831744325243
722,618.7018063812318
723,618.7427859693282
724,618.8036472886914
725,618.8813672650647
726,618.9725988171626
727,619.0739295088014
728,619.1821847959726
729,619.2947672616054
730,619.4099850074253
731,619.5272987832385
732,619.6474186166466
733,619.7722070457303
734,619.9043913735059
735,620.047131017497
736,620.203506726291
737,620.3759950066085
738,620.5659751465035
739,620.7733006200549
740,620.9959646977738
741,621.22990261451
742,621.4689812469845
743,621.7052164758941
744,621.9292320417818
745,622.1309415251484
746,622.3003992600903
747,622.4287265090825
748,622.5089853045944
749,622.5368644273852
750,622.511076382404
751,622.4334310248721
752,622.3086154381344
753,622.1437414849923
754,621.9477227612383
755,621.7305293207611
756,621.5023561370133
757,621.2727455025336
758,621.0497386447563
759,620.839180970915
760,620.6443211448097
761,620.4657978492128
762,620.3020168705095
763,620.1498246295519
764,620.005318168182
765,619.8646199833339
766,619.7244909375372
767,619.5827287701387
768,619.4383653773175
769,619.2917113072693
770,619.1443016416836
771,618.9987798475859
772,618.8587187357685
773,618.7283371274893
774,618.612062250187
775,618.5139327989813
776,618.4369122065605
777,618.3822321646296
778,618.3488810748594
779,618.3333078270132
780,618.3293667024363
781,618.3285099213256
782,618.320243439993
783,618.2928748989594
784,618.2345589341741
785,618.1345708222385
786,617.9846521760327
787,617.7802202917376
788,617.5212332700181
789,617.2125516194628
790,616.863721651013
791,616.4882000780651
792,616.1021121384476
793,615.722683116696
794,615.3665227557649
795,615.0479721285915
796,614.7777178206322
797,614.561829246768
798,614.4013031319545
799,614.2921278733269
800,614.2258150626878
801,614.1902920374788
802,614.1710243433902
803,614.1522418940089
804,614.1181573074263
805,614.0540782989505
806,613.9473379117588
807,613.7880012737753
808,613.5693378726631
809,613.2880590801981
810,612.9443262205759
811,612.5415542859723
812,612.0860581490032
813,611.5865880730152
814,611.0537818684612
815,610.4995381879615
816,609.9362989650459
817,609.3762356181901
818,608.8303786318946
819,608.3077910035707
820,607.8149132122558
821,607.3551792288988
822,606.928944253931
823,606.5337113618922
824,606.1646133094896
825,605.8150939096483
826,605.4777234211255
827,605.1450610768389
828,604.8104563522841
829,604.4686830286148
830,604.1163338372196
831,603.7519555670276
832,603.3759560822145
833,602.990347163943
834,602.598390991295
835,602.2042028441365
836,601.8123449169698
837,601.4274325021431
838,601.0537643173402
839,600.694984204173
840,600.3537805366007
841,600.0316316748002
842,599.7286134448645
843,599.4432968124755
844,599.1727714330311
845,598.9128246923837
846,598.6582867292337
847,598.4035257443453
848,598.1430470089467
849,597.8721162739168
850,597.5873068162443
851,597.2868770826205
852,596.9709289740066
853,596.6413579832248
854,596.3016492974596
855,595.9565705478266
856,595.6117772956817
857,595.2733343496856
858,594.947193153641
859,594.6387154064932
860,594.3523380899136
861,594.0914250052845
862,593.8582800094738
863,593.6542442083011
864,593.4797829202354
865,593.3344939034494
866,593.2170280408546
867,593.124981113474
868,593.0548527316174
869,593.0021535747107
870,592.9616865834303
871,592.9279614042016
872,592.8956494674482
873,592.8599691541056
874,592.8169172277819
875,592.763321795516
876,592.696753949702
877,592.6153779317003
878,592.5178365670739
879,592.4032562866774
880,592.2714108036256
881,592.1230135709328
882,591.9600426160647
883,591.7859661980482
884,591.6057473702056
885,591.4255528220496
886,591.2521608607927
887,591.0921427587067
888,590.9509631759133
889,590.8321779616053
890,590.7368813939742
891,590.663489373304
892,590.607882293251
893,590.5638899993252
894,590.5240633410658
895,590.4806241085774
896,590.4264346787847
897,590.3558173147301
898,590.2650936865521
899,590.1527849839945
900,590.0194819101175
901,589.867448194329
902,589.700057439427
903,589.5211747247035
904,589.3345792000932
905,589.143497878061
906,588.9503044707923
907,588.7564247521557
908,588.5624582894627
909,588.3684767466959
910,588.1744191447731
911,587.9804909536823
912,587.7874823326096
913,587.5969451497772
914,587.411202779157
915,587.2331985172801
916,587.0662084268305
917,586.9134555406197
