frame_number,force
0,653.5261300000438
1,653.0622939242123
2,652.6162580376987
3,652.2045646258761
4,651.8414186688162
5,651.5378982894127
6,651.3014757122277
7,651.1358035422899
8,651.0407027144902
9,651.0123116820789
10,651.0433959615375
11,651.1238418284745
12,651.2413500824431
13,651.3823101522898
14,651.5327906222795
15,651.6795517984327
16,651.8109828221226
17,651.9178838977606
18,651.9940352828002
19,652.0365100752963
20,652.0457011780886
21,652.0250504881702
22,651.9804991839096
23,651.9197252427907
24,651.8512791075517
25,651.7837411725767
26,651.724997698903
27,651.6816847864859
28,651.6588074629244
29,651.6595156795294
30,651.6850138221371
31,651.7345896246311
32,651.8057598311809
33,651.894533386339
34,651.9957845412581
35,652.1037089222016
36,652.212315640934
37,652.3159041227931
38,652.4094842834294
39,652.4891009887292
40,652.5520129081717
41,652.5966829183765
42,652.6225865826058
43,652.629909873626
44,652.6192368630193
45,652.5913084543079
46,652.5468920583756
47,652.4867685524922
48,652.4118246429537
49,652.3232305912069
50,652.2226777598743
51,652.1126396142009
52,651.9965999148329
53,651.8791728535922
54,651.7660418992143
55,651.6636772025886
56,651.5788439266745
57,651.5179628041785
58,651.486411474872
59,651.4878557392071
60,651.5236840746393
61,651.5926065171882
62,651.6904800616493
63,651.810421429522
64,651.9432428652179
65,652.0782002097203
66,652.2039928859587
67,652.3099102240974
68,652.3869802320522
69,652.4289563584415
70,652.4329856420717
71,652.3998429043771
72,652.333692520377
73,652.241437650321
74,652.1317986802388
75,652.0142925363691
76,651.8982587760668
77,651.7920239884268
78,651.7022483143741
79,651.6334768791348
80,651.5879194797901
81,651.5654828073871
82,651.5640631109154
83,651.5800723911962
84,651.6091312125965
85,651.6468299221592
86,651.6894406798533
87,651.7344537620428
88,651.7808224141004
89,651.8288497756075
90,651.87974252147
91,651.9349569599485
92,651.9955238067828
93,652.061532512325
94,652.1319016861493
95,652.2044862272145
96,652.2764877802166
97,652.3450573919408
98,652.4079321225119
99,652.4639480406289
100,652.513318066137
101,652.5576340260649
102,652.5996173235166
103,652.6426806801024
104,652.6903785049759
105,652.7458321433282
106,652.8112243645779
107,652.8874537832673
108,652.9740097159523
109,653.069073533773
110,653.1697985135966
111,653.2726922281423
112,653.3740278637189
113,653.4702282197495
114,653.5581818127044
115,653.6354614798398
116,653.7004323247612
117,653.752262873257
118,653.7908780361378
119,653.816898183275
120,653.8315933788379
121,653.8368544326256
122,653.8351552034491
123,653.829469530856
124,653.8231186399642
125,653.8195508262891
126,653.8220812405795
127,653.8336368087336
128,653.856551494745
129,653.8924390852482
130,653.9421431050537
131,654.0057361897666
132,654.0825256145649
133,654.1710291914222
134,654.2689138456666
135,654.3729211898889
136,654.4788267617969
137,654.5814881863025
138,654.675031408503
139,654.753202795906
140,654.8098791631801
141,654.8396841837446
142,654.8386261332174
143,654.8046640018812
144,654.7381192416034
145,654.641864007985
146,654.5212387359092
147,654.3836910890437
148,654.238171352291
149,654.0943469621523
150,653.9617136607237
151,653.8486974523504
152,653.7618588728872
153,653.7053104239752
154,653.6804266135357
155,653.6858697329776
156,653.7178937521445
157,653.7708488177866
158,653.8378021645888
159,653.9112060832994
160,653.9835606539829
161,654.0480312934319
162,654.0989878060859
163,654.1324272105139
164,654.146227882023
165,654.1401751273529
166,654.1157208902147
167,654.075498487781
168,654.022686425799
169,653.9603664007058
170,653.8910189097058
171,653.8162456550102
172,653.7367350759341
173,653.6524324961215
174,653.5628482887212
175,653.4674246059976
176,653.3658779080778
177,653.258446860529
178,653.1460066051413
179,653.0300499913515
180,652.9125638471319
181,652.7958334237328
182,652.6822019975094
183,652.5738139110296
184,652.4723819674388
185,652.3790310603044
186,652.2942633042829
187,652.2180607964752
188,652.1501015846934
189,652.0900299812782
190,652.0377047490473
191,651.993350149802
192,651.9575559138505
193,651.9311141699155
194,651.9147355460278
195,651.9087264801834
196,651.9127128131739
197,651.925468584883
198,651.9448789647305
199,651.9680473101964
200,651.9915464311797
201,652.011801744408
202,652.0255694559042
203,652.0304415554707
204,652.0252880493728
205,652.0105450309051
206,651.9882737755009
207,651.9619513216985
208,651.9360090801794
209,651.9152031875092
210,651.9039487341496
211,651.905747085172
212,651.9227816419367
213,651.9556908731379
214,652.0034863841335
215,652.0635793013494
216,652.131902392635
217,652.2031498581147
218,652.2711730856281
219,652.3295476176661
220,652.3722741440993
221,652.3945263966875
222,652.3933345148615
223,652.3680970253196
224,652.3208397403978
225,652.2561763014048
226,652.1809668338641
227,652.1037124116315
228,652.0337572212725
229,651.9803927825312
230,651.9519643012035
231,651.955066351383
232,651.9938943149963
233,652.0698052363864
234,652.1811382549504
235,652.3233331025187
236,652.4893471097896
237,652.6703136632925
238,652.8563441224932
239,653.0373777815654
240,653.2040116178576
241,653.3482530809889
242,653.4641285668112
243,653.5480795868463
244,653.5991102432555
245,653.6186961545807
246,653.6104944637112
247,653.5798992480732
248,653.5334848133522
249,653.4783863865312
250,653.4216814701939
251,653.3698436569027
252,653.3283295093801
253,653.3013222017657
254,653.2916105697502
255,653.3005581129565
256,653.328124271056
257,653.3729290780868
258,653.432384628428
259,653.5029319284947
260,653.5804010392017
261,653.6604607465324
262,653.739073274208
263,653.8128514695605
264,653.8792410795697
265,653.936509987794
266,653.9835942127751
267,654.019891448326
268,654.0450829794563
269,654.0590149513754
270,654.0616200119974
271,654.0528446537813
272,654.0325688861525
273,654.0005383099426
274,653.9563465528015
275,653.8995005642637
276,653.8295831063091
277,653.746504362991
278,653.6508074875105
279,653.5439635232652
280,653.4285697288353
281,653.3083666373362
282,653.1880254022678
283,653.0727223461524
284,652.9675823493166
285,652.8771022833763
286,652.804648601986
287,652.7520815306253
288,652.7195269734589
289,652.7053097329698
290,652.7060629416551
291,652.7170199509864
292,652.7324730170619
293,652.7463560345183
294,652.7528849342309
295,652.7471749144576
296,652.725751182344
297,652.6868812747102
298,652.6306860316655
299,652.5590305137271
300,652.4752387362337
301,652.3836990961573
302,652.2894292365856
303,652.1976570164975
304,652.1134495587587
305,652.0413886207605
306,651.9852661725341
307,651.9477783969251
308,651.930227530199
309,651.9322806287676
310,651.9518632640572
311,651.9852658182057
312,652.027499981643
313,652.072877914582
314,652.1157272490851
315,652.1511209830305
316,652.1754944929608
317,652.1870392943988
318,652.1858019834742
319,652.1734750157542
320,652.1529375113595
321,652.1276680895695
322,652.1011766895939
323,652.0765738392067
324,652.0563317962908
325,652.0422255116414
326,652.0353955700266
327,652.0364590916466
328,652.0456066064628
329,652.0626493436858
330,652.0870052713445
331,652.1176316037971
332,652.1529337447553
333,652.1907010934875
334,652.2281254421343
335,652.26194441171
336,652.2887259367773
337,652.305275103206
338,652.3091085813952
339,652.2989158217961
340,652.2749204405249
341,652.2390708010829
342,652.1950140452083
343,652.1478322455469
344,652.1035474465002
345,652.0684404250596
346,652.048268770603
347,652.0475042510446
348,652.0687332452131
349,652.1123593107806
350,652.1766861817711
351,652.258349686301
352,652.3529635061743
353,652.4558012077993
354,652.5623645006608
355,652.6687527820689
356,652.7718116486642
357,652.8690811356234
358,652.958596860492
359,653.0386281291684
360,653.1074572551059
361,653.1632971125753
362,653.2044039084603
363,653.2293804033594
364,653.2376012652029
365,653.2296447225592
366,653.2075958936534
367,653.1751079716412
368,653.1371696040126
369,653.0996122356983
370,653.0684670369014
371,653.0493124819304
372,653.0467242968333
373,653.0638765733257
374,653.1022992144171
375,653.1617908499653
376,653.2404887861082
377,653.3350855614617
378,653.4411649871043
379,653.5536181572411
380,653.6670848147755
381,653.7763526999819
382,653.8766592913997
383,653.9638811519474
384,654.0346380265139
385,654.0863503034159
386,654.1172671739266
387,654.1264577340353
388,654.1137588134553
389,654.0797000207087
390,654.0254439224991
391,653.9527613357628
392,653.8640277933902
393,653.7622163664853
394,653.6508777639846
395,653.5341115494283
396,653.4165260722415
397,653.3031677587916
398,653.1993846817596
399,653.1105848763816
400,653.0418696968038
401,652.9975677749669
402,652.9807431575214
403,652.9927764259392
404,653.0331139361992
405,653.0992536295798
406,653.1869924926111
407,653.2909088688832
408,653.4050034225049
409,653.523387969181
410,653.6409022927603
411,653.7535564469858
412,653.8587314559486
413,653.9551178251295
414,654.0424243285228
415,654.1209389977342
416,654.1910564091572
417,654.2528906284888
418,654.306067586698
419,654.3497371116405
420,654.3827776685249
421,654.4041123364502
422,654.4130371821661
423,654.4094841243732
424,654.3941782473205
425,654.36868602057
426,654.3353769554794
427,654.2973236765686
428,654.2581407847574
429,654.2217391927678
430,654.1919827103716
431,654.1722734069921
432,654.1651283912491
433,654.1718188735224
434,654.1921244064342
435,654.2242298271161
436,654.2647761882776
437,654.3090697598651
438,654.3514433968903
439,654.3857458035865
440,654.4059153010644
441,654.4065901535334
442,654.3837120256254
443,654.3350675508691
444,654.2606829750084
445,654.1629763831069
446,654.0466113686796
447,653.9180663039053
448,653.7849912991446
449,653.6554492712501
450,653.5371360314416
451,653.4366584686079
452,653.3589243872372
453,653.3066713769668
454,653.2801493232334
455,653.276975967438
456,653.2921975874065
457,653.3185944244863
458,653.3472611927782
459,653.3684571204666
460,653.3726603762576
461,653.3516997966503
462,653.2997985743225
463,653.214363056371
464,653.0963840878544
465,652.950383376604
466,652.7839211004205
467,652.6067547357441
468,652.4297770244663
469,652.2638712194392
470,652.1188285907936
471,652.0024699498186
472,651.9200685420752
473,651.8740890784675
474,651.8641894464109
475,651.8874187794794
476,651.9385682946273
477,652.010644511246
478,652.095429938228
479,652.1840986775641
480,652.2678690878881
481,652.3386792517508
482,652.3898526851543
483,652.4166987107701
484,652.4169798498323
485,652.3911768276408
486,652.3424900371106
487,652.2765419990939
488,652.2007912145478
489,652.1237234362189
490,652.0539310211052
491,651.9992046454441
492,651.9657425137871
493,651.9575481784092
494,651.9760551678936
495,652.0199890121751
496,652.0854589238816
497,652.1662676099397
498,652.2544334780379
499,652.3409199648777
500,652.4165496160032
501,652.4730457928137
502,652.5041032987659
503,652.5063498512775
504,652.4800264324084
505,652.4292046660258
506,652.361411786972
507,652.2866610859303
508,652.2160399186045
509,652.1601153657236
510,652.1274424108169
511,652.1234142144584
512,652.1496107725353
513,652.2037068786722
514,652.2799146636477
515,652.3698775293159
516,652.463897053862
517,652.552339742398
518,652.6270306526978
519,652.6824224302234
520,652.7163557149129
521,652.7302912996471
522,652.7289713425995
523,652.7195493466103
524,652.7103212253824
525,652.7092801819523
526,652.7227714854274
527,652.7545058084927
528,652.8050978757044
529,652.8721651405476
530,652.9508969940428
531,653.0349208907302
532,653.1172613360646
533,653.1912129986799
534,653.2510162970879
535,653.2923005596399
536,653.312313156309
537,653.3099725073505
538,653.2857834446639
539,653.2416508277101
540,653.1806216212157
541,653.1065741808698
542,653.0238657992818
543,652.9369571005963
544,652.8500511479848
545,652.766799708749
546,652.6901241714714
547,652.6221714736355
548,652.5643874073554
549,652.5176598976931
550,652.4824798704752
551,652.4590890328082
552,652.4476104633851
553,652.4481594900534
554,652.4609087946025
555,652.4860689035291
556,652.5237693635108
557,652.5738697363959
558,652.6357579917749
559,652.7081945480429
560,652.7892442414972
561,652.8763174266783
562,652.9663194179358
563,653.0558861659913
564,653.1416649018686
565,653.2205868327652
566,653.290082664003
567,653.3482082025728
568,653.3936651596173
569,653.425721227295
570,653.4440605756288
571,653.4486208731876
572,653.4394765268418
573,653.4168094269232
574,653.3809801755328
575,653.3326803312995
576,653.2731161391437
577,653.2041620673879
578,653.128435942593
579,653.0492725860244
580,652.970590540933
581,652.8966554485285
582,652.8317544405841
583,652.7798102545762
584,652.7439757235062
585,652.7262602091655
586,652.7272532066856
587,652.7460159683804
588,652.7801893177241
589,652.8263120586512
590,652.8802848373056
591,652.9378792889236
592,652.9951934637406
593,653.0489863623784
594,653.0968716484174
595,653.1373913219109
596,653.1700072597699
597,653.1950405819949
598,653.2135668540997
599,653.2272557478767
600,653.2381413552126
601,653.2483266324657
602,653.2596536142265
603,653.2733970216925
604,653.290048381663
605,653.3092421728143
606,653.3298427247323
607,653.3501767385624
608,653.3683675118976
609,653.382702565621
610,653.3919522015838
611,653.3955636121217
612,653.3936893069175
613,653.3870586910783
614,653.3767412155919
615,653.3638645475942
616,653.3493540511225
617,653.3337595162535
618,653.3172159968399
619,653.2995352563881
620,653.2803638249555
621,653.2593167382648
622,653.236027079167
623,653.2101167094232
624,653.1811441418429
625,653.1485954991505
626,653.111958413628
627,653.0708693570225
628,653.0252745279066
629,652.9755260700334
630,652.9223630035135
631,652.866776894525
632,652.8098022000629
633,652.7522872678358
634,652.6947003784669
635,652.6370138643737
636,652.5786932167994
637,652.5188017332415
638,652.4562141150175
639,652.389911027199
640,652.3193068757928
641,652.244555855882
642,652.1667839887325
643,652.0881962190704
644,652.0120116033363
645,651.9422022723381
646,651.8830565286962
647,651.8386372158782
648,651.81224001269
649,651.8059555169875
650,651.8204073307604
651,651.8546972066382
652,651.9065540905718
653,651.9726588886082
654,652.0490983317856
655,652.1318849987047
656,652.217464364608
657,652.3031243879383
658,652.387243685725
659,652.4693576084395
660,652.5500649431466
661,652.6308206438441
662,652.7136575394592
663,652.8008645129651
664,652.8946387472324
665,652.9967338768623
666,653.1081363839646
667,653.2288087792268
668,653.3575371008332
669,653.4919107394634
670,653.6284441810542
671,653.7628279251777
672,653.8902738114355
673,654.0058992894059
674,654.105083122796
675,654.1837354600755
676,654.2384618524243
677,654.2666460655275
678,654.2665033412808
679,654.2371512706778
680,654.1787199689238
681,654.092493685865
682,653.981048060858
683,653.8483236171667
684,653.6995708671001
685,653.5411279899714
686,653.3800365698474
687,653.2235376873612
688,653.0785073457916
689,652.9508924470166
690,652.8452046900854
691,652.7641265250409
692,652.7082833060201
693,652.6762308771494
694,652.6646866459778
695,652.6689931580732
696,652.6837524125564
697,652.70351923427
698,652.7234175539083
699,652.7395676656652
700,652.7492813831736
701,652.7510616193398
702,652.7444917370339
703,652.7300943817568
704,652.7091887297993
705,652.6837157173263
706,652.6559756231317
707,652.6282558106896
708,652.6024000345215
709,652.579427430266
710,652.5593062533695
711,652.5409369461744
712,652.5223415290952
713,652.5010133700332
714,652.4743539543315
715,652.4401112605589
716,652.396741117054
717,652.3436401099652
718,652.2812384952595
719,652.2109728720001
720,652.135163088741
721,652.0568048902496
722,651.9792867532358
723,651.9060582515145
724,651.8403011928214
725,651.7846592674439
726,651.7410605037861
727,651.710632983457
728,651.6936867144072
729,651.6897273477324
730,651.6974855335951
731,651.7149755488435
732,651.7396112571292
733,651.7683933837745
734,651.7981532442969
735,651.8258171076367
736,651.848652622287
737,651.8644694326697
738,651.8717643505693
739,651.8698254993635
740,651.8588255619167
741,651.8399157301678
742,651.8152793414043
743,651.7880598948086
744,651.7620853869211
745,651.7413694890457
746,651.7294455142827
747,651.728653317257
748,651.7395423139094
749,651.7605602950351
750,651.7881449607925
751,651.8172283438741
752,651.8420490032604
753,651.8570919693726
754,651.857959784131
755,651.842011835848
756,651.8086778229659
757,651.75943386175
758,651.6975016955723
759,651.6273721131453
760,651.5542539707756
761,651.483518189388
762,651.4201673714554
763,651.3683428709649
764,651.3308877526505
765,651.309000163972
766,651.3020206613103
767,651.3073963407603
768,651.320859182866
769,651.3368440424085
770,651.3491424530657
771,651.3517371103535
772,651.3397048383146
773,651.3100422955846
774,651.2622743941769
775,651.1987408800455
776,651.1245037576882
777,651.046870997537
778,650.9745919062243
779,650.9168383870935
780,650.882125394555
781,650.8773290603237
782,650.9069299554194
783,650.9725534878366
784,651.0728242272098
785,651.2035168786026
786,651.3579735955128
787,651.5277496611338
788,651.7034324309641
789,651.8755494739502
790,652.0354555262423
791,652.1760834663817
792,652.2924672351417
793,652.3819867057009
794,652.4443364258498
795,652.4812675094239
796,652.4961764149417
797,652.4936139430238
798,652.4787814209723
799,652.4570791931121
800,652.4337622304159
801,652.4137279566773
802,652.4014214153653
803,652.4008089002178
804,652.415356158336
805,652.447959258109
806,652.5008088579556
807,652.575202308317
808,652.6713386256923
809,652.7881382087019
810,652.9231267983845
811,653.0724174931513
812,653.2308218363477
813,653.3921196878447
814,653.5495045693541
815,653.6961829409328
816,653.8260496069859
817,653.9343219440026
818,654.0180249032754
819,654.0762678246754
820,654.1103059242052
821,654.1234112832026
822,654.1205878463188
823,654.1081555307243
824,654.0932148960691
825,654.0830071203894
826,654.0842065882536
827,654.1022110072935
828,654.1405148232897
829,654.2002549901393
830,654.279996238912
831,654.3757863520675
832,654.4814811116773
833,654.5893196293254
834,654.6907123458026
835,654.7771750990987
836,654.8413072521602
837,654.877687065699
838,654.8835547978955
839,654.8591694103947
840,654.8077584594862
841,654.7350479371329
842,654.6484578937583
843,654.556137418175
844,654.4660371627457
845,654.3851692341997
846,654.3191181955684
847,654.2717874945427
848,654.2453210070131
849,654.240137869462
850,654.2550494288676
851,654.2874632199711
852,654.3336908320593
853,654.3893533340444
854,654.4498394388296
855,654.5107497839764
856,654.5682669207604
857,654.6194106210945
858,654.6621561897559
859,654.6954108118417
860,654.7188701896977
861,654.7328121623877
862,654.7379038805074
863,654.7350865823754
864,654.7255626358537
865,654.7108621845108
866,654.6929272533712
867,654.674134676668
868,654.6572002268265
869,654.6449580315403
870,654.6400593868339
871,654.6446594276241
872,654.6601630732297
873,654.6870903554651
874,654.7250898628782
875,654.7730824473214
876,654.8294791169192
877,654.8924015037506
878,654.959837051999
879,655.0296860530163
880,655.0997102271461
881,655.1674531733796
882,655.23022807418
883,655.2852359467535
884,655.3298123107296
885,655.3617408892164
886,655.3795436844961
887,655.3826645241317
888,655.3715010809111
889,655.3472879354291
890,655.311870286855
891,655.2674282872117
892,655.2162185124354
893,655.1603907660916
894,655.1019103826825
895,655.0425735258849
896,654.9840644294185
897,654.9279860893589
898,654.875806169646
899,654.8286976487726
900,654.7873061210711
901,654.7515148377419
902,654.7202820324763
903,654.6915953660706
904,654.6625519521629
905,654.6295576456715
906,654.5886459063215
907,654.535916719726
908,654.4680702864041
909,654.3829655167959
910,654.2800910008109
911,654.1608232985267
912,654.0283854170494
913,653.8874938285226
914,653.7437519799895
915,653.6028891859138
916,653.4699685019737
917,653.3487005222763
