frame_number,force
0,646.0823300000284
1,646.3004835744626
2,646.5176948008375
3,646.7329044336609
4,646.9448243752296
5,647.1518523637616
6,647.3520537515556
7,647.5432503531576
8,647.7232269823423
9,647.8900190218468
10,648.0422019060052
11,648.1790884673737
12,648.3007657531533
13,648.4079619305753
14,648.5017970140216
15,648.5835034359484
16,648.6541932760382
17,648.7147224971492
18,648.7656808030684
19,648.8075072319778
20,648.8406873862396
21,648.8659565713617
22,648.8844388513893
23,648.8976783144701
24,648.9075415644741
25,648.9159924122853
26,648.9247709725115
27,648.9350428334138
28,648.947101038236
29,648.960192812217
30,648.9725125632522
31,648.9813706488533
32,648.9835179804048
33,648.975573881177
34,648.9544789051187
35,648.91789622925
36,648.8645103513024
37,648.7941904627631
38,648.7079875539574
39,648.6079442338372
40,648.4967330963883
41,648.3771822007825
42,648.2517640562969
43,648.1221200446456
44,647.9886879841555
45,647.8504990255207
46,647.7051961528061
47,647.5492952773351
48,647.37866878746
49,647.189188175501
50,646.9774255102402
51,646.7412959769753
52,646.4805353351547
53,646.1969434242827
54,645.8943710857229
55,645.5784659485771
56,645.2562175500639
57,644.935360336216
58,644.6237100471099
59,644.3285212969968
60,644.0559494925851
61,643.810671586208
62,643.5956795854164
63,643.4122293316268
64,643.2599139256508
65,643.136832872081
66,643.0398396950333
67,642.9648635255205
68,642.9072972725209
69,642.8624194468129
70,642.8257860752749
71,642.793517340964
72,642.7624184838281
73,642.7299142270347
74,642.6938343865207
75,642.6521437448124
76,642.6027316593559
77,642.5433519420357
78,642.4717422500894
79,642.385885794745
80,642.2843421594848
81,642.1665798797749
82,642.033267192287
83,641.8864886323462
84,641.7298520864632
85,641.5684521885062
86,641.4086679051496
87,641.2577876623053
88,641.1234763377057
89,641.0131319273431
90,640.9332171685356
91,640.8886717071548
92,640.8824994016297
93,640.9155842462384
94,640.986731198509
95,641.0928802067366
96,641.2294295301253
97,641.3906308087493
98,641.5700504678321
99,641.7610895448952
100,641.957513187504
101,642.1539046329274
102,642.3459709167777
103,642.5306814200454
104,642.7062652359435
105,642.872098461608
106,643.0284967546179
107,643.176428513121
108,643.3171926012393
109,643.4521373693066
110,643.582496070956
111,643.709367562256
112,643.8338117417787
113,643.9569923266605
114,644.0802944602056
115,644.2053638918395
116,644.3340484652944
117,644.4682559692527
118,644.6097564359225
119,644.759948328289
120,644.9195980237708
121,645.0885773390349
122,645.2656632886619
123,645.4484914728556
124,645.6337330577828
125,645.8174960858116
126,645.9958701583957
127,646.165477936424
128,646.3238886643703
129,646.4697914681564
130,646.6029039089497
131,646.7236687919824
132,646.8328348574503
133,646.9310189068025
134,647.0183301060998
135,647.0941213620453
136,647.1569151044994
137,647.2045201990574
138,647.2343159058634
139,647.2436416029111
140,647.230205176997
141,647.1924128887433
142,647.129542220984
143,647.0417349100712
144,646.9298552299705
145,646.7952921100704
146,646.6397652798728
147,646.4651556967375
148,646.2733578075172
149,646.066153793549
150,645.845120773034
151,645.6115879308882
152,645.3666641247846
153,645.1113571031494
154,644.8467866486981
155,644.5744487472604
156,644.296443522836
157,644.0155746950296
158,643.7352742085368
159,643.4593795125717
160,643.1918526824702
161,642.9365479235933
162,642.6971020553099
163,642.4769612369079
164,642.2794924439944
165,642.108083637727
166,641.9661347500041
167,641.8568880865317
168,641.7831130642363
169,641.7467086231821
170,641.7483086653201
171,641.7869841174085
172,641.8601287457329
173,641.963580527656
174,642.0919692644973
175,642.2392209408397
176,642.3991154474112
177,642.5657931659591
178,642.7341307307029
179,642.8999459794586
180,643.0600330045185
181,643.212058647217
182,643.3543708844895
183,643.485784440893
184,643.6054209960243
185,643.7126782535008
186,643.8073651386723
187,643.889968815791
188,643.9619484732193
189,644.0259259193034
190,644.0856737119776
191,644.1458627136782
192,644.2115963367697
193,644.2878124647405
194,644.3786637211384
195,644.4869882447338
196,644.6139643785926
197,644.7590099394839
198,644.9199372570805
199,645.0933126877109
200,645.2749145932831
201,645.4601622315879
202,645.6444131060703
203,645.8230908185765
204,645.9916788866914
205,646.1456627677411
206,646.2805133198043
207,646.3917948295392
208,646.4754534952917
209,646.5282875145382
210,646.5485241008531
211,646.5363633651889
212,646.4943271361134
213,646.4272843268312
214,646.3420993318708
215,646.2469398528974
216,646.1503589513079
217,646.060306614576
218,645.9832175669785
219,645.9232888075284
220,645.8820368538103
221,645.858208295311
222,645.8480764500106
223,645.8460816134287
224,645.8456908903757
225,645.8403057613233
226,645.824052897087
227,645.792346894805
228,645.7421837657236
229,645.6721871504822
230,645.5824712355068
231,645.4743950544316
232,645.3502655194123
233,645.2130195027069
234,645.0658958883956
235,644.9121075506214
236,644.7545416633842
237,644.5955361297151
238,644.4367779504682
239,644.2793451924657
240,644.1238790490329
241,643.9708312844554
242,643.8206965606308
243,643.6741384855518
244,643.5319728743042
245,643.395057470936
246,643.2641953350126
247,643.1401447575673
248,643.0237547207731
249,642.9161713892763
250,642.8190312245854
251,642.7345604764918
252,642.6655164273895
253,642.6149363081917
254,642.585712126724
255,642.5800657729166
256,642.5990314100902
257,642.642051375708
258,642.7067664750153
259,642.789044000238
260,642.8832435063598
261,642.9826788707959
262,643.080210680151
263,643.1689021188342
264,643.2426796270021
265,643.2969423564472
266,643.329063629195
267,643.338724925097
268,643.328017220999
269,643.3012507468037
270,643.2644571439871
271,643.2246475268332
272,643.1889679936525
273,643.1639242214037
274,643.1548121523061
275,643.1654145039201
276,643.1979459295285
277,643.253190318023
278,643.3307746717757
279,643.4295292708931
280,643.5478651210108
281,643.6840792515153
282,643.8365181025866
283,644.003590521787
284,644.1836826006507
285,644.3750463580125
286,644.5757113069615
287,644.7834345534785
288,644.9956886025869
289,645.2096840754153
290,645.4224258791194
291,645.6308072695426
292,645.8317541876179
293,646.022425221708
294,646.2004441944968
295,646.3641136267962
296,646.5125524397552
297,646.6457211282926
298,646.7643288241813
299,646.8696495537217
300,646.9632979883061
301,647.0470117992596
302,647.1224590083344
303,647.1910592224643
304,647.2538006932606
305,647.3110534731455
306,647.3624100226208
307,647.4066091915868
308,647.4415980359945
309,647.464752003348
310,647.4732238808082
311,647.4643541542672
312,647.4360662187238
313,647.3871810102135
314,647.3176019634785
315,647.2283412695992
316,647.1213866282095
317,646.9994381488202
318,646.865568342902
319,646.7228719246184
320,646.574175696999
321,646.4218705943059
322,646.2679071168225
323,646.1139576792694
324,645.9616958942624
325,645.813094212748
326,645.6706244931382
327,645.537269985953
328,645.4163137182411
329,645.3109405909877
330,645.2237516091915
331,645.1563125171049
332,645.1088422637822
333,645.0801035844311
334,645.0675025976843
335,645.067353513431
336,645.0752426739537
337,645.0864442633293
338,645.0963745911623
339,645.101081104517
340,645.0977308211328
341,645.0850221573477
342,645.0634395735948
343,645.0353112776955
344,645.004680536067
345,644.9770225676956
346,644.9588307048552
347,644.9570844414077
348,644.9786172076242
349,645.0294209716266
350,645.11394559274
351,645.2344637384143
352,645.390577806021
353,645.5789509930389
354,645.7933476689908
355,646.025047453248
356,646.2636368283407
357,646.4980987709706
358,646.718052551199
359,646.9149640282909
360,647.0831479363325
361,647.2204099316028
362,647.3282256294884
363,647.4114233025674
364,647.4774173451518
365,647.5351171095273
366,647.5936915475403
367,647.6613852143826
368,647.7445494640097
369,647.8469903930043
370,647.9696710685515
371,648.1107577157343
372,648.2659650168273
373,648.4291284211362
374,648.5929187792505
375,648.749622240688
376,648.8919206125647
377,649.0136049089497
378,649.110143299386
379,649.1790309816186
380,649.2198902618567
381,649.2343471967464
382,649.2257476363396
383,649.1987697911421
384,649.1589641361022
385,649.1122448106458
386,649.0643820554288
387,649.0205708777495
388,648.9851364239856
389,648.9613797727625
390,648.9515095239789
391,648.9565864894882
392,648.9764412153074
393,649.0095846382586
394,649.0531831291579
395,649.1031814414849
396,649.1546263291713
397,649.2021849415598
398,649.2407900472473
399,649.2663046678931
400,649.2760920616955
401,649.2693922130348
402,649.2474322400301
403,649.2132373007857
404,649.1711614968964
405,649.1262151471387
406,649.0833121499272
407,649.0465841199897
408,649.0188897120918
409,649.0015875056868
410,648.9945701000393
411,648.9965124228526
412,649.0052739971956
413,649.0183912583205
414,649.0335852872449
415,649.0491973593688
416,649.0644659916604
417,649.0795835571289
418,649.095513449136
419,649.1136034068726
420,649.135088939183
421,649.1606195948223
422,649.189930968182
423,649.2217266101063
424,649.2537623957634
425,649.2830794197617
426,649.3063214362174
427,649.320085738645
428,649.3212712890286
429,649.3073930957567
430,649.2768306788713
431,649.2289810618345
432,649.1643000737288
433,649.0842407829289
434,648.991126209824
435,648.8880104282035
436,648.7785796825228
437,648.6671232751926
438,648.5585646552239
439,648.4584958152639
440,648.3731243933959
441,648.3090460920878
442,648.2728026331082
443,648.2702582983095
444,648.3058930008116
445,648.3821468509215
446,648.4989588597712
447,648.6536197241135
448,648.8410010456203
449,649.0541401237365
450,649.2850783484901
451,649.5257981056042
452,649.7690869921813
453,650.0091789004484
454,650.2420759659328
455,650.4655274150563
456,650.6787052646396
457,650.8816627939806
458,651.0746976034629
459,651.2577600226728
460,651.4300254273467
461,651.5896863282944
462,651.7339557325765
463,651.8592436313969
464,651.9614742271588
465,652.0365263491467
466,652.0807764210368
467,652.0916946720447
468,652.0684070515584
469,652.0121128065297
470,651.9262564897513
471,651.8163929033481
472,651.6897425976313
473,651.5544961782863
474,651.4189674925356
475,651.2907074405385
476,651.1756803067195
477,651.0775922113241
478,650.9974557670865
479,650.9334666449396
480,650.8812367097578
481,650.8343695951492
482,650.7853012794029
483,650.7262880661132
484,650.650410940588
485,650.5524648412077
486,650.4296089221504
487,650.2816804830198
488,650.1111275433326
489,649.9225788682164
490,649.722126036248
491,649.5164350037267
492,649.311836393858
493,649.1135548869072
494,648.9252112761935
495,648.7486647157593
496,648.58418333947
497,648.4308684926682
498,648.2872178042426
499,648.1516883993254
500,648.0231203164988
501,647.900919856273
502,647.7849848121045
503,647.6754471257595
504,647.5723659393497
505,647.4754984919513
506,647.3842236206234
507,647.2976317157527
508,647.214749935361
509,647.1348414176616
510,647.0576978408144
511,646.9838431924401
512,646.9145908767383
513,646.8519388980873
514,646.7983295298251
515,646.7563262725793
516,646.7282694825249
517,646.7159647580655
518,646.7204384126761
519,646.741772650054
520,646.7790233700048
521,646.8302276627961
522,646.8925123685473
523,646.9623081937975
524,647.035658373771
525,647.108593768919
526,647.1775306357545
527,647.239637205191
528,647.2931168465092
529,647.3373706121049
530,647.3730250507582
531,647.4018334322644
532,647.4264731132748
533,647.4502673425541
534,647.476857708213
535,647.5098488122226
536,647.5524513952764
537,647.6071657386713
538,647.6755514729289
539,647.7581065792003
540,647.8542462217762
541,647.9623560001859
542,648.0798919681553
543,648.2035023687724
544,648.3291616180836
545,648.4523392136844
546,648.5682486709898
547,648.6722024770402
548,648.7600459575143
549,648.8285974839055
550,648.876013332502
551,648.9020199457785
552,648.9079957683613
553,648.8969158982767
554,648.8731770458833
555,648.8423023799274
556,648.8105124405984
557,648.784160987026
558,648.7690732245471
559,648.7698712535802
560,648.7894009466297
561,648.828362089279
562,648.8851918961817
563,648.9561936881645
564,649.0358704763594
565,649.1174184023031
566,649.1933329246351
567,649.2560690768678
568,649.2986926020228
569,649.3154727266972
570,649.3023765441699
571,649.2574102361613
572,649.1807448691137
573,649.0746039343354
574,648.9429549026197
575,648.7910789363235
576,648.6250744814045
577,648.4513208037032
578,648.2759246278519
579,648.1041964724609
580,647.9402303716986
581,647.7866693040995
582,647.6447133833475
583,647.5143700243793
584,647.3948819711651
585,647.285233287521
586,647.1846325179954
587,647.0928890575583
588,647.0106194341832
589,646.93924877911
590,646.8808190918442
591,646.8376709884963
592,646.8120987224877
593,646.8060677051003
594,646.8210385940926
595,646.8578897234249
596,646.9168953633346
597,646.9977130520577
598,647.0993558151418
599,647.2201591904975
600,647.3577773610706
601,647.5092441271221
602,647.6711201587627
603,647.8397331473353
604,648.0115027213958
605,648.1833187750296
606,648.3529152727822
607,648.5191701065053
608,648.6822744598944
609,648.8437432436946
610,649.0062667049419
611,649.1734220478975
612,649.3492702354582
613,649.5378660452471
614,649.7427192490396
615,649.9662575538279
616,650.2093490852423
617,650.4709437543778
618,650.7478892204971
619,651.0349654997564
620,651.3251638029237
621,651.6102099626752
622,651.8812948217396
623,652.1299270968085
624,652.3487929864732
625,652.5325135400507
626,652.678226833478
627,652.7859531505296
628,652.8587039055033
629,652.9022836490047
630,652.9247492703021
631,652.9355508069842
632,652.9444569678567
633,652.9604205034103
634,652.9905456042641
635,653.0392935272727
636,653.1080181320027
637,653.1948696074784
638,653.2950577594263
639,653.4014380916894
640,653.50536559854
641,653.597728835985
642,653.6700234237679
643,653.7152830690393
644,653.7287063257029
645,653.7079054457026
646,653.6528103175415
647,653.565328547516
648,653.4488755068586
649,653.3078686577949
650,653.1472569103516
651,652.972135063412
652,652.787467895044
653,652.5979173929088
654,652.4077387742088
655,652.220694275871
656,652.0399347840117
657,651.8678253098902
658,651.7057383562933
659,651.5538868600242
660,651.4112825738342
661,651.2758693640866
662,651.1448124151563
663,651.0148663258323
664,650.8827314940315
665,650.745341430133
666,650.6000743060495
667,650.4449105116472
668,650.2785506104643
669,650.1004897375154
670,649.9110408202733
671,649.7113014788703
672,649.5030509738253
673,649.2885585207516
674,649.070309654168
675,648.8507042028983
676,648.631805745973
677,648.4152044352603
678,648.2020108923424
679,647.9929580016125
680,647.7885618079533
681,647.589282622433
682,647.3956349343373
683,647.208222672944
684,647.0277184985841
685,646.8548428250132
686,646.6904075352318
687,646.5354579397085
688,646.3914810519577
689,646.2605819716761
690,646.1455078996859
691,646.0494405619739
692,645.9755614339495
693,645.926478436971
694,645.9036535145957
695,645.9069772971741
696,645.9346078692608
697,645.9831347425662
698,646.0480559894004
699,646.1244831895257
700,646.2079340529045
701,646.2950477038206
702,646.3840666239068
703,646.4749699602362
704,646.5692083702111
705,646.6690727971002
706,646.7768174593698
707,646.8937291795714
708,647.0193642023894
709,647.1511467388372
710,647.2844462932264
711,647.4131376938933
712,647.530521014128
713,647.630376604975
714,647.7078974620375
715,647.7602938569377
716,647.7869730945966
717,647.7893087396949
718,647.7700968380371
719,647.7328434708201
720,647.681035603355
721,647.6175195051018
722,647.5440667482885
723,647.461166262186
724,647.3680447676885
725,647.2628823131706
726,647.1431612454179
727,647.0060801545559
728,646.8489815242189
729,646.6697658055031
730,646.4672733048604
731,646.2416045235343
732,645.9943362439972
733,645.7285907432827
734,645.4489298801604
735,645.1610694380895
736,644.8714402881384
737,644.5866559291105
738,644.3129655668264
739,644.0557659287821
740,643.8192186509218
741,643.605990645114
742,643.417116068663
743,643.2519742586181
744,643.1083813692495
745,642.9827904000811
746,642.8705825776623
747,642.7664276691546
748,642.6646970234937
749,642.5599178940147
750,642.4472541071689
751,642.3229882952326
752,642.1849597773748
753,642.0328821102756
754,641.8684508762863
755,641.695181895576
756,641.5179919715667
757,641.3426171711699
758,641.1750124162993
759,641.0208649334172
760,640.8852963142169
761,640.7727537016842
762,640.6870208086335
763,640.6312351274943
764,640.6078047763879
765,640.6181814435299
766,640.6625321635557
767,640.7394140614388
768,640.8455655983828
769,640.9758971474029
770,641.123724083323
771,641.2812507065133
772,641.4402742674396
773,641.5930320358997
774,641.73307743319
775,641.856060864492
776,641.9603041923846
777,642.0470795800654
778,642.1205315477753
779,642.1872290130334
780,642.2554019394119
781,642.3339781749182
782,642.4315603745817
783,642.5554651202336
784,642.7109096785041
785,642.9004070685775
786,643.1234230621752
787,643.3763373757887
788,643.6527212785198
789,643.943905305639
790,644.2397738710639
791,644.5296883398008
792,644.8034177273277
793,645.0519639418912
794,645.268200398534
795,645.4472781938754
796,645.5867859839412
797,645.6866794802974
798,645.7490188157524
799,645.7775642879155
800,645.777288146711
801,645.7538637570385
802,645.7131911821181
803,645.6610121496544
804,645.6026589259994
805,645.5429631213655
806,645.4863155534816
807,645.4368258633737
808,645.3984988961834
809,645.3753352415293
810,645.3712766096045
811,645.3899547934421
812,645.4342658716855
813,645.5058556826438
814,645.6046293367866
815,645.7283749629338
816,645.8725498076163
817,646.0302501527578
818,646.1923837131684
819,646.3480712656836
820,646.4853054812497
821,646.5918742010473
822,646.6565053850561
823,646.6701182804595
824,646.626994123362
825,646.5256481953024
826,646.3692228093289
827,646.1653160266861
828,645.9252676700181
829,645.6630090365571
830,645.3936412967101
831,645.1319401009309
832,644.8909866746703
833,644.6811022420347
834,644.509217712148
835,644.3787390917156
836,644.2898716566931
837,644.2402716527897
838,644.2258473450768
839,644.2415468477759
840,644.2820202276155
841,644.3420934060548
842,644.4170330288348
843,644.5026226587499
844,644.5951132381094
845,644.6911413833881
846,644.7877040297759
847,644.8822273428037
848,644.9726993212228
849,645.0577967656171
850,645.1369480337717
851,645.2103107369308
852,645.278678793072
853,645.3433547628972
854,645.4060254065892
855,645.4686561058951
856,645.5333864654403
857,645.6023914649446
858,645.6776817225588
859,645.7608461517584
860,645.852781738372
861,645.9534917987675
862,646.0620362357552
863,646.1766724417475
864,646.2951598615496
865,646.4151524836115
866,646.5345863076581
867,646.6519772280884
868,646.7665720104793
869,646.8783339274421
870,646.9877806433329
871,647.0957175056276
872,647.20293210946
873,647.3099342042292
874,647.4168178423467
875,647.5232815271967
876,647.6287883757067
877,647.7328083985458
878,647.8350657834014
879,647.9357098311536
880,648.0353418224704
881,648.1348745273366
882,648.2352714787366
883,648.3372691212429
884,648.4411841204084
885,648.5468539100173
886,648.6536942244956
887,648.7608220574969
888,648.8671953648613
889,648.9717415362642
890,649.0734598866668
891,649.1714901582501
892,649.2651528603026
893,649.3539764700384
894,649.4377109848718
895,649.5163027705322
896,649.589806727002
897,649.6582408183541
898,649.7214150570675
899,649.7787717502442
900,649.829262716262
901,649.8712778559243
902,649.9026351661873
903,649.9206450061534
904,649.922268720665
905,649.9043918929967
906,649.864207687032
907,649.7996610442424
908,649.7098749847354
909,649.5954876682085
910,649.4588531541838
911,649.3040710950827
912,649.1368125941763
913,648.9639232652296
914,648.7928210669069
915,648.6307566627967
916,648.4840479078333
917,648.3574178526063
