frame_number,force
0,600.9946900000385
1,600.9925473865983
2,600.9893866195091
3,600.984016087365
4,600.9750187151363
5,600.9608777707244
6,600.9402522259722
7,600.9123199379464
8,600.8770994885577
9,600.8356811287183
10,600.7903233336909
11,600.744394894323
12,600.7021567146642
13,600.6683838911016
14,600.6478459525592
15,600.644705258904
16,600.6619398255917
17,600.7009080202107
18,600.7611365009159
19,600.8403540601697
20,600.9347406403732
21,601.0393245990934
22,601.1484500189347
23,601.2562537229837
24,601.3571223450809
25,601.4461140905275
26,601.5193192769044
27,601.574121107905
28,601.6093275101564
29,601.6251709836251
30,601.6231914096373
31,601.6060189488043
32,601.5770772845599
33,601.5402413804904
34,601.4994969682838
35,601.4586480899794
36,601.42110375548
37,601.3897505990707
38,601.3668919585838
39,601.3542151960706
40,601.352748788008
41,601.3627901783401
42,601.3838128666407
43,601.4143833203535
44,601.4521347716015
45,601.4938593746474
46,601.5357792618612
47,601.57401768841
48,601.6052119874824
49,601.6271264789948
50,601.6390897622382
51,601.6421250976558
52,601.6387421527045
53,601.6324614088594
54,601.627206362287
55,601.6267076514713
56,601.6340270694905
57,601.6512521984947
58,601.6793578692628
59,601.7181939962223
60,601.7665485490654
61,601.8222489624875
62,601.8822913130542
63,601.9430045101556
64,602.0002580336707
65,602.049711545156
66,602.08709079319
67,602.108463205499
68,602.1104870124418
69,602.0906258615386
70,602.0473470338766
71,601.980328015324
72,601.8906647400976
73,601.7810243528697
74,601.6556588397768
75,601.5202181122334
76,601.381358407776
77,601.2461995697971
78,601.1217182452478
79,601.0141713010338
80,600.9286318287515
81,600.8686919054608
82,600.8363457691975
83,600.8320259347914
84,600.8547388228938
85,600.902246051349
86,600.971256827032
87,601.0576181839963
88,601.1565054687434
89,601.2626320316921
90,601.3705119365454
91,601.4748031788263
92,601.5707210851806
93,601.6544626192876
94,601.7235581054372
95,601.7770829815152
96,601.8156999374299
97,601.841532216156
98,601.857884171028
99,601.8688388221724
100,601.8787815972885
101,601.891913876772
102,601.9118167293518
103,601.9411048207814
104,601.9811861897391
105,602.0321334767033
106,602.0926815208188
107,602.1603744693575
108,602.2318658239484
109,602.3033287604189
110,602.3708948840595
111,602.4310384032574
112,602.4808559355033
113,602.5182273166902
114,602.5418587509922
115,602.5512184846606
116,602.5463928865001
117,602.5279085733409
118,602.4965692635618
119,602.4533453482532
120,602.399335159194
121,602.3357914122374
122,602.2641818226194
123,602.1862408081234
124,602.1039721126912
125,602.0195750190039
126,601.9352887711766
127,601.8531821466244
128,601.7749482870848
129,601.7017799704953
130,601.6343823432578
131,601.5731284984062
132,601.5182993509582
133,601.4703095457558
134,601.4298324052595
135,601.3977905961656
136,601.3752357698054
137,601.363165382848
138,601.3623173468272
139,601.3729674281248
140,601.3947496071013
141,601.426521815756
142,601.4662930263701
143,601.5112125469634
144,601.5576179548917
145,601.6011545143324
146,601.6369977663182
147,601.6602032943292
148,601.6661671962769
149,601.651133677877
150,601.6126649737341
151,601.5500035595784
152,601.4642934246166
153,601.3586598410502
154,601.2381517444894
155,601.1095299280878
156,600.9808700288798
157,600.8609670426324
158,600.7585705131231
159,600.6815261438156
160,600.6359369087672
161,600.6254727164062
162,600.6509395905069
163,600.7101671041581
164,600.7982077558809
165,600.907794161021
166,601.0299817586006
167,601.1549060178908
168,601.2725929171248
169,601.3737737918724
170,601.450655300744
171,601.4975697597062
172,601.5114020353927
173,601.4916999578007
174,601.4404383803837
175,601.3614899716736
176,601.2599198846422
177,601.1412482240728
178,601.0108107739059
179,600.8733052274155
180,600.732558710621
181,600.5915095299043
182,600.4523663202
183,600.3168907032373
184,600.1867423480238
185,600.0638206246265
186,599.9505304204274
187,599.8498988097795
188,599.765487395557
189,599.701083229932
190,599.6601944892852
191,599.6454154417705
192,599.657764051947
193,599.6961335645809
194,599.7570126402169
195,599.8345900701912
196,599.9212669085249
197,600.0084843127408
198,600.0876975516084
199,600.1513231321322
200,600.1935356006536
201,600.2108389857714
202,600.2023600401084
203,600.1698289893012
204,600.1172549061702
205,600.0503588889969
206,599.9758704038716
207,599.9008025335723
208,599.8318019079039
209,599.7746352539007
210,599.7338447610268
211,599.7125796778757
212,599.7125822723182
213,599.734279368931
214,599.7769265626298
215,599.8387743998503
216,599.9172540821825
217,600.0091931368559
218,600.1110631279022
219,600.219239429169
220,600.3302293969543
221,600.4408151026349
222,600.5480770889758
223,600.6493163807903
224,600.7419438359126
225,600.8234250156833
226,600.891345474658
227,600.9436069993908
228,600.9787015117272
229,600.995966099079
230,600.9957237173268
231,600.979257019413
232,600.9486217785243
233,600.9063546804528
234,600.8551556058935
235,600.7976271701453
236,600.736136765415
237,600.672831678501
238,600.6097955342423
239,600.5492971499308
240,600.4940563468717
241,600.44743454102
242,600.4134549091116
243,600.3965795450652
244,600.4012298005247
245,600.4311225882449
246,600.4885731842896
247,600.5739400690455
248,600.6853476426428
249,600.818747526798
250,600.9683054665694
251,601.127043894595
252,601.2876313455786
253,601.4431922515305
254,601.5880176007089
255,601.7180876256344
256,601.8313644037347
257,601.9278546325104
258,602.009459050093
259,602.0796189791264
260,602.1427728200019
261,602.2036689216616
262,602.2666326765495
263,602.3349144201671
264,602.4102251623794
265,602.4925166933023
266,602.5800168450039
267,602.6695010803697
268,602.7567543698244
269,602.8371459913142
270,602.9062199650919
271,602.9602131315171
272,602.9964464862506
273,603.013569707669
274,603.0116590408719
275,602.9921805237441
276,602.9578441607129
277,602.9123888720557
278,602.8603410144522
279,602.8067707120272
280,602.7570366927526
281,602.7164861192565
282,602.6900819371782
283,602.6819649530655
284,602.6950004028025
285,602.7303852099647
286,602.7873909458892
287,602.863294577727
288,602.9535175907206
289,603.0519637329203
290,603.1515189189856
291,603.2446505796852
292,603.3240247372909
293,603.3830696877092
294,603.4164583258181
295,603.4205182414959
296,603.3935741479149
297,603.3361943804172
298,603.2512909369535
299,603.1440267665585
300,603.0215036575412
301,602.8922292886333
302,602.7653934114571
303,602.6500177609224
304,602.5540735131998
305,602.4836781354456
306,602.4424851145864
307,602.4313605027636
308,602.448400314506
309,602.4892858195273
310,602.547907030108
311,602.617129009523
312,602.6895571633438
313,602.7581857374788
314,602.816872567954
315,602.8606432992535
316,602.885865047051
317,602.8903351762889
318,602.8733149861522
319,602.8355164758981
320,602.7790342793484
321,602.7072112290438
322,602.6244378497822
323,602.5359012245768
324,602.4472958368889
325,602.3644893337251
326,602.2931255822889
327,602.2381614426873
328,602.2033655534694
329,602.1908437070823
330,602.20067939568
331,602.2307724203293
332,602.2769239960938
333,602.3331757223776
334,602.392378171845
335,602.4469364904498
336,602.48964690823
337,602.5145114311398
338,602.5174188043666
339,602.4966077679484
340,602.4528615699047
341,602.3894063553396
342,602.3115071274456
343,602.2257871549887
344,602.1393480039934
345,602.0588290630774
346,601.989583673268
347,601.9351285163302
348,601.8969448882322
349,601.8746114599946
350,601.8661686953609
351,601.8685813951241
352,601.8781846169429
353,601.8910501885921
354,601.9032593902624
355,601.9110901098212
356,601.9111350460174
357,601.900381328244
358,601.8762970854378
359,601.8369670345858
360,601.7812946506798
361,601.709259311539
362,601.6221912122885
363,601.5230021476901
364,601.4162912392799
365,601.3082432462246
366,601.206260390564
367,601.1183183984098
368,601.0521076372656
369,601.0140884620613
370,601.0086272022057
371,601.0373711024799
372,601.0989708599124
373,601.1891851744371
374,601.3013290106114
375,601.4269768831056
376,601.5568094278915
377,601.6814934768802
378,601.7925078961447
379,601.8828557537529
380,601.9476207230689
381,601.9843277155832
382,601.9930669572619
383,601.9763517718079
384,601.9387082152456
385,601.8860366550839
386,601.8248309928953
387,601.7613703768071
388,601.7009958727715
389,601.6475559571556
390,601.6030668140254
391,601.5676015632325
392,601.539406996315
393,601.5152436442377
394,601.4909341601314
395,601.4620698303092
396,601.4247758909917
397,601.376403429488
398,601.3160255093673
399,601.2446682954097
400,601.165273307096
401,601.0824303287351
402,601.0019386655028
403,600.9302619783238
404,600.8739363504784
405,600.8389637494553
406,600.8301939806132
407,600.8507041674966
408,600.9012312910953
409,600.9797652934235
410,601.0814265631525
411,601.1987144708035
412,601.3221352553585
413,601.441133384886
414,601.545194556967
415,601.6249665505225
416,601.6732421634603
417,601.6856644493542
418,601.6610609866374
419,601.60139007774
420,601.5113611403663
421,601.3978412371775
422,601.2691639678349
423,601.134425542292
424,601.0028126826719
425,600.882981281908
426,600.7824975324774
427,600.707355781608
428,600.6615913140683
429,600.6470071228504
430,600.6630312338972
431,600.7067186984879
432,600.7729117613565
433,600.8545712572126
434,600.9432900528103
435,601.0299895572269
436,601.1057704631487
437,601.162836771576
438,601.1953625843245
439,601.2001588346483
440,601.1770327927219
441,601.128794919466
442,601.0609257859023
443,600.9809592925142
444,600.8976716737359
445,600.8201892169748
446,600.7571340843782
447,600.7159092641265
448,600.7021783922261
449,600.7195411296019
450,600.7693747694444
451,600.8508223829456
452,600.9609289983983
453,601.0949257179317
454,601.2466382927589
455,601.4089759425988
456,601.574451297381
457,601.7356890847468
458,601.8858933183307
459,602.0192571496174
460,602.1313095526207
461,602.2191880515594
462,602.2818045360569
463,602.3198478678986
464,602.3355691474022
465,602.3323391129038
466,602.3140397463907
467,602.2844152207052
468,602.2465233261394
469,602.2023934116738
470,602.1529400784991
471,602.0981292220567
472,602.037344710447
473,601.9698575268219
474,601.8952731958614
475,601.8138512019185
476,601.7266488810585
477,601.6355073461411
478,601.5429302504951
479,601.4518991119535
480,601.3656454002111
481,601.2873883310132
482,601.2200572143233
483,601.1660355323462
484,601.1269704211688
485,601.103675189157
486,601.0961228471197
487,601.103507281633
488,601.1243479722507
489,601.1566236266624
490,601.1979224699717
491,601.2455901076988
492,601.2968524732057
493,601.3489007499159
494,601.3989420212922
495,601.4442317034326
496,601.4821094086179
497,601.5100656132325
498,601.5258691549739
499,601.5277702217754
500,601.5147575961303
501,601.4868123622655
502,601.4450849159041
503,601.3919336976961
504,601.3307953955824
505,601.2658946014966
506,601.2018311319232
507,601.1430966803811
508,601.0935733618248
509,601.0560663435763
510,601.0319282617346
511,601.0208413149717
512,601.0208223539728
513,601.0284948729927
514,601.0396227445565
515,601.0498277465616
516,601.055341967249
517,601.0536214186121
518,601.0436946571662
519,601.0262126059058
520,601.0032441481465
521,600.9778907993447
522,600.9537836724878
523,600.9345136111507
524,600.9230558253741
525,600.9212740236527
526,600.9295969273405
527,600.9469369160014
528,600.9708743804587
529,600.9980799128833
530,601.0249016752651
531,601.0480100883647
532,601.0649735295102
533,601.0746525129315
534,601.0773490398769
535,601.0747110807642
536,601.0694414601958
537,601.0648829151886
538,601.0645500522927
539,601.0716618079704
540,601.0887048467591
541,601.1170486654825
542,601.1566505193007
543,601.2059128578512
544,601.2617522483482
545,601.3199018908416
546,601.3754235356816
547,601.4233632910913
548,601.4594527326317
549,601.4807437456445
550,601.486082681703
551,601.4763660992181
552,601.4545537185456
553,601.4254317170713
554,601.3951304112746
555,601.3704225183811
556,601.3578640102592
557,601.362876690989
558,601.388901469667
559,601.4367685704834
560,601.504421477239
561,601.5870811095682
562,601.6778503529655
563,601.7686597501968
564,601.8513734829653
565,601.9188429988806
566,601.9657306218709
567,601.9890069509806
568,601.9881098561716
569,601.9648092381642
570,601.9228472146493
571,601.8674278274308
572,601.8046225189297
573,601.7407450383561
574,601.6817441830243
575,601.6326709297913
576,601.597282394483
577,601.5778277849566
578,601.5750244179931
579,601.5881963139169
580,601.6155275695786
581,601.6543783428547
582,601.7016162799383
583,601.753921581023
584,601.8080316597627
585,601.8609151822101
586,601.9099013278484
587,601.9528054230824
588,601.9880659872734
589,602.0148697259623
590,602.0332340802106
591,602.0440382465706
592,602.0490008324334
593,602.0505802689007
594,602.0517558799246
595,602.0556678609624
596,602.0651487427311
597,602.0822328743271
598,602.1077531057098
599,602.1411174449577
600,602.1803170809332
601,602.2221708990514
602,602.2627701116694
603,602.2980494466445
604,602.3243821718867
605,602.3390872193673
606,602.3407582656428
607,602.3293742045596
608,602.3062065802402
609,602.2735730069785
610,602.234487139297
611,602.1922461909867
612,602.1500003728208
613,602.1103643526593
614,602.0751404990921
615,602.0452135312904
616,602.0206437025972
617,602.0009359585745
618,601.985411634535
619,601.9735811390074
620,601.965422358131
621,601.961499010026
622,601.9628904836544
623,601.9709455811125
624,601.9869130752429
625,602.0115296273863
626,602.0446518109355
627,602.0850106796508
628,602.1301552778154
629,602.1766292377501
630,602.2203741591527
631,602.257278300177
632,602.2837280321762
633,602.2970173193393
634,602.2955361120111
635,602.2787505902338
636,602.2470451501154
637,602.2014926650463
638,602.1435875880327
639,602.0749602263753
640,601.9971021671128
641,601.9111575641285
642,601.8178509280032
643,601.7176099075285
644,601.6108960965557
645,601.4986900339743
646,601.3830092647671
647,601.2672968072836
648,601.156523606288
649,601.0569046191146
650,600.9752188915036
651,600.9178302330175
652,600.8896019332645
653,600.8929495741777
654,600.9272497287445
655,600.988726707228
656,601.0708215657083
657,601.1649538320656
658,601.261532978491
659,601.351059978031
660,601.4251724685419
661,601.4775203393266
662,601.5043976168988
663,601.5050862975409
664,601.4818835854502
665,601.4397990913448
666,601.3859391039857
667,601.3286401187617
668,601.2764576135986
669,601.2371429561296
670,601.2167459048153
671,601.2189662872905
672,601.2448453879854
673,601.2928268167441
674,601.3591381970333
675,601.4383873996504
676,601.5242545234106
677,601.6101762931062
678,601.6899420283033
679,601.7581520854309
680,601.810529233471
681,601.8441031114468
682,601.8572981954482
683,601.8499509992656
684,601.8232669509267
685,601.7797089892146
686,601.7228037431745
687,601.6568658215674
688,601.5866669717802
689,601.5170944847633
690,601.4528369297026
691,601.3981110946189
692,601.3564267912947
693,601.3303909325091
694,601.321566913752
695,601.3304101954227
696,601.3562919401375
697,601.3976065357642
698,601.4519412207759
699,601.5162744656983
700,601.5871764130036
701,601.6610091585075
702,601.734145342775
703,601.8032189119833
704,601.865392655586
705,601.9185899606769
706,601.9616121086553
707,601.9940692753426
708,602.0161095571851
709,602.0280178581427
710,602.029821165012
711,602.021037041085
712,602.0006482836702
713,601.9673177997731
714,601.9197991713725
715,601.8574561500801
716,601.7807801122362
717,601.6917899740672
718,601.5942156650251
719,601.493401995472
720,601.3959171447912
721,601.3089051197568
722,601.2392808431695
723,601.1929097016854
724,601.1739148217133
725,601.1842129695557
726,601.2233160724082
727,601.2883806047139
728,601.3744650177551
729,601.4749609042365
730,601.5821643043071
731,601.687932888021
732,601.7843553772638
733,601.8643655162992
734,601.9222541718112
735,601.9540478919611
736,601.9577302504892
737,601.9332956455486
738,601.8826424280005
739,601.8093243101525
740,601.7181896798314
741,601.614953408106
742,601.5057536400509
743,601.396734957418
744,601.2936784231193
745,601.2016862821417
746,601.1249308046241
747,601.0664846225117
748,601.028248529944
749,601.0109767802156
750,601.0143841719645
751,601.0373189448101
752,601.0779949876161
753,601.134276558855
754,601.2039855514392
755,601.2851646617577
756,601.3762123297907
757,601.475834772326
758,601.582827434665
759,601.69576240104
760,601.8126838439616
761,601.9308952321908
762,602.0468835018216
763,602.1563929858363
764,602.2546418017853
765,602.3366604871777
766,602.3977276689701
767,602.4338783916852
768,602.442451058821
769,602.4226081576389
770,602.3757316494238
771,602.3055846374588
772,602.2181553649438
773,602.1211496123148
774,602.0231665684624
775,601.9326715868015
776,601.856943941551
777,601.8012003320246
778,601.7680558527601
779,601.7573887799841
780,601.7665649711008
781,601.790908129226
782,601.8243006782145
783,601.8598443903574
784,601.8905532313336
785,601.9100614959262
786,601.913308606405
787,601.8971280123408
788,601.8606469004795
789,601.8054165917675
790,601.7352411474648
791,601.6557337147902
792,601.5736833507065
793,601.4963395381018
794,601.4307045287796
795,601.3828777731114
796,601.3574603380473
797,601.357030926066
798,601.3817440070209
799,601.4291396899015
800,601.4942578575398
801,601.5701058289394
802,601.6484608234437
803,601.7209247445777
804,601.7800984823119
805,601.8207012603106
806,601.8404359746144
807,601.8404155070076
808,601.8250298239044
809,601.801243704061
810,601.7774441392863
811,601.7620594727789
812,601.7622107879065
813,601.7826250600364
814,601.8249620904646
815,601.8876152557879
816,601.9659673494181
817,602.053028024375
818,602.1403427107891
819,602.219041893807
820,602.2809000459143
821,602.3192882135661
822,602.3299148762765
823,602.311257231385
824,602.2646119536322
825,602.1937532158789
826,602.104263281875
827,602.0026687723532
828,601.895546921518
829,601.7887524698966
830,601.6868714784051
831,601.5929545743256
832,601.5085319342824
833,601.4338679806191
834,601.3683738837628
835,601.3110695174919
836,601.2609929713037
837,601.2174965699699
838,601.1804155247776
839,601.1501229095575
840,601.1274922183404
841,601.1137885005766
842,601.110508487562
843,601.1191888889178
844,601.1411982627833
845,601.1775250272196
846,601.2285766093469
847,601.2940106967786
848,601.3726278896447
849,601.4623678196278
850,601.5604572878976
851,601.6637319591824
852,601.7690822407421
853,601.8738964569922
854,601.9763502682243
855,602.075443386354
856,602.1707787327801
857,602.2621621716464
858,602.3491435902727
859,602.4306245096542
860,602.5046377578739
861,602.5683670050867
862,602.6184175508997
863,602.6512846663969
864,602.6639154110566
865,602.6542431910651
866,602.62159003767
867,602.5668626250533
868,602.4925039850403
869,602.4022105657307
870,602.3004861808355
871,602.1921552833579
872,602.0819624550855
873,601.9743369397736
874,601.8733308524527
875,601.7826809250572
876,601.7059053526001
877,601.6463267443146
878,601.6069220386489
879,601.5899586441175
880,601.5964698743277
881,601.6257066268613
882,601.6747376470452
883,601.7383482215735
884,601.809317910034
885,601.8790647941302
886,601.9385577422292
887,601.9793458117422
888,601.994543308827
889,601.9796312599167
890,601.932976744889
891,601.8560190762649
892,601.7531169500384
893,601.6310871785596
894,601.49849612029
895,601.3647944711229
896,601.2394045567545
897,601.1308603217528
898,601.0460710645075
899,600.9897570657755
900,600.9640988037606
901,600.9686357982262
902,601.0004283307562
903,601.054455851194
904,601.1241893010766
905,601.202261293413
906,601.2811692399947
907,601.3539644439396
908,601.4148868258906
909,601.459896906576
910,601.4870449746855
911,601.4966157795086
912,601.4910039407315
913,601.4743141793616
914,601.4517364769548
915,601.4288004880401
916,601.4106426915899
917,601.4014125193354
918,601.4039055219847
