frame_number,force
0,694.7043500050919
1,694.60041655861
2,694.4968329128945
3,694.3939466330111
4,694.2921008371301
5,694.1916320332175
6,694.092868025362
7,693.9961259095313
8,693.9017101762342
9,693.8099109350192
10,693.7210022735507
11,693.6352407626625
12,693.5528641181215
13,693.474090029103
14,693.3991151616761
15,693.3281143425213
16,693.261239924104
17,693.1986213286342
18,693.1403647650307
19,693.0865531109233
20,693.0372459504978
21,692.9924797587795
22,692.952268223443
23,692.9166026956981
24,692.8854527619714
25,692.858766928304
26,692.8364734099507
27,692.8184810194571
28,692.8046801471347
29,692.7949438280408
30,692.7891288891828
31,692.7870771695641
32,692.7886168037784
33,692.7935635576118
34,692.8017222024693
35,692.8128879152696
36,692.8268476918236
37,692.8433817639368
38,692.8622650125099
39,692.8832683699777
40,692.9061602054803
41,692.9307076855634
42,692.9566781025712
43,692.983840162891
44,693.0119652283171
45,693.0408285057929
46,693.0702101829285
47,693.0998965082148
48,693.1296808152232
49,693.1593644888803
50,693.188757869271
51,693.2176810853566
52,693.2459648090694
53,693.2734509205048
54,693.2999930772432
55,693.3254571841723
56,693.3497217633739
57,693.3726782257216
58,693.3942310464839
59,693.4142978469865
60,693.432809384011
61,693.4497094482116
62,693.4649546721975
63,693.4785142484791
64,693.4903695582066
65,693.5005137139212
66,693.508951022659
67,693.5156963785688
68,693.5207745959968
69,693.5242196944795
70,693.5260741466255
71,693.5263880991323
72,693.5252185765686
73,693.5226286767944
74,693.5186867656713
75,693.5134656772456
76,693.5070419244842
77,693.4994949253127
78,693.4909062489929
79,693.481358888337
80,693.4709365635315
81,693.4597230631211
82,693.4478016268155
83,693.4352543738161
84,693.4221617802218
85,693.4086022096527
86,693.3946515013278
87,693.3803826186505
88,693.3658653594789
89,693.3511661278686
90,693.336347766595
91,693.3214694493574
92,693.3065866301326
93,693.2917510446524
94,693.2770107565542
95,693.2624102395293
96,693.2479904871332
97,693.233789143755
98,693.2198406530781
99,693.206176423127
100,693.1928250084933
101,693.1798123103343
102,693.1671617940677
103,693.1548947240475
104,693.1430304138499
105,693.1315864898537
106,693.120579164636
107,693.1100235156299
108,693.0999337637576
109,693.0903235465313
110,693.081206180376
111,693.0725949074202
112,693.0645031225557
113,693.0569445772405
114,693.0499335573965
115,693.043485033464
116,693.0376147809551
117,693.032339469863
118,693.0276767212051
119,693.0236451286465
120,693.0202642426335
121,693.0175545141146
122,693.0155371952266
123,693.01423419565
124,693.0136678957291
125,693.0138609202437
126,693.0148358791715
127,693.016615083579
128,693.0192202459901
129,693.022672174994
130,693.0269904731264
131,693.0321932452599
132,693.038296822654
133,693.0453155064392
134,693.0532613340902
135,693.0621438729569
136,693.0719700453158
137,693.0827439890144
138,693.0944669565303
139,693.1071372535133
140,693.1207502160551
141,693.1352982241538
142,693.1507707472255
143,693.1671544164034
144,693.1844331181098
145,693.202588103777
146,693.2215981112523
147,693.2414394943517
148,693.2620863585693
149,693.283510703206
150,693.305682572624
151,693.3285702210106
152,693.3521402949667
153,693.3763580363697
154,693.4011875053704
155,693.4265918214483
156,693.4525334196458
157,693.4789743186868
158,693.5058763966016
159,693.5332016675884
160,693.5609125519221
161,693.5889721296587
162,693.6173443690866
163,693.6459943221366
164,693.6748882807178
165,693.7039938896239
166,693.7332802132304
167,693.7627177550485
168,693.7922784314426
169,693.821935503047
170,693.8516634691011
171,693.8814379310948
172,693.9112354333703
173,693.9410332899018
174,693.9708094076929
175,694.0005421173988
176,694.0302100209167
177,694.0597918641055
178,694.0892664404895
179,694.1186125288338
180,694.1478088644549
181,694.1768341417968
182,694.2056670446091
183,694.2342862999824
184,694.2626707531532
185,694.2907994608377
186,694.318651801395
187,694.3462076002346
188,694.3734472686643
189,694.4003519539555
190,694.4269036977456
191,694.4530855991208
192,694.4788819780161
193,694.5042785343342
194,694.5292624987943
195,694.5538227729533
196,694.5779500573824
197,694.6016369680416
198,694.6248781412895
199,694.6476703276135
200,694.6700124730115
201,694.6919057856021
202,694.7133537843206
203,694.7343623265401
204,694.7549396113942
205,694.7750961549306
206,694.7948447322674
207,694.8142002814166
208,694.8331797637863
209,694.8518019774062
210,694.8700873204234
211,694.8880575044396
212,694.9057352195468
213,694.9231437548134
214,694.9403065791338
215,694.9572468882213
216,694.9739871246801
217,694.9905484796267
218,695.0069503859215
219,695.0232100144136
220,695.039341785525
221,695.0553569087476
222,695.0712629617992
223,695.087063519315
224,695.1027578386675
225,695.1183406084167
226,695.1338017632112
227,695.1491263676678
228,695.1642945707996
229,695.1792816317871
230,695.1940580173365
231,695.2085895706996
232,695.2228377525844
233,695.23675995417
234,695.2503098816674
235,695.263438009988
236,695.2760921002717
237,695.2882177730601
238,695.2997591267842
239,695.3106593902164
240,695.3208615971414
241,695.3303092714747
242,695.338947111534
243,695.3467216629973
244,695.3535819707774
245,695.3594802005978
246,695.364372221915
247,695.3682181453828
248,695.3709828102343
249,695.3726362192722
250,695.3731539209709
251,695.3725173394625
252,695.3707140541444
253,695.3677380310093
254,695.3635898069737
255,695.3582766266524
256,695.351812529028
257,695.3442183798327
258,695.3355218443714
259,695.3257572952675
260,695.3149656505971
261,695.3031941401186
262,695.2904960002256
263,695.2769301009764
264,695.2625605104499
265,695.2474560027673
266,695.2316895171426
267,695.2153375769036
268,695.198479679337
269,695.1811976685418
270,695.1635751033219
271,695.1456966302843
272,695.1276473692047
273,695.1095123143815
274,695.0913757532968
275,695.0733207032326
276,695.0554283672935
277,695.0377776124745
278,695.0204444730583
279,695.0035016827667
280,694.9870182392984
281,694.9710590052383
282,694.9556843492762
283,694.9409498309942
284,694.9269059317674
285,694.913597834285
286,694.9010652534231
287,694.8893423205233
288,694.8784575209422
289,694.8684336817284
290,694.8592880037532
291,694.8510321312211
292,694.8436722510494
293,694.8372092147623
294,694.8316386760786
295,694.8269512382831
296,694.8231326069672
297,694.8201637458478
298,694.8180210357862
299,694.8166764392079
300,694.81609767352
301,694.8162483978006
302,694.8170884170611
303,694.8185739077634
304,694.8206576670336
305,694.8232893863164
306,694.826415948318
307,694.8299817443816
308,694.8339290083404
309,694.8381981626798
310,694.8427281733441
311,694.8474569103057
312,694.852321511932
313,694.8572587523283
314,694.8622054119761
315,694.8670986523675
316,694.8718763942992
317,694.8764776972337
318,694.8808431346787
319,694.8849151588668
320,694.8886384477099
321,694.8919602280058
322,694.8948305706318
323,694.897202655284
324,694.899033003783
325,694.9002816818372
326,694.9009124691522
327,694.9008929970819
328,694.9001948523834
329,694.8987936456666
330,694.89666904368
331,694.8938047652106
332,694.8901885408013
333,694.8858120364201
334,694.8806707405555
335,694.874763813469
336,694.8680938972091
337,694.8606668857957
338,694.8524916563981
339,694.8435797637867
340,694.8339451017564
341,694.8236035370129
342,694.8125725233631
343,694.8008707064697
344,694.7885175310763
345,694.7755328629108
346,694.7619366365014
347,694.747748538601
348,694.7329877355065
349,694.7176726514474
350,694.7018208041802
351,694.6854487027973
352,694.6685718113225
353,694.6512045797582
354,694.6333605418017
355,694.6150524757118
356,694.5962926223775
357,694.577092952971
358,694.5574654773837
359,694.5374225835227
360,694.516977396722
361,694.496144148594
362,694.474938545541
363,694.4533781281856
364,694.4314826138249
365,694.4092742151261
366,694.3867779302417
367,694.3640218021072
368,694.3410371468026
369,694.3178587515887
370,694.2945250426092
371,694.2710782208758
372,694.2475643633795
373,694.2240334842611
374,694.2005395495838
375,694.1771404389282
376,694.1538978476923
377,694.130877125154
378,694.1081470447418
379,694.0857795047148
380,694.0638491596785
381,694.0424329857489
382,694.0216097842225
383,694.0014596301228
384,693.9820632732192
385,693.9635015005196
386,693.9458544708294
387,693.9292010332309
388,693.913618041653
389,693.8991796768954
390,693.8859567856933
391,693.8740162441359
392,693.8634203508013
393,693.8542262540933
394,693.8464854186403
395,693.8402431366073
396,693.8355380905139
397,693.8324019740048
398,693.8308591754774
399,693.8309265264375
400,693.8326131130665
401,693.8359201475564
402,693.8408408961369
403,693.847360662352
404,693.8554568254001
405,693.8650989334394
406,693.8762488509147
407,693.8888609577643
408,693.9028823973941
409,693.918253370125
410,693.9349074695524
411,693.9527720602981
412,693.9717686961967
413,693.9918135777376
414,694.0128180467481
415,694.0346891152923
416,694.0573300249486
417,694.080640832166
418,694.1045190152428
419,694.1288600984992
420,694.153558289442
421,694.1785071251603
422,694.203600124563
423,694.2287314429998
424,694.2537965253043
425,694.2786927527643
426,694.3033200792304
427,694.3275816512719
428,694.3513844064518
429,694.3746396421801
430,694.3972635455635
431,694.4191776730787
432,694.440309368673
433,694.4605921103379
434,694.4799657778098
435,694.4983768369955
436,694.5157784394252
437,694.5321304373476
438,694.547399317126
439,694.5615580556024
440,694.574585906334
441,694.5864681249037
442,694.5971956442233
443,694.6067647111421
444,694.6151764947157
445,694.6224366752142
446,694.6285550226073
447,694.6335449739422
448,694.6374232194719
449,694.6402093066641
450,694.6419252695614
451,694.6425952889094
452,694.6422453861383
453,694.6409031517888
454,694.6385975068365
455,694.6353584940928
456,694.6312170965987
457,694.6262050804171
458,694.6203548600487
459,694.6136993851276
460,694.606272046437
461,694.5981065976906
462,694.5892370877472
463,694.5796977968739
464,694.5695231707713
465,694.5587477470775
466,694.5474060703792
467,694.5355325929318
468,694.5231615593647
469,694.5103268747941
470,694.4970619569941
471,694.4833995745415
472,694.4693716741282
473,694.4550092016567
474,694.4403419234231
475,694.4253982553507
476,694.4102051091993
477,694.3947877643863
478,694.379169772425
479,694.3633728984364
480,694.3474171015644
481,694.3313205542343
482,694.3150996992483
483,694.2987693434055
484,694.2823427862659
485,694.2658319825754
486,694.2492477365196
487,694.232599925384
488,694.215897749577
489,694.1991500055113
490,694.1823653775367
491,694.1655527448848
492,694.1487214992744
493,694.1318818682117
494,694.1150452379703
495,694.098224468866
496,694.081434194018
497,694.0646910915893
498,694.0480141201591
499,694.0314247081828
500,694.0149468914909
501,693.9986073963568
502,693.9824356685679
503,693.9664638506308
504,693.9507267098717
505,693.9352615200705
506,693.9201078987657
507,693.9053076017822
508,693.8909042760611
509,693.8769431716729
510,693.8634708143308
511,693.850534641069
512,693.8381826039134
513,693.8264627485628
514,693.8154227761842
515,693.8051095958863
516,693.7955688738724
517,693.7868445838407
518,693.7789785625555
519,693.7720100747267
520,693.7659753921288
521,693.7609073927802
522,693.7568351862826
523,693.7537837708907
524,693.7517737271002
525,693.7508209519585
526,693.7509364375748
527,693.7521260959834
528,693.7543906308247
529,693.7577254547225
530,693.7621206497917
531,693.7675609672789
532,693.7740258614175
533,693.7814895529064
534,693.7899211190328
535,693.799284609563
536,693.8095391893662
537,693.8206393099309
538,693.8325349121232
539,693.845171661599
540,693.8584912168692
541,693.8724315291156
542,693.886927172661
543,693.9019097048593
544,693.9173080538687
545,693.933048932806
546,693.949057279284
547,693.9652567194832
548,693.9815700550641
549,693.9979197697048
550,694.0142285504631
551,694.0304198179014
552,694.0464182582564
553,694.0621503512568
554,694.0775448883826
555,694.0925334776869
556,694.1070510319648
557,694.1210362370033
558,694.1344319963551
559,694.1471858488406
560,694.1592503547653
561,694.1705834467988
562,694.1811487418606
563,694.1909158111379
564,694.1998604060445
565,694.207964638094
566,694.2152171102316
567,694.2216129963797
568,694.2271540651897
569,694.2318486437424
570,694.2357115175151
571,694.2387637643026
572,694.2410325216521
573,694.2425506895096
574,694.2433565720288
575,694.2434934645767
576,694.2430091933849
577,694.2419556156834
578,694.2403880876249
579,694.2383649064377
580,694.235946732558
581,694.2331959971275
582,694.2301763002672
583,694.2269518062359
584,694.2235866432351
585,694.2201443179415
586,694.2166871568351
587,694.2132757867721
588,694.2099686654334
589,694.2068216689388
590,694.2038877406249
591,694.2012166029222
592,694.1988545334368
593,694.1968442058177
594,694.1952245951219
595,694.1940309462932
596,694.1932948033894
597,694.1930440963357
598,694.1933032809944
599,694.194093526976
600,694.195432945901
601,694.1973368513073
602,694.1998180407901
603,694.2028870915541
604,694.2065526619108
605,694.2108217926537
606,694.2157002032924
607,694.2211925787025
608,694.2273028417442
609,694.2340344068461
610,694.2413904090822
611,694.2493739035989
612,694.2579880313946
613,694.2672361486759
614,694.2771219177133
615,694.2876493571765
616,694.2988228499091
617,694.3106471067729
618,694.3231270868496
619,694.3362678764629
620,694.3500745315448
621,694.3645518894691
622,694.3797043574057
623,694.3955356843533
624,694.4120487233578
625,694.4292451892923
626,694.4471254162922
627,694.4656881179052
628,694.4849301525097
629,694.5048462964559
630,694.5254290273706
631,694.5466683201414
632,694.5685514583205
633,694.5910628638635
634,694.6141839478514
635,694.6378929840868
636,694.6621650066326
637,694.6869717318681
638,694.7122815052737
639,694.7380592723334
640,694.7642665715157
641,694.7908615459718
642,694.8177989701273
643,694.8450302877698
644,694.8725036591399
645,694.9001640155572
646,694.927953121068
647,694.9558096414899
648,694.9836692222356
649,695.0114645775113
650,695.0391255946765
651,695.0665794584199
652,695.0937507998184
653,695.1205618751308
654,695.1469327782785
655,695.172781689656
656,695.1980251626937
657,695.2225784486051
658,695.2463558586005
659,695.2692711612838
660,695.2912380114234
661,695.3121704058209
662,695.331983162751
663,695.3505924222599
664,695.3679161642132
665,695.383874739321
666,695.3983914064617
667,695.4113928686776
668,695.4228098005701
669,695.4325773606944
670,695.4406356829959
671,695.4469303412887
672,695.4514127808576
673,695.4540407118603
674,695.4547784602099
675,695.4535972726882
676,695.4504755738956
677,695.4453991732038
678,695.4383614202701
679,695.4293633078241
680,695.4184135201183
681,695.4055284248689
682,695.3907320063388
683,695.3740557378503
684,695.3555383934306
685,695.3352258003309
686,695.3131705366117
687,695.289431580393
688,695.2640739190845
689,695.2371681275957
690,695.2087899243928
691,695.1790197138544
692,695.1479421232149
693,695.1156455425203
694,695.0822216759844
695,695.0477651121896
696,695.0123729183438
697,694.9761442606906
698,694.9391800500855
699,694.9015826097003
700,694.863455361102
701,694.8249025249011
702,694.7860288320767
703,694.7469392421792
704,694.7077386655511
705,694.6685316883403
706,694.6294223005011
707,694.5905136275768
708,694.5519076671061
709,694.5137050305798
710,694.4760046919708
711,694.4389037434281
712,694.4024971576289
713,694.3668775552732
714,694.3321349760911
715,694.2983566525181
716,694.2656267860194
717,694.2340263262738
718,694.2036327533582
719,694.1745198635463
720,694.1467575606276
721,694.1204116562401
722,694.0955436837838
723,694.0722107305014
724,694.0504652911727
725,694.0303551450409
726,694.0119232558054
727,693.9952076934069
728,693.980241576103
729,693.9670530319173
730,693.9556651795561
731,693.9460961297492
732,693.9383590081469
733,693.9324620003509
734,693.9284084185667
735,693.9261967877874
736,693.9258209471828
737,693.927270159524
738,693.9305292186646
739,693.9355785435675
740,693.9423942480811
741,693.95094817854
742,693.9612079152593
743,693.97313673794
744,693.9866935583059
745,694.0018328258842
746,694.0185044148934
747,694.0366535016109
748,694.0562204421504
749,694.0771406605149
750,694.099344556763
751,694.1227574454322
752,694.1472995346625
753,694.1728859562159
754,694.1994268553896
755,694.2268275474305
756,694.2549887436716
757,694.2838068470684
758,694.3131743143343
759,694.3429800811633
760,694.3731100476678
761,694.4034476219551
762,694.4338743198742
763,694.4642704183437
764,694.4945156585301
765,694.5244899934023
766,694.5540743718791
767,694.5831515494676
768,694.6116069137918
769,694.6393293129256
770,694.6662118745895
771,694.6921528046241
772,694.7170561534685
773,694.7408325394158
774,694.7633998173393
775,694.7846836818946
776,694.8046181952601
777,694.823146231239
778,694.840219829813
779,694.8558004586714
780,694.8698591804233
781,694.8823767259357
782,694.8933434756104
783,694.9027593512941
784,694.9106336215411
785,694.9169846223235
786,694.9218393949809
787,694.925233243911
788,694.9272092180605
789,694.9278175222798
790,694.9271148667824
791,694.9251637648273
792,694.9220317896834
793,694.9177908018228
794,694.9125161567526
795,694.9062859037857
796,694.8991799868169
797,694.8912794595284
798,694.882665728387
799,694.8734198362135
800,694.8636217967626
801,694.8533499875256
802,694.8426806049897
803,694.8316871842878
804,694.8204401833565
805,694.8090066302262
806,694.7974498309318
807,694.7858291345457
808,694.7741997506465
809,694.7626126133491
810,694.7511142856868
811,694.7397468990861
812,694.7285481241445
813,694.7175511695586
814,694.7067848053782
815,694.6962734055112
816,694.6860370036964
817,694.6760913578048
818,694.6664480194224
819,694.6571144083633
820,694.648093893735
821,694.6393858836933
822,694.6309859255964
823,694.6228858180367
824,694.6150737369505
825,694.607534379391
826,694.6002491296589
827,694.5931962526295
828,694.5863511183172
829,694.5796864601604
830,694.5731726671739
831,694.5667781073316
832,694.5604694773177
833,694.5542121732731
834,694.5479706784571
835,694.5417089655554
836,694.5353909121432
837,694.5289807272748
838,694.5224433861456
839,694.5157450691098
840,694.5088536011764
841,694.501738888237
842,694.4943733464153
843,694.4867323208169
844,694.4787944893527
845,694.4705422462789
846,694.4619620591058
847,694.453044791873
848,694.4437859872095
849,694.4341860989571
850,694.4242506670926
851,694.4139904277959
852,694.4034213534527
853,694.3925646193987
854,694.381446496102
855,694.3700981675173
856,694.3585554787096
857,694.3468586183686
858,694.3350517442068
859,694.3231825610666
860,694.3113018624334
861,694.2994630455621
862,694.2877216087621
863,694.2761346374202
864,694.2647602840497
865,694.2536572473972
866,694.2428842559757
867,694.2324995614694
868,694.222560446829
869,694.2131227528041
870,694.2042404256024
871,694.1959650873902
872,694.1883456304397
873,694.1814278352822
874,694.1752540136042
875,694.1698626775922
876,694.1652882383431
877,694.1615607364615
878,694.1587056080667
879,694.1567434893013
880,694.155690062289
881,694.1555559454947
882,694.1563466312921
883,694.1580624727848
884,694.1606987204831
885,694.1642456076544
886,694.1686884815407
887,694.1740079764274
888,694.1801802235797
889,694.1871770920354
890,694.1949664531907
891,694.2035124615091
892,694.2127758441077
893,694.2227141935193
894,694.2332822600746
895,694.2444322421753
896,694.2561140736824
897,694.2682757075886
898,694.280863394331
899,694.2938219521269
900,694.3070950262958
901,694.3206253349064
902,694.3343548990812
903,694.3482252577147
904,694.3621776678632
905,694.376153293035
906,694.3900933817508
907,694.4039394384799
908,694.4176333889088
909,694.4311177413632
910,694.4443357459397
911,694.4572315528426
912,694.4697503718427
913,694.4818386353537
914,694.4934441677572
915,694.5045163628797
916,694.5150063699932
917,694.5248672869882
