acceleration,velocity,displacement
0.0076457823385490615,0.0,0.0
0.006176982319535315,3.455691164521094e-06,8.639227911302735e-10
0.00471312572720132,6.1782181762052525e-06,3.27240012631186e-09
0.003259124393035027,8.17128070626434e-06,6.859774846929258e-09
0.001819827304464055,9.44101863063911e-06,1.1262849681155121e-08
0.0003999900327071155,9.995972964931903e-06,1.6122097580047876e-08
-0.000995754855261741,9.847031759293247e-06,2.1082848761104163e-08
-0.0023629261209271316,9.007361515246028e-06,2.5796447079738982e-08
-0.0036972206676412506,7.492324818103933e-06,2.9921368663076474e-08
-0.004994538632226551,5.3193849931369825e-06,3.31242961158867e-08
-0.006251006574702037,2.5079986914048356e-06,3.5081142037022156e-08
-0.007462998605055025,-9.205026035344297e-07,3.547801605898976e-08
-0.008627155295358208,-4.943041078637738e-06,3.401213013844672e-08
-0.009740400235893008,-9.534929961450542e-06,3.039263737842465e-08
-0.010799954118014075,-1.4670018549927313e-05,2.4341400250580183e-08
-0.011803346269960518,-2.032084364692096e-05,1.5593684701368115e-08
-0.012748423628287911,-2.6458786121483068e-05,3.898777259267106e-09
-0.013633357182691482,-3.305423132422792e-05,-1.097947710216064e-08
-0.014456645975905078,-4.0076732113877064e-05,-2.9262217961686884e-08
-0.01521711877125128,-4.7495173300666154e-05,-5.115519431532269e-08
-0.015913933517822772,-5.527793637293467e-05,-7.68484717337229e-08
-0.01654657474615411,-6.339306343892888e-05,-1.065162216866888e-07
-0.01711484902037628,-7.180841938056147e-05,-1.403165923915614e-07
-0.0176188785662352,-8.049185127721434e-05,-1.7839166005600535e-07
-0.018059093192025567,-8.941134421677953e-05,-2.2086745892950382e-07
-0.018436220616591607,-9.853517266893382e-05,-2.678540881509322e-07
-0.018751275310625464,-0.00010783204665073808,-3.1944589298085017e-07
-0.019005545946245976,-0.00011727125196495593,-3.7572171763477365e-07
-0.019200581540808056,-0.00012682278383671945,-4.367452265851925e-07
-0.0193381763782194,-0.0001364574733164763,-5.025652908734914e-07
-0.019420353796502317,-0.00014614710586015672,-5.732164356676497e-07
-0.019449348945966113,-0.00015586453154577384,-6.487193450191324e-07
-0.019427590649289145,-0.00016558376644458766,-7.290814195167227e-07
-0.019357682526633956,-0.00017528008473856845,-8.142973823125118e-07
-0.01924238357208814,-0.00018493010126324896,-9.043499288129662e-07
-0.019084588370172097,-0.00019451184424881403,-9.992104151909819e-07
-0.01888730712181585,-0.00020400481812181103,-1.0988395807836382e-06
-0.01865364561768637,-0.00021339005630668657,-1.2031882993907625e-06
-0.01838678526808777,-0.0002226501640281301,-1.3121983544744666e-06
-0.018089963283515784,-0.00023176935116603098,-1.425803233273007e-06
-0.01776645309926187,-0.0002407334552617254,-1.543928934879946e-06
-0.017419545145823254,-0.00024952995482299667,-1.6664947874011265e-06
-0.017052528075899662,-0.0002581479731284274,-1.7934142693889826e-06
-0.01666867055876076,-0.0002665782727870925,-1.9245958308678624e-06
-0.016271203737146956,-0.0002748132413610694,-2.059943709404903e-06
-0.015863304413682597,-0.00028284686839877683,-2.1993587368448644e-06
-0.015448079003612836,-0.00029067471425310066,-2.3427391325078336e-06
-0.015028548269080602,-0.000298293871071274,-2.489981278838927e-06
-0.014607632845017293,-0.0003057029163497985,-2.6409804756941954e-06
-0.014188139583629017,-0.00031290185945696006,-2.795631669645885e-06
-0.013772748781745473,-0.0003198920815483037,-2.953830154897201e-06
-0.013364002398606963,-0.0003266762693433918,-3.1154722426201246e-06
-0.012964293398921673,-0.00033325834329277394,-3.280455895779166e-06
-0.012575856352277063,-0.00033964338073057363,-3.448681326785003e-06
-0.012200759387424287,-0.000345837534665499,-3.620051555634021e-06
-0.011840897552687317,-0.00035184794890052686,-3.7944729265255277e-06
-0.01149798758867593,-0.0003576826701858677,-3.971855581297126e-06
-0.011173564090040044,-0.00036335055810554666,-4.15211388836998e-06
-0.010868977023825825,-0.0003688611933840131,-4.335166826242369e-06
-0.010585390575406464,-0.0003742247852838212,-4.520938320909328e-06
-0.010323783298309032,-0.00037945207875225007,-4.709357536918346e-06
-0.01008494954979527,-0.0003845542619642761,-4.900359122097478e-06
-0.009869502203072214,-0.000389542874902493,-5.09388340631417e-06
-0.009677876633301807,-0.00039442971961158653,-5.28987655494269e-06
-0.009510335964320165,-0.00039922677276099205,-5.488290678035835e-06
-0.00936697753052486,-0.0004039461011347033,-5.689083896509759e-06
-0.009247740464365025,-0.00040859978063342574,-5.892220366951791e-06
-0.009152414279926576,-0.00041319981931949864,-6.097670266940022e-06
-0.009080648297874229,-0.00041775808496394886,-6.3054097430108845e-06
-0.00903196175001021,-0.00042228623747591997,-6.515420823620852e-06
-0.00900575440829685,-0.0004267956665154967,-6.727691299618706e-06
-0.009001317593551404,-0.0004312974345159588,-6.94221457487657e-06
-0.009017845427679565,-0.00043580222527126654,-7.158989489823376e-06
-0.009054446204102807,-0.00044032029817921213,-7.3780201206859955e-06
-0.009110153768207884,-0.0004448614481722898,-7.599315557273871e-06
-0.009183938820456119,-0.0004494349713194558,-7.822889662146808e-06
-0.009274720070356669,-0.00045404963604215903,-8.048760813987211e-06
-0.009381375174193001,-0.00045871365985329643,-8.276951637961075e-06
-0.009502751385304493,-0.0004634346914931708,-8.507488725797692e-06
-0.00963767583924713,-0.00046821979829930873,-8.740402348245813e-06
-0.009784965392232229,-0.0004730754586071786,-8.975726162472434e-06
-0.009943435934424906,-0.0004780075589388429,-9.21349691685894e-06
-0.010111911112196456,-0.00048302139570049823,-9.453754155518774e-06
-0.01028923040707161,-0.00048812168108031524,-9.696539924713977e-06
-0.010474256521100596,-0.0004933125528123583,-9.941898483187146e-06
-0.010665882010140753,-0.0004985975874451686,-1.0189876018251529e-05
-0.010863035105189215,-0.0005039798167240011,-1.0440520369293821e-05
-0.011064684678614068,-0.000509461746669952,-1.069388076014231e-05
-0.011269844338656855,-0.0005150453789242698,-1.0950007541540865e-05
-0.011477575655181968,-0.0005207322339227295,-1.1208951944752614e-05
-0.011686990526497456,-0.0005265233754681493,-1.1470765847100333e-05
-0.011897252702738493,-0.0005324194362754583,-1.1735501550036236e-05
-0.012107578501606086,-0.0005384206440765444,-1.2003211570124237e-05
-0.01231723678749045,-0.0005445268478988186,-1.2273948443118077e-05
-0.012525548319261894,-0.0005507375441755067,-1.2547764541136658e-05
-0.012731884589342869,-0.0005570519024026578,-1.28247119027812e-05
-0.01293566627185814,-0.0005634687901179581,-1.3104842075911354e-05
-0.013136361371751419,-0.0005699867970288604,-1.3388205972698058e-05
-0.013333483126729044,-0.0005766042581534806,-1.3674853736493643e-05
-0.013526587674797088,-0.0005833192758538621,-1.3964834619995478e-05
-0.013715271479016439,-0.0005901297406423155,-1.4258196874119522e-05
-0.013899168501103721,-0.0005970333506373455,-1.4554987646939436e-05
-0.014077947124943221,-0.0006040276295438573,-1.4855252891984737e-05
-0.014251306840115599,-0.000611109943035122,-1.5159037285129482e-05
-0.0144189747048274,-0.0006182775134213577,-1.54663841492436e-05
-0.014580701620966993,-0.0006255274325028063,-1.5777335385724643e-05
-0.014736258470435477,-0.0006328566725256569,-1.6091931411981758e-05
-0.014885432177125728,-0.0006402620951875472,-1.641021110391006e-05
-0.015028021769250038,-0.0006477404586741412,-1.673221174237548e-05
-0.015163834519837062,-0.0006552884227464129,-1.7057968962730618e-05
-0.015292682239561954,-0.0006629025519362627,-1.7387516706401286e-05
-0.015414377789062282,-0.0006705793169434187,-1.7720887173621208e-05
-0.015528731870112946,-0.0006783150943582125,-1.8058110776446615e-05
-0.015635550145446563,-0.0006861061648621024,-1.8399216091251695e-05
-0.015734630724690866,-0.0006939487100796368,-1.874422980998713e-05
-0.0158257620437729,-0.0007018388082717528,-1.9093176689574977e-05
-0.01590872116125171,-0.0007097724290730089,-1.9446079498911167e-05
-0.015983272494769746,-0.0007177454274870143,-1.9802958963051174e-05
-0.016049167021981114,-0.000725753537366202,-2.016383370426448e-05
-0.01610614197496458,-0.0007337923646154384,-2.052872017975989e-05
-0.016153921064452133,-0.0007418573803752925,-2.0897632616007573e-05
-0.01619221527516849,-0.0007499439144601977,-2.1270582939716444e-05
-0.016220724269351464,-0.0007580471493463276,-2.1647580705668076e-05
-0.01623913841674633,-0.000766162115017852,-2.2028633021759122e-05
-0.01624714143562803,-0.0007742836849809456,-2.241374447175882e-05
-0.01624441358987372,-0.000782406573737321,-2.2802917036438386e-05
-0.016230635352547772,-0.0007905253359729264,-2.319615001386595e-05
-0.016205491420964214,-0.0007986343676663044,-2.3593439939775757e-05
-0.01616867495111274,-0.0008067279092593237,-2.3994780509007165e-05
-0.0161198918734979,-0.0008148000509654764,-2.4400162499063366e-05
-0.01605886516271671,-0.00082284474022453,-2.4809573696860867e-05
-0.01598533895852211,-0.0008308557912548397,-2.522299882973071e-05
-0.01589908246558349,-0.000838826896610866,-2.5640419501697138e-05
-0.015799893578597624,-0.0008467516406219113,-2.6061814136005333e-05
-0.015687602182518478,-0.0008546235145621903,-2.6487157924801358e-05
-0.015562073070399604,-0.0008624359333754198,-2.691642278678576e-05
-0.01542320841579505,-0.0008701822537469684,-2.7349577333566356e-05
-0.015270949742143403,-0.000877855793286453,-2.778658684532471e-05
-0.015105279349280706,-0.000885449850559309,-2.822741325628615e-05
-0.014926221181967075,-0.000892957725692121,-2.867201515034901e-05
-0.014733841151120728,-0.0009003727412753929,-2.9120347767090887e-05
-0.014528246943526403,-0.0009076882632990547,-2.95723630182345e-05
-0.014309587378668383,-0.0009148977218796034,-3.0028009514529163e-05
-0.014078051386987053,-0.0009219946315710173,-3.048723260289182e-05
-0.013833866687508113,-0.000928972611089641,-3.094997441355699e-05
-0.01357729823725717,-0.0009358254023208324,-3.1416173916909606e-05
-0.013308646515541058,-0.0009425468885090319,-3.188576698961707e-05
-0.013028245693091186,-0.00094913111156119,-3.2358686489634626e-05
-0.012736461714189866,-0.0009555722884130102,-3.2834862339628176e-05
-0.01243369028809882,-0.0009618648264135823,-3.331422161833482e-05
-0.012120354751511752,-0.0009680033376734849,-3.379668865935659e-05
-0.011796903740087156,-0.0009739826522963846,-3.4282185156849056e-05
-0.011463808608089467,-0.0009797978303834288,-3.4770630277519006e-05
-0.011121560561505974,-0.0009854441726758277,-3.526194077828382e-05
-0.010770667506623638,-0.00099091722969286,-3.5756031128875994e-05
-0.010411650643417456,-0.0009962128092303702,-3.6252813638606804e-05
-0.010045040844401526,-0.001001326982102325,-3.675219858643998e-05
-0.00967137486555768,-0.0010062560860298146,-3.725409435347301e-05
-0.009291191451168315,-0.0010109967276089962,-3.775840755688271e-05
-0.00890502742117063,-0.001015545782327081,-3.8265043184366734e-05
-0.008513413856779145,-0.0010199003926465685,-3.877390472811015e-05
-0.00811687251510207,-0.0010240579642395388,-3.9284894317331675e-05
-0.007715912600639758,-0.0010280161605184742,-3.979791284852118e-05
-0.007311028003726247,-0.0010317728956695657,-4.031286011256819e-05
-0.0069026950911748345,-0.0010353263264432908,-4.08296349180964e-05
-0.006491371110668299,-0.0010386748429937517,-4.134813521045566e-05
-0.006077493248188873,-0.001041817059083466,-4.1868258185974966e-05
-0.005661478351678432,-0.0010447518019834328,-4.238990040124169e-05
-0.00524372330246706,-0.001047478102396969,-4.291295787733679e-05
-0.004824605984500391,-0.001049995184718711,-4.343732619911571e-05
-0.004404486777608272,-0.001052302457909238,-4.3962900609772695e-05
-0.003983710484483242,-0.001054399507224761,-4.44895761010562e-05
-0.0035626085833113013,-0.0010562860869917097,-4.501724749961032e-05
-0.0031415016757503455,-0.0010579621145564752,-4.554580954999736e-05
-0.002720701982696398,-0.0010594276654710868,-4.607515699500425e-05
-0.002300515737943285,-0.0010606829699012466,-4.660518465384733e-05
-0.0018812453420679414,-0.0010617284101712495,-4.7135787498865456e-05
-0.0014631911611575547,-0.0010625645192970559,-4.766686073123253e-05
-0.001046652887688198,-0.0010631919803092674,-4.819829985613411e-05
-0.0006319304227158731,-0.0010636116261368684,-4.873000075774565e-05
-0.00021932428131434767,-0.001063824439812876,-4.9261859774233086e-05
0.00019086444382479151,-0.0010638315547722482,-4.9793773772879364e-05
0.0005983345088753046,-0.0010636342550340732,-5.0325640225330945e-05
0.0010027852825136602,-0.001063233975086226,-5.0857357282861016e-05
0.0014039178030663246,-0.001062632299314831,-5.138882385146128e-05
0.001801436097516245,-0.0010618309608396853,-5.1919939666499907e-05
0.002195048738346105,-0.0010608318396307197,-5.2450605366617506e-05
0.0025844706158025645,-0.0010596369597921824,-5.298072256647323e-05
0.002969424900124335,-0.0010582484859132006,-5.351019392789958e-05
0.0033496451622713336,-0.0010566687183976018,-5.4038923228977276e-05
0.003724877612497386,-0.0010549000877039096,-5.4566815430502654e-05
0.004094883405044035,-0.0010529451474495242,-5.509377673929101e-05
0.004459440947342577,-0.0010508065663614274,-5.561971466774375e-05
0.004818348148686071,-0.0010484871190874203,-5.6144538089105963e-05
0.005171424552060356,-0.0010459896759122337,-5.6668157287855876e-05
0.005518513312923684,-0.0010433171914459877,-5.719048400469543e-05
0.005859483010627907,-0.0010404726923651,-5.77114314756482e-05
0.006194229293025823,-0.0010374592642891864,-5.823091446481177e-05
0.006522676360490447,-0.0010342800378758074,-5.8748849290353024e-05
0.006844778290515796,-0.0010309381742130558,-5.926515384337524e-05
0.007160520187819324,-0.001027436849593472,-5.977974759932688e-05
0.007469919125676457,-0.001023779239765098,-6.029255162166652e-05
0.007773024834107105,-0.001019968503775152,-6.0803488557551586e-05
0.00806992009021594,-0.0010160077675440712,-6.131248262538139e-05
0.008360720765147949,-0.0010119001073302302,-6.181945959409996e-05
0.008645575472959709,-0.0010076485332707033,-6.232434675425019e-05
0.008924664753164542,-0.0010032559732141722,-6.282707288087141e-05
0.009198199711550482,-0.0009987252570979935,-6.332756818844945e-05
0.009466420048787954,-0.000994059102157909,-6.382576427826343e-05
0.009729591420900137,-0.000989260099290487,-6.432159407862554e-05
0.00998800209696659,-0.0009843307009110203,-6.481499177867592e-05
0.010241958907966186,-0.000979273210659787,-6.530589275656862e-05
0.010491782513018157,-0.000974089775304541,-6.57942335030597e-05
0.01073780203604997,-0.0009687823791672739,-6.627995154167765e-05
0.010980349142313087,-0.0009633528413726831,-6.676298534681264e-05
0.011219751636429652,-0.0009578028161779975,-6.724327426120032e-05
0.011456326679990957,-0.0009521337965988923,-6.772075841439454e-05
0.011690373748416538,-0.0009463471214917904,-6.819537864391721e-05
0.011922167469237088,-0.000940443986187377,-6.866707642083701e-05
0.012151950502964493,-0.0009344254566943266,-6.913579378155743e-05
0.012379926640745265,-0.0009282924874083992,-6.960147326758311e-05
0.012606254296472068,-0.0009220459421740948,-7.006405787497873e-05
0.012831040559368644,-0.0009156866184601346,-7.05234910151373e-05
0.01305433594661181,-0.0009092152743336396,-7.097971648833574e-05
0.013276129963297745,-0.0009026326578561622,-7.143267847138319e-05
0.01349634754751857,-0.0008959395384784581,-7.188232152046684e-05
0.013714846454509714,-0.000889136739977951,-7.232859059008094e-05
0.01393141561563339,-0.0008822251744604152,-7.277143106869053e-05
0.014145774494344043,-0.0008752058769329209,-7.321078883153887e-05
0.014357573450393474,-0.0008680800399467365,-7.364661031075878e-05
0.014566395115704218,-0.0008608490478052121,-7.407884258269676e-05
0.014771756782987592,-0.0008535145098305391,-7.45074334721057e-05
0.014973113810313288,-0.0008460782921822139,-7.493233167260889e-05
0.015169864044678277,-0.000838542547718466,-7.535348688258405e-05
0.01536135325666396,-0.0008309097433931305,-7.577084995536195e-05
0.01554688155173851,-0.0008231826846910299,-7.618437306238299e-05
0.015725710684019546,-0.0008153645366320904,-7.659400986771378e-05
0.015897072156432216,-0.0008074588409219775,-7.69997157121023e-05
0.01606017596125471,-0.0007994695288925558,-7.740144780455593e-05
0.016214219800638335,-0.0007914009299520825,-7.779916541926709e-05
0.016358398621149406,-0.0007832577753466356,-7.819283009559176e-05
0.016491914295940113,-0.0007750451971173633,-7.858240583870776e-05
0.016613985294958004,-0.0007667687222196387,-7.896785931854201e-05
0.016723856195266222,-0.0007584342618470826,-7.93491600645587e-05
0.016820806893419533,-0.0007500480960749112,-7.97262806540392e-05
0.016904161389642885,-0.0007416168540041456,-8.009919689155896e-05
0.016973296025768143,-0.0007331474896502928,-8.046788797747257e-05
0.017027647080734905,-0.000724647253873667,-8.083233666335357e-05
0.017066717658339153,-0.0007161236626888985,-8.119252939249422e-05
0.01709008383456528,-0.0007075844623156723,-8.154845642374536e-05
0.01709740005750134,-0.0006990375913426556,-8.190011193715994e-05
0.01708840381073695,-0.000690491140375596,-8.22474941200895e-05
0.01706291956481575,-0.0006819533095317079,-8.259060523256633e-05
0.017020862046418596,-0.0006734323641288993,-8.292945165098149e-05
0.01696223884331515,-0.0006649365889064659,-8.326404388924033e-05
0.01688715233727568,-0.0006564742411113182,-8.359439659674477e-05
0.016795800928899735,-0.0006480535027947743,-8.392052853272129e-05
0.016688479495231116,-0.0006396824326887416,-8.424246251659216e-05
0.016565579005704344,-0.0006313689180635078,-8.456022535428023e-05
0.016427585218381956,-0.0006231206270074862,-8.487384774054798e-05
0.016275076392458118,-0.0006149449616047761,-8.518336413770104e-05
0.016108719984585792,-0.0006068490125105152,-8.548881263122986e-05
0.0159292683379057,-0.0005988395154298923,-8.579023476321496e-05
0.015737553411193764,-0.0005909228099926175,-8.60876753445706e-05
0.015534480622279686,-0.0005831048014842492,-8.638118224743981e-05
0.015321021895350008,-0.0005753909258548417,-8.667080617927458e-05
0.015098208016187864,-0.0005677861183769572,-8.695660044033253e-05
0.014867120421703269,-0.0005602947862674844,-8.723862066649364e-05
0.014628882577154025,-0.0005529207855177701,-8.751692455943996e-05
0.014384651113233934,-0.0005456674020951731,-8.779157160634319e-05
0.014135606893050656,-0.000538537337593602,-8.806262279126539e-05
0.013882946152677834,-0.0005315326993321699,-8.833014030049684e-05
0.0136278718150681,-0.0005246549948402335,-8.859418722403994e-05
0.013371585029910517,-0.0005179051306289888,-8.885482725540724e-05
0.013115276958083922,-0.0005112834151319902,-8.911212439184749e-05
0.012860120809844685,-0.000504789565690008,-8.936614263705299e-05
0.012607264157273715,-0.0004984227194482284,-8.961694570833755e-05
0.012357821558271054,-0.0004921814480193422,-8.986459675020443e-05
0.01211286753850261,-0.00048606377574514874,-9.010915805614555e-05
0.011873429979710132,-0.00048006720136559557,-9.035069080042324e-05
0.011640483965706827,-0.00047418872287924134,-9.058925478148445e-05
0.011414946142374448,-0.00046842486535222103,-9.082490817854232e-05
0.011197669647330152,-0.0004627717114047949,-9.105770732273157e-05
0.010989439655298113,-0.0004572249340791378,-9.128770648410255e-05
0.010790969575168074,-0.00045177983177152126,-9.151495767556521e-05
0.010602897934163982,-0.0004464313648941882,-9.173951047473164e-05
0.010425785987707657,-0.00044117419391372033,-9.196141186443361e-05
0.010260116084043168,-0.00043600271839578264,-9.218070609251099e-05
0.010106290781671438,-0.00043091111667935397,-9.239743455127977e-05
0.009964632675198933,-0.0004258933858151364,-9.26116356769034e-05
0.009835384849416396,-0.00042094338143398256,-9.282334486871567e-05
0.009718711861628314,-0.00041605485725622137,-9.303259442838823e-05
0.009614701146097096,-0.00041122150400429004,-9.323941351870335e-05
0.009523364736667072,-0.000406436987533599,-9.344382814158782e-05
0.00944464121116534,-0.0004016949860466409,-9.364586113498288e-05
