frame_number,force
0,583.902400000041
1,583.9124314784949
2,583.9236076939122
3,583.9367904296869
4,583.9523382579516
5,583.9699968718654
6,583.988920615661
7,584.0078156137954
8,584.025173668128
9,584.0395568120713
10,584.0498902531555
11,584.0557219746385
12,584.0574085487316
13,584.0561918248566
14,584.0541464095348
15,584.0539989217381
16,584.058831920554
17,584.0716866688499
18,584.095089308461
19,584.1305572840848
20,584.1781803295511
21,584.2363839903926
22,584.301960521076
23,584.3704008629575
24,584.4364998366751
25,584.4951473353335
26,584.5421683039851
27,584.5750467596253
28,584.5933843995978
29,584.5990095288198
30,584.5957420124852
31,584.5888895167532
32,584.5845724602848
33,584.5889638284182
34,584.6075200064338
35,584.644288978078
36,584.7013998989448
37,584.778830880551
38,584.8744989406429
39,584.9846333446004
40,585.1043233906632
41,585.2281083247484
42,585.350504681778
43,585.4664229750459
44,585.5714809760178
45,585.6622503231223
46,585.736465858761
47,585.7931937548366
48,585.8329228561222
49,585.8575352847294
50,585.8701304064709
51,585.8747110998291
52,585.8757746319083
53,585.8778627870624
54,585.8851132755843
55,585.9008352693992
56,585.9271304508567
57,585.9646015459887
58,586.0122069442008
59,586.0673023767692
60,586.1258653220675
61,586.1828631693556
62,586.2327230055921
63,586.2698735463256
64,586.2893325402154
65,586.2872948813213
66,586.2616493345054
67,586.2123408113038
68,586.1415127985621
69,586.0533975696347
70,585.9539527287232
71,585.8502692032824
72,585.7498055968877
73,585.6595395129884
74,585.5851556576217
75,585.5303906406258
76,585.4966176920075
77,585.4827038169769
78,585.4851350417495
79,585.4983828703585
80,585.5154640726684
81,585.5286297727286
82,585.5301185301487
83,585.5129168830041
84,585.4714763707668
85,585.4023325033759
86,585.3045636327687
87,585.1800274831431
88,585.0333278317731
89,584.87148904026
90,584.7033413291038
91,584.5386454493087
92,584.3870239903475
93,584.2568189073714
94,584.1540387201593
95,584.0815669209728
96,584.038765948545
97,584.0215426938875
98,584.0228674937882
99,584.0336748511801
100,584.0440196914229
101,584.0443200752412
102,584.0265049041762
103,583.9849153937836
104,583.9168660425107
105,583.8228298105316
106,583.706261554439
107,583.5731089366808
108,583.4310813499067
109,583.2887661682827
110,583.1547053961859
111,583.036560014479
112,582.9404719908631
113,582.8706836496087
114,582.8294119184923
115,582.8169236229336
116,582.8317297631729
117,582.8708182424706
118,582.9298782959659
119,583.0035226020211
120,583.0855549939171
121,583.1693379893635
122,583.2482809591852
123,583.3164120346675
124,583.3689438220289
125,583.4027240914721
126,583.4164870847186
127,583.4108723341474
128,583.3882310007169
129,583.3522791521879
130,583.3076754384621
131,583.2595913449045
132,583.2133095244852
133,583.1738520156509
134,583.1456326058956
135,583.1321493566627
136,583.1357552827257
137,583.1575379835381
138,583.197308888644
139,583.2536812884931
140,583.3242182348129
141,583.4056411533084
142,583.4940911580998
143,583.5854325948962
144,583.6755913743052
145,583.7609201157753
146,583.8385646303145
147,583.9067793642596
148,583.965124260472
149,584.0144841427668
150,584.0568850862915
151,584.0951344016482
152,584.1323620890508
153,584.1715641025801
154,584.2152313519724
155,584.265109835461
156,584.3221012578927
157,584.3862916792509
158,584.4570823840342
159,584.5333819078069
160,584.6138029941566
161,584.6968064845481
162,584.780755154987
163,584.8638806369152
164,584.9442103199403
165,585.0195277480658
166,585.0874318100917
167,585.1455131885076
168,585.1916019772744
169,585.2239974156684
170,585.2415970948513
171,585.2438919486252
172,585.2308532339249
173,585.2027772659318
174,585.160156241247
175,585.1036128837416
176,585.033899894269
177,584.9519556671651
178,584.8590277004108
179,584.7568833631764
180,584.6480872009337
181,584.5362566711791
182,584.4261751500993
183,584.3236725870445
184,584.2352557483647
185,584.1675378350876
186,584.1265559433225
187,584.1170763064285
188,584.1419850083495
189,584.2018513087307
190,584.2947290893804
191,584.4162282500907
192,584.5598454177689
193,584.7175006982358
194,584.8801994293639
195,585.0387350962895
196,585.1843639933633
197,585.3093999306615
198,585.4076973129885
199,585.4750133410548
200,585.5092494043914
201,585.510559474206
202,585.4813005475332
203,585.4258118928572
204,585.3500420465762
205,585.2610730448865
206,585.1666060151854
207,585.0744664908023
208,584.9921629038719
209,584.9265018785121
210,584.8832486666194
211,584.8668242163131
212,584.8800431725359
213,584.9239133001262
214,584.9975265603981
215,585.0980613489457
216,585.2208917174921
217,585.3597912978361
218,585.5072345744438
219,585.6548119173193
220,585.7937696541802
221,585.915666215736
222,586.0131035542197
223,586.0804488534567
224,586.1144185345353
225,586.1143834073417
226,586.0822934365599
227,586.0222117986664
228,585.9395585230814
229,585.8402421826362
230,585.7298689912608
231,585.6131734730088
232,585.493750064514
233,585.3740986430345
234,585.2559267815959
235,585.1405904773545
236,585.029533842515
237,584.9246143415421
238,584.828245232399
239,584.7433240128137
240,584.6729470785964
241,584.6199522322183
242,584.5863817819916
243,584.5729948791782
244,584.5789514612013
245,584.6017424953179
246,584.637381440271
247,584.680827351891
248,584.7265820369253
249,584.7693766003985
250,584.804833251203
251,584.8299750950838
252,584.8434801495663
253,584.8456354942457
254,584.8380236398177
255,584.8230401915035
256,584.8033746028633
257,584.7815705837105
258,584.7597329443201
259,584.739393511109
260,584.721507452476
261,584.7065239460694
262,584.6944669090786
263,584.6849827140281
264,584.6773556417069
265,584.6705275854841
266,584.6631590528399
267,584.6537414233185
268,584.640745916277
269,584.6227853302777
270,584.598761394074
271,584.5679726505765
272,584.5301726462902
273,584.485587945197
274,584.4349136973549
275,584.3793002679988
276,584.3203377798167
277,584.2600384533702
278,584.2008052656837
279,584.145362373466
280,584.0966183486017
281,584.0574444446547
282,584.0303743768325
283,584.0172649834016
284,584.0189932319036
285,584.0352856755397
286,584.0647571894968
287,584.1051770337051
288,584.1539107015813
289,584.2084315202152
290,584.2667675965449
291,584.3277584878103
292,584.3910492370703
293,584.4568302415905
294,584.5254045938574
295,584.596704122326
296,584.6698767375844
297,584.7430425682996
298,584.8132824579842
299,584.8768860143936
300,584.9298378978273
301,584.9684589767662
302,584.9900677574876
303,584.9935178077328
304,584.9795046682965
305,584.9505961533276
306,584.910992091647
307,584.866054948395
308,584.8216826220862
309,584.7836213563951
310,584.7568243452504
311,584.7449408852821
312,584.7499851725668
313,584.7722030200036
314,584.8101352085339
315,584.8608590822565
316,584.9203654979763
317,584.9840020551367
318,585.0469055057187
319,585.1043690605721
320,585.1521330745093
321,585.1866217090266
322,585.2051519517495
323,585.2061183365586
324,585.189127635773
325,585.1550433831472
326,585.1059103078549
327,585.0447558562097
328,584.975291192367
329,584.9015470808528
330,584.8274850079627
331,584.7566281551491
332,584.6917594855192
333,584.6347255427681
334,584.5863613933346
335,584.5465295246208
336,584.5142594120064
337,584.4879785160332
338,584.4658196149312
339,584.445966151598
340,584.4269705411933
341,584.4079717325554
342,584.3887581777371
343,584.3696645841584
344,584.3513418250657
345,584.3344827530283
346,584.3196009401198
347,584.3069293176554
348,584.2964450432445
349,584.2879776224078
350,584.2813479494463
351,584.2764998528972
352,584.2735931133778
353,584.2730301743129
354,584.2754066772295
355,584.2814051235301
356,584.2916703324707
357,584.3067036786229
358,584.3267965522979
359,584.3520053155307
360,584.3821602357771
361,584.4169003294212
362,584.4557251178525
363,584.4980434446803
364,584.5431869729562
365,584.5903650755187
366,584.6385739024417
367,584.6865064405949
368,584.7325138602312
369,584.7746452650865
370,584.8107623014436
371,584.8387006281816
372,584.8564423186459
373,584.8622733274726
374,584.8549168852536
375,584.8336489055175
376,584.7984133961293
377,584.7499548733325
378,584.6899615915464
379,584.6211803785151
380,584.5474460381049
381,584.4735741458247
382,584.4050846672134
383,584.3477485736337
384,584.3069859620857
385,584.287190266063
386,584.2910882944792
387,584.3192489121268
388,584.369826559115
389,584.4385897361939
390,584.5192497821395
391,584.6040651412138
392,584.6846488865815
393,584.7528695988927
394,584.8017267216368
395,584.8261004705264
396,584.8233067670808
397,584.79341482523
398,584.7393053722899
399,584.6664660679303
400,584.582542204038
401,584.4966833964738
402,584.4187449336258
403,584.3584130921162
404,584.3243306297574
405,584.3233048035564
406,584.359679664919
407,584.4349389684809
408,584.547579146603
409,584.6932620012519
410,584.8652229670441
411,585.0548722894516
412,585.2524999285432
413,585.4479990081253
414,585.6315508851806
415,585.7942426483003
416,585.9285993066861
417,586.0290111075855
418,586.0920318967095
419,586.1165250113661
420,586.1036431381135
421,586.056648924509
422,585.980608487505
423,585.8820075276342
424,585.7683354603384
425,585.6476562059028
426,585.5281580584805
427,585.4176756553859
428,585.3232019587738
429,585.2504320712297
430,585.2033881116026
431,585.1841679444956
432,585.1928460147045
433,585.2275350621917
434,585.2845989798184
435,585.358994002368
436,585.4447035980833
437,585.5352196457732
438,585.6240204613503
439,585.7050137072225
440,585.7729334624622
441,585.823683543132
442,585.8546061430894
443,585.8646462714044
444,585.8543881573842
445,585.8259538179037
446,585.7827680156113
447,585.729206393428
448,585.6701568377971
449,585.6105357230417
450,585.5548046345988
451,585.5065280398269
452,585.4680034143785
453,585.4399906843547
454,585.4215722565431
455,585.4101826127544
456,585.4018437163103
457,585.3916198204299
458,585.374265063948
459,585.344992446007
460,585.3002588442038
461,585.2384459667627
462,585.1603225945493
463,585.0691992953023
464,584.9707307783497
465,584.8723749216541
466,584.7825711453918
467,584.7097468688384
468,584.6612929844309
469,584.6426612844294
470,584.6567233200325
471,584.7034860926877
472,584.7801850722028
473,584.8816903332086
474,585.0011084094816
475,585.1304633305034
476,585.2613720790457
477,585.3856567471954
478,585.4958520506731
479,585.5855859101812
480,585.6498344662521
481,585.6850698110387
482,585.6893201490287
483,585.6621535422634
484,585.604595345415
485,585.5190020563074
486,585.4089194323159
487,585.2789300595105
488,585.1344615934148
489,584.9815170923389
490,584.8263125884886
491,584.6748428834687
492,584.5324247268813
493,584.4032846946174
494,584.2902658363571
495,584.1947111959784
496,584.1165415700561
497,584.0544991734672
498,584.0064983237551
499,583.9700125540055
500,583.9424335607222
501,583.9213617098033
502,583.9048223843542
503,583.8914258125315
504,583.8804807850992
505,583.8720438852346
506,583.8668725194622
507,583.8662737493809
508,583.8718780761523
509,583.8853808116909
510,583.9082800081286
511,583.9416254994634
512,583.9857946514162
513,584.0403187265748
514,584.1037861882876
515,584.1738402124133
516,584.247270650176
517,584.3201916846435
518,584.3883083115762
519,584.4472894108264
520,584.4932450295659
521,584.523242810842
522,584.5357363849467
523,584.5307736978882
524,584.5099208708596
525,584.4759363257476
526,584.4323017902129
527,584.3827311142711
528,584.3307434902721
529,584.2793345881611
530,584.2307390395614
531,584.186269691965
532,584.1462383258088
533,584.1099841663088
534,584.0760350468782
535,584.0423952195836
536,584.0069131194259
537,583.9676611980209
538,583.9232689610095
539,583.8731753770682
540,583.8177898406942
541,583.7585643649655
542,583.6979828229812
543,583.6394687014612
544,583.5872085786473
545,583.5458910215219
546,583.5203682066062
547,583.5152544423923
548,583.5344817663173
549,583.5808424787731
550,583.6555619467796
551,583.7579579899265
552,583.885251195627
553,584.0325840027022
554,584.1932741525866
555,584.3592782856146
556,584.5218014818339
557,584.6719726802702
558,584.8015045135757
559,584.9032635795496
560,584.9717026951168
561,585.003147790013
562,584.9959642404733
563,584.9506319147996
564,584.8697405587645
565,584.7578940219917
566,584.6214997447723
567,584.46843118201
568,584.3075798844503
569,584.1483364344551
570,584.0000376165789
571,583.8713982787507
572,583.7699306666551
573,583.7013548733298
574,583.6690256040155
575,583.6734440620388
576,583.711976643587
577,583.7789238239543
578,583.8660315644895
579,583.9634211755084
580,584.0607891368018
581,584.1486502814299
582,584.2193887586784
583,584.2679439610754
584,584.2920724873759
585,584.292240102908
586,584.2712589822576
587,584.2337872845649
588,584.1857771574417
589,584.1339189171891
590,584.0850953295328
591,584.0458411311075
592,584.0218084854799
593,584.0172660445836
594,584.0346929977529
595,584.0745492039509
596,584.135287288026
597,584.2136185301044
598,584.3049759431708
599,584.4040701574434
600,584.505424752268
601,584.6038016377736
602,584.6944691775329
603,584.7733158686292
604,584.8368587854901
605,584.8822196166237
606,584.9071316737572
607,584.9100085021581
608,584.890068218165
609,584.8474839954802
610,584.7835252761582
611,584.7006567358075
612,584.6025619315687
613,584.4940607907097
614,584.3809082646613
615,584.2694929308177
616,584.1664761386934
617,584.0784096399877
618,584.0113547139244
619,583.9705196448898
620,583.9599383273472
621,583.9822141661584
622,584.0383373447221
623,584.1275634995269
624,584.2473447238561
625,584.3933318918502
626,584.5594917115668
627,584.7383766370011
628,584.9215529389224
629,585.1001530871806
630,585.2654889906912
631,585.4096448594515
632,585.5259664873972
633,585.6093885379622
634,585.6565911181165
635,585.6660290413757
636,585.637905297752
637,585.5741496116337
638,585.4784187789339
639,585.3560825511202
640,585.2141238966061
641,585.0608779792443
642,584.905560862649
643,584.7575902016474
644,584.6257601160498
645,584.5173815457853
646,584.4375259872425
647,584.3885099334009
648,584.369725107363
649,584.3778582968316
650,584.4074703899797
651,584.4518356748299
652,584.5038936684216
653,584.5571487191684
654,584.6063702573275
655,584.6479908832348
656,584.6801643869045
657,584.7025242038033
658,584.7157515526917
659,584.7210922000986
660,584.7199438369715
661,584.7135913200797
662,584.703117351147
663,584.6894728069122
664,584.6736578795296
665,584.656946348127
666,584.6410850076984
667,584.6284161807174
668,584.62188768636
669,584.624917054276
670,584.6410773159012
671,584.673602203282
672,584.7247770852357
673,584.7953500552586
674,584.884114974849
675,584.9877741834285
676,585.1011161240849
677,585.2174801874015
678,585.3294416179737
679,585.4296254442586
680,585.5115373984881
681,585.570282486135
682,585.603046654508
683,585.6092619486716
684,585.5904540948626
685,585.5498479791097
686,585.4918429130529
687,585.4214597685312
688,585.3438316001166
689,585.2637814616461
690,585.1855100874742
691,585.1124027246938
692,585.0469583799528
693,584.9908314548894
694,584.9449429241545
695,584.9095869678823
696,584.884468276733
697,584.868662198187
698,584.8605563129107
699,584.8578620166916
700,584.8577620752546
701,584.8572032404862
702,584.8532854756379
703,584.8436656922369
704,584.8268890143981
705,584.802577975725
706,584.7714429516935
707,584.7351196563445
708,584.695881852201
709,584.6563056291686
710,584.6189663868446
711,584.5862312927715
712,584.5601728888976
713,584.5425808440884
714,584.5350062377391
715,584.5387623619604
716,584.5548409180414
717,584.5837638553479
718,584.6254399695639
719,584.6791036222694
720,584.7433810475593
721,584.8164807190548
722,584.8964618546061
723,584.981506782942
724,585.0701116992924
725,585.1611306284284
726,585.2536627114441
727,585.3468347005527
728,585.4395654176722
729,585.5303979075092
730,585.6174550757567
731,585.6985293892365
732,585.7712792408455
733,585.8334908663765
734,585.8833679620468
735,585.9198113721301
736,585.942643872159
737,585.9527337803795
738,585.9519849521417
739,585.9431839562839
740,585.9297211538368
741,585.9152325369053
742,585.9032408765796
743,585.8968884780916
744,585.8988247311795
745,585.9112373654847
746,585.935934804859
747,585.9743577480417
748,586.0274497488128
749,586.0954136375893
750,586.1774551208156
751,586.2716260147332
752,586.3748346667916
753,586.4830259899096
754,586.5914864549158
755,586.6952186745567
756,586.7893415279677
757,586.8694757417612
758,586.9320654950519
759,586.9745890795265
760,586.9956428332595
761,586.994922533446
762,586.9731433279777
763,586.931927886476
764,586.8736730355471
765,586.8013948387812
766,586.7185509638297
767,586.6288403458781
768,586.535983551155
769,586.4434978346328
770,586.3544940360558
771,586.2715225214263
772,586.196476796236
773,586.1305447049424
774,586.0742017409469
775,586.0272633199789
776,585.9890164506529
777,585.9584148356507
778,585.9342751737635
779,585.9154048675908
780,585.9006325202757
781,585.8887700976012
782,585.8785685649109
783,585.8687150761788
784,585.8578729140071
785,585.8447260110707
786,585.8279852768393
787,585.8063363369131
788,585.7783386222754
789,585.7423182773584
790,585.6963300323998
791,585.6382746546931
792,585.5662183596495
793,585.478874306463
794,585.3761266874354
795,585.2594526027864
796,585.1321275061381
797,584.9991589466931
798,584.8669549404469
799,584.7427808332053
800,584.6340815582531
801,584.5477455279441
802,584.4893773718363
803,584.4626469048019
804,584.468791164042
805,584.506347270237
806,584.5711729171386
807,584.6567726267156
808,584.75490250187
809,584.8563834255289
810,584.9520223181685
811,585.0335275662588
812,585.0943036442425
813,585.1300229863577
814,585.1389117251908
815,585.1217462300043
816,585.0816093246777
817,585.0234720986372
818,584.9536563885963
819,584.8792196691192
820,584.8072984697103
821,584.7444457304881
822,584.6960059464225
823,584.665591306819
824,584.6547357195687
825,584.6627927594429
826,584.6871059885126
827,584.7234250897615
828,584.7664852938751
829,584.8106344508468
830,584.8503967884814
831,584.8808977451888
832,584.8981227706114
833,584.8990303127106
834,584.8815732380957
835,584.8446942311305
836,584.7883468728439
837,584.7135597816754
838,584.6225184374664
839,584.518605472156
840,584.4063286262783
841,584.2910813777451
842,584.1787230114679
843,584.0750200116845
844,583.9850374406178
845,583.9125913946955
846,583.8598668283228
847,583.827271499494
848,583.8135468329416
849,583.816105640645
850,583.8315273255866
851,583.8561178130576
852,583.8864345224579
853,583.9196917485755
854,583.9540020280705
855,583.9884564929423
856,584.0230729752278
857,584.0586369633946
858,584.0964460130122
859,584.1379658400793
860,584.1844272470352
861,584.2364304481595
862,584.2936512826283
863,584.3547342524753
864,584.4174097966583
865,584.47881709154
866,584.5359755408531
867,584.5863287259044
868,584.6282707183149
869,584.6615515094787
870,584.687457108003
871,584.7086873120307
872,584.7289139720928
873,584.7520804569721
874,584.7815775664081
875,584.8194774035085
876,584.8660004710073
877,584.9193314018675
878,584.975813856604
879,585.0304745828931
880,585.0777647953848
881,585.1123735870575
882,585.1299680267017
883,585.1277446763738
884,585.1047304068959
885,585.061829548914
886,585.0016548239884
887,584.9281949684773
888,584.8463788794971
889,584.7616032639038
890,584.6792892550133
891,584.6045162885193
892,584.5417526110381
893,584.4946711398871
894,584.4660203864771
895,584.4575215130064
896,584.469779696619
897,584.5022189317285
898,584.5530647160749
899,584.619402931285
900,584.6973342730496
901,584.7822271068352
902,584.869056811996
903,584.9528115181616
904,585.0289370302845
905,585.0937778049238
906,585.144948363749
907,585.1815573755854
908,585.2042180695366
909,585.2148132320367
910,585.2160344501285
911,585.2107729031596
912,585.2014837010873
913,585.1896586421475
914,585.1755174096214
915,585.1579737044262
916,585.1348703812095
917,585.1034280344976
