frame_number,force
0,633.9664900000469
1,633.9807933954534
2,633.9960074965306
3,634.0130732969216
4,634.0329774856467
5,634.0567568907563
6,634.0855177807505
7,634.1204987932116
8,634.163174923455
9,634.2153446864767
10,634.279107167955
11,634.3566614137983
12,634.4499364783793
13,634.560134429254
14,634.6873005864215
15,634.8300185403135
16,634.9852817612574
17,635.1485530127266
18,635.3140055387194
19,635.4749296395694
20,635.6242660609545
21,635.75520638515
22,635.8618031129985
23,635.9395525919649
24,635.9859221017755
25,636.0007728297827
26,635.9866036874364
27,635.9485398992853
28,635.8940255199524
29,635.8322319549736
30,635.7732387418819
31,635.7270678023056
32,635.7026669829846
33,635.7069548981564
34,635.7440562724754
35,635.814858666467
36,635.9169873174329
37,636.0452235102102
38,636.1923085300564
39,636.3500084471989
40,636.510273465015
41,636.6663069234165
42,636.8133709527945
43,636.9492095624972
44,637.0740551248985
45,637.1902677371204
46,637.3017113929595
47,637.4129923654087
48,637.5286843467892
49,637.6526509484911
50,637.7875510900035
51,637.9345762767095
52,638.0934254967871
53,638.2624843493575
54,638.4391509809644
55,638.6202443626443
56,638.8024306777129
57,638.9826022901584
58,639.1581475663347
59,639.3270737926928
60,639.4879903386552
61,639.640003762289
62,639.7825945332388
63,639.9155275618931
64,640.0388107798242
65,640.1526833689585
66,640.2576038074692
67,640.3542145415825
68,640.4432737116757
69,640.5255611920256
70,640.6017850656776
71,640.6725254547805
72,640.7382458063556
73,640.7993813228912
74,640.8564903183615
75,640.9104320800774
76,640.9625162266284
77,641.0145596870557
78,641.0688023897828
79,641.1276801501065
80,641.1935145975882
81,641.2682175215367
82,641.3530988827541
83,641.4488260141698
84,641.5555350267667
85,641.6730613754556
86,641.8012349089057
87,641.9401746030732
88,642.0905222393271
89,642.2535685458412
90,642.4312415275361
91,642.6259449995155
92,642.8402617137316
93,643.0765650842327
94,643.3365981608382
95,643.6210685018068
96,643.9292885169236
97,644.2588882640351
98,644.6056487458887
99,644.9635300284975
100,645.3249713183493
101,645.6814999258679
102,646.0246071765198
103,646.3467632424879
104,646.6423901139704
105,646.908613402444
106,647.1456614215265
107,647.3568545324352
108,647.5482082494707
109,647.7277352591173
110,647.9045599449187
111,648.0879637113628
112,648.2864752400317
113,648.5071075864003
114,648.7548162679107
115,649.0322082413512
116,649.3394857047141
117,649.6745833750158
118,650.0334601946411
119,650.4105209786497
120,650.7991503010182
121,651.1923297010767
122,651.5832801446606
123,651.9660351750772
124,652.3358327093141
125,652.6892480539788
126,653.0240816690922
127,653.3391131398688
128,653.6338672855844
129,653.9084839076556
130,654.1636833750133
131,654.4007467838607
132,654.6214233059703
133,654.8277320940806
134,655.0216994324455
135,655.2051117387228
136,655.3793473421033
137,655.5452989794903
138,655.7033601425073
139,655.8534429968032
140,655.9950100809157
141,656.1271129371395
142,656.2484304728137
143,656.357300618346
144,656.4517567583354
145,656.5296120805125
146,656.5886498426734
147,656.6269439940733
148,656.6432614306807
149,656.6374342488688
150,656.6105800027229
151,656.5650916966007
152,656.5043916373609
153,656.4325142335556
154,656.3536278014317
155,656.2716158575781
156,656.1898182266922
157,656.1109801613007
158,656.0373773890041
159,655.9710147018261
160,655.9137868270036
161,655.8675474359884
162,655.8341028752889
163,655.8151772648054
164,655.812375414097
165,655.827131762073
166,655.8606153659674
167,655.9135717472836
168,655.9861040730049
169,656.0774162059962
170,656.1855632705501
171,656.3072830372342
172,656.4379965111427
173,656.5720436384655
174,656.7031529226506
175,656.8250576320678
176,656.9321120107862
177,657.0197619634338
178,657.0847816937041
179,657.1252650283334
180,657.1404236432827
181,657.1302839959712
182,657.0953915961524
183,657.0366187810567
184,656.9551281483642
185,656.8524871472156
186,656.7308836366326
187,656.5933652716218
188,656.4440179641779
189,656.2880155331159
190,656.1315129079038
191,655.9813994633118
192,655.8449526858781
193,655.7294299764069
194,655.6416230206671
195,655.587389667906
196,655.5711772089355
197,655.5955610530897
198,655.6608455570006
199,655.7647978012502
200,655.9025914662639
201,656.0670197735396
202,656.2489980057005
203,656.4383211662973
204,656.6245835733336
205,656.7981302767216
206,656.9509082617799
207,657.077107878341
208,657.173522355999
209,657.2396056143946
210,657.2772608329976
211,657.2904171782313
212,657.2844481078259
213,657.2654796262291
214,657.2396504903569
215,657.2124100689919
216,657.1879496276678
217,657.1688441760076
218,657.1559404473237
219,657.1484781993704
220,657.1443887058545
221,657.1406866940489
222,657.1338748890099
223,657.1203167828983
224,657.0965756510552
225,657.0597273125014
226,657.0076256459907
227,656.939069889637
228,656.8538257872797
229,656.7524866659404
230,656.6362012247498
231,656.5063273076901
232,656.3640938547093
233,656.2103602908618
234,656.0455392925873
235,655.8696931363978
236,655.6827504703815
237,655.4847551560595
238,655.2760671451591
239,655.057470243096
240,654.8301746744703
241,654.5957210195844
242,654.3558023187992
243,654.1120292533228
244,653.8656676831736
245,653.6173791427515
246,653.3669984029752
247,653.1133875724599
248,652.854408311866
249,652.5870482934646
250,652.3077178008492
251,652.0126932188243
252,651.6986414317246
253,651.3631390666781
254,651.0051116241158
255,650.6251443357633
256,650.2256394381433
257,649.8108045848013
258,649.3864570351036
259,648.959630129199
260,648.5379866871258
261,648.1290809870972
262,647.7395543233125
263,647.3743819650126
264,647.0362970729292
265,646.7254906625873
266,646.4396344678889
267,646.1742189983984
268,645.9231525101799
269,645.6795212383322
270,645.4363755863236
271,645.1874098151121
272,644.9274549340614
273,644.652775641212
274,644.3612045250012
275,644.0521401309187
276,643.7264065480367
277,643.3859656825515
278,643.033507298153
279,642.6719912264167
280,642.3042379451085
281,641.9326392043572
282,641.5590102980484
283,641.1845642130414
284,640.809972071719
285,640.435478407529
286,640.0610506887132
287,639.6865531076578
288,639.3119424555116
289,638.9374822450974
290,638.5639521957415
291,638.1927973135597
292,637.8261356412489
293,637.4665553388016
294,637.116691752012
295,636.7786590344061
296,636.4534709547659
297,636.1405911143297
298,635.837714727943
299,635.5408336703755
300,635.2445902114964
301,634.9428812642903
302,634.6296340327751
303,634.2996412525857
304,633.9493243537466
305,633.5772956540308
306,633.1846291228416
307,632.7748140212351
308,632.353421037944
309,631.9275320433744
310,631.5049846261824
311,631.093489522968
312,630.6997061486207
313,630.3283973909905
314,629.9818042472853
315,629.6593645102545
316,629.3578467292343
317,629.0718940248228
318,628.7948923029447
319,628.5200154538992
320,628.2412687071526
321,627.9543557621665
322,627.6572396362554
323,627.3503416562072
324,627.0363987022964
325,626.7200493776866
326,626.4072382297942
327,626.1045198904999
328,625.8183243457183
329,625.5542271154026
330,625.3162695246126
331,625.1063972297826
332,624.9241103713157
333,624.7664145365064
334,624.6281114270498
335,624.5023868075223
336,624.3815791904461
337,624.2579828913629
338,624.124562132366
339,623.9754987931065
340,623.8065280361711
341,623.6150332097114
342,623.3999028140684
343,623.1612047358788
344,622.8997769238111
345,622.616841388257
346,622.3137229620736
347,621.9917169998296
348,621.6521139371539
349,621.2963514121543
350,620.9262272150553
351,620.5440854058133
352,620.1528996174274
353,619.7562141627396
354,619.3579439111398
355,618.962067133937
356,618.5722683573402
357,618.1915959801128
358,617.8221939516758
359,617.4651561709146
360,617.1205378313514
361,616.7875354751478
362,616.464815660752
363,616.1509350575578
364,615.8447626945951
365,615.5458010236772
366,615.254315327512
367,614.9712217496034
368,614.6977463803931
369,614.4349393857281
370,614.1831898561559
371,613.941910532263
372,613.7095208716447
373,613.4837555251468
374,613.2622107878598
375,613.0429751854241
376,612.8251933125285
377,612.6094566268812
378,612.3979669113834
379,612.1944645238513
380,612.0039514521889
381,611.8322645150142
382,611.6855639353652
383,611.5697961619755
384,611.4901698218046
385,611.4506619062992
386,611.4535647226583
387,611.4990988905857
388,611.5851415754296
389,611.7071323850287
390,611.8582115101148
391,612.0296185545233
392,612.2113390485375
393,612.3929318837653
394,612.5644239019582
395,612.7171441240406
396,612.8443957161155
397,612.9419096115093
398,613.0080635521982
399,613.0438701587611
400,613.0527425573706
401,613.0400510810285
402,613.0125036650263
403,612.977418906375
404,612.9419939709087
405,612.9126697703324
406,612.8946621612396
407,612.8916882727079
408,612.9058882413742
409,612.9379215650094
410,612.9872041899818
411,613.0522491311074
412,613.1310706535978
413,613.2216016732322
414,613.322060319284
415,613.4311953477852
416,613.5483540005682
417,613.6733575930076
418,613.8062277883455
419,613.9468500529654
420,614.0946666257055
421,614.2484638883918
422,614.406282056348
423,614.5654462797022
424,614.7227015979922
425,614.8744301240819
426,615.0169332504142
427,615.146759855522
428,615.2610425167002
429,615.3577805312584
430,615.4360099274338
431,615.4958393467688
432,615.5383815084231
433,615.5656274104948
434,615.5802804354657
435,615.5855330360722
436,615.5847800433265
437,615.5813127377061
438,615.5780745097437
439,615.5775488900773
440,615.581802224766
441,615.5926416816416
442,615.6118009880491
443,615.6410554080243
444,615.6822002755897
445,615.7368829392502
446,615.8063270203781
447,615.8910164963702
448,615.9904168360326
449,616.1028040483344
450,616.2252485207911
451,616.3537610200443
452,616.4835649287487
453,616.6094291337408
454,616.7259959501149
455,616.8280712235031
456,616.9108886298674
457,616.9703828110746
458,617.0034873705357
459,617.0084284678052
460,616.9849506682486
461,616.9344186171725
462,616.8597789180812
463,616.765401597273
464,616.6568205025109
465,616.5403736164765
466,616.4227457894377
467,616.3104443593294
468,616.2092649010655
469,616.1238112615621
470,616.0571279076329
471,616.010493712917
472,615.9834126168287
473,615.9738119219827
474,615.9784247088731
475,615.9932950936305
476,616.0143111270668
477,616.0376573359133
478,616.0601072571993
479,616.0791375106364
480,616.0929006688802
481,616.100115469656
482,616.0999241132811
483,616.0917505786592
484,616.075187955232
485,616.049944870001
486,616.0158771017402
487,615.9731130118315
488,615.9222575215466
489,615.8646368655267
490,615.8025247893142
491,615.7392739983685
492,615.6792793708881
493,615.6277308228913
494,615.5901642473548
495,615.571871730569
496,615.5772746872009
497,615.6093812025852
498,615.6694269458442
499,615.7567446585341
500,615.8688524532095
501,616.0017206996368
502,616.150169023074
503,616.3083464832201
504,616.4702532274388
505,616.6302671308955
506,616.7836382208018
507,616.9269049646442
508,617.0581783385574
509,617.1772471742019
510,617.2854883197757
511,617.3856050557496
512,617.4812437417985
513,617.5765398448253
514,617.6756337769327
515,617.7821991239316
516,617.8990423595998
517,618.0278376424426
518,618.1690378405582
519,618.3219687201587
520,618.4850836347114
521,618.6563300375896
522,618.8335548943463
523,619.0148616940784
524,619.1988364395784
525,619.384589690859
526,619.5716166921168
527,619.7595382913281
528,619.9478144750369
529,620.1355032561142
530,620.3210991159524
531,620.5024669615412
532,620.6768939246193
533,620.8412860272322
534,620.9925177099369
535,621.1278965281829
536,621.2456489804349
537,621.3453000881038
538,621.4278376666432
539,621.495613605618
540,621.552001509609
541,621.6008772432414
542,621.6460157950305
543,621.6905086023853
544,621.7362989526719
545,621.7839117710088
546,621.8324251359028
547,621.8796986687231
548,621.9228395749865
549,621.9588475866681
550,621.9853314458215
551,622.0011464960601
552,622.006802830399
553,622.0045565467494
554,621.9981907043892
555,621.9925599530342
556,621.9929891704359
557,622.004606637553
558,622.0316901894923
559,622.077112429043
560,622.1419662650072
561,622.2254243922979
562,622.3248470038313
563,622.4361137851614
564,622.5541219436224
565,622.6733635061265
566,622.7884857131614
567,622.8947630275243
568,622.9884562266586
569,623.0670675643266
570,623.1295028673998
571,623.1761384651896
572,623.2087881585697
573,623.2305778230841
574,623.2457456431802
575,623.2593785340483
576,623.2770785358678
577,623.304552859334
578,623.3471480454315
579,623.4093806690805
580,623.4945274017722
581,623.6043242283038
582,623.7388014633427
583,623.8962580757757
584,624.0733658793652
585,624.2653953767039
586,624.4665567246445
587,624.6704402649445
588,624.8705305815969
589,625.0607628969843
590,625.2360805013341
591,625.3929339417139
592,625.5296538344992
593,625.6466419238033
594,625.7463506214827
595,625.8330439888596
596,625.912348389189
597,625.9906186758219
598,626.0741811256887
599,626.1685649937039
600,626.2778650713603
601,626.4043530363318
602,626.5483893601929
603,626.7086256002624
604,626.882448623276
605,627.0665886862076
606,627.2577814643356
607,627.4533514187559
608,627.6515895314561
609,627.8518428339623
610,628.054306491489
611,628.2595827944729
612,628.4681222485293
613,628.6796882588255
614,628.8929898454313
615,629.1055953877215
616,629.3141659168701
617,629.51494336684
618,629.7043405891648
619,629.879456599625
620,630.0383962062685
621,630.1803653472709
622,630.3055808221221
623,630.4150461742158
624,630.5102232765395
625,630.5926186593111
626,630.6633346784363
627,630.7226844926643
628,630.769981244433
629,630.8035658207954
630,630.8210697217705
631,630.8198589364162
632,630.7975758666097
633,630.7526816303022
634,630.6849059293036
635,630.5955409103792
636,630.4875537840609
637,630.3655170923358
638,630.235362098352
639,630.1039695418681
640,629.9786380806355
641,629.8665012202378
642,629.7739699835649
643,629.706252842661
644,629.66697102569
645,629.6578748460297
646,629.6786781244499
647,629.7270440898923
648,629.7987572101405
649,629.8880917273849
650,629.9883464033043
651,630.0924801255063
652,630.1937732484355
653,630.2864444423404
654,630.3661535886096
655,630.4303272997615
656,630.4782754558522
657,630.511113739212
658,630.531537179488
659,630.5434931288412
660,630.551792272216
661,630.5616875934517
662,630.5784519667297
663,630.6069933460217
664,630.651545975326
665,630.7154523151149
666,630.8010127559932
667,630.9093580121558
668,631.0403155856075
669,631.19228973536
670,631.3622206600941
671,631.5457023691883
672,631.7373104980802
673,631.9311309485378
674,632.1214113813455
675,632.3032108736312
676,632.4729209555612
677,632.6285727767431
678,632.7699037999695
679,632.8981999493988
680,633.0159450464997
681,633.1263181855261
682,633.2326038075021
683,633.3376158553632
684,633.4432594609901
685,633.5503323880813
686,633.6585992446204
687,633.7670847014366
688,633.8744754929245
689,633.9795221122614
690,634.0813723684033
691,634.1798076121006
692,634.2753652637884
693,634.3693307035622
694,634.4635896311322
695,634.5603545992132
696,634.6618079670532
697,634.7697276239546
698,634.8851736470531
699,635.0083062840257
700,635.1383739680206
701,635.2738592473845
702,635.4127172600331
703,635.5526106234609
704,635.6910555122462
705,635.8254432208456
706,635.9529650702664
707,636.0705175625754
708,636.1746804278921
709,636.2618366114623
710,636.3284499313104
711,636.3714576342825
712,636.3886954913393
713,636.379263424202
714,636.3437618542274
715,636.2843753758727
716,636.2048281351736
717,636.1102585391203
718,636.0070478447152
719,635.902593651662
720,635.8049710743321
721,635.7224114923135
722,635.6625763442116
723,635.6316958074009
724,635.6337307655411
725,635.6697507640297
726,635.7376820392032
727,635.8324921416283
728,635.9467828913957
729,636.0716904756005
730,636.1979515900427
731,636.3169886675755
732,636.4218867947484
733,636.5081624223311
734,636.5742467785151
735,636.6216280604168
736,636.654625319965
737,636.6798069265097
738,636.7051167847479
739,636.7388250979549
740,636.7884563173275
741,636.8598440052572
742,636.9564248720563
743,637.0788345908427
744,637.2248210573496
745,637.3894527181576
746,637.5655775227073
747,637.744482065273
748,637.9166966613788
749,638.07287757938
750,638.2046772316833
751,638.3055033299378
752,638.3710803690286
753,638.3997599415513
754,638.3925676760517
755,638.3530088629155
756,638.2866741426127
757,638.2006933304281
758,638.1030896934129
759,638.0020978796138
760,637.9055217642439
761,637.8202068948086
762,637.7516742827507
763,637.7039141655692
764,637.6792905496496
765,637.6784843507845
766,637.7004236156529
767,637.742211658847
768,637.799133949777
769,637.8648547512373
770,637.9318818680661
771,637.9923001886765
772,638.0386924207593
773,638.0651098391194
774,638.0679328499957
775,638.0464657394524
776,638.0031475561565
777,637.9433369785777
778,637.8747209817939
779,637.8064635384821
780,637.7482298062237
781,637.7092063281
782,637.6972126485291
783,637.7179744166918
784,637.7746010665204
785,637.8672857602222
786,637.9932297355086
787,638.1467897575344
788,638.3198506205281
789,638.5024236442238
790,638.683451711617
791,638.8517546548097
792,638.9969935803056
793,639.1105069192984
794,639.1859003299971
795,639.2193432470506
796,639.209596960875
797,639.1578439353796
798,639.0674003125996
799,638.9433770089404
800,638.7923192690758
801,638.6218215177637
802,638.4401040773326
803,638.2555524189535
804,638.0762441866478
805,637.9095062476073
806,637.7615421561911
807,637.6371559690939
808,637.5395860990008
809,637.4704543943199
810,637.4298240483816
811,637.4163479255886
812,637.4274817700317
813,637.4597326518882
814,637.5089154103632
815,637.5704087933884
816,637.6394284502474
817,637.7113342762872
818,637.7819549859954
819,637.8478748903726
820,637.9066209115422
821,637.9567133655705
822,637.9975820933843
823,638.029382406595
824,638.0527633566339
825,638.0686388673329
826,638.0779900367813
827,638.0816975930878
828,638.0803928303178
829,638.0743335353783
830,638.0633324011653
831,638.0467572012152
832,638.0235908582749
833,637.9925200029842
834,637.9520270037998
835,637.900475365729
836,637.8361886271199
837,637.7575364222181
838,637.663060374125
839,637.551677140929
840,637.4229695440137
841,637.2775269216528
842,637.1172453835972
843,636.9454753634142
844,636.7669342485034
845,636.5873835535779
846,636.4131549585812
847,636.2506421444627
848,636.1058462705191
849,635.984006966232
850,635.8893029957835
851,635.8245818923064
852,635.7910845860778
853,635.7881740587375
854,635.8131354012596
855,635.86114617078
856,635.9254962723472
857,635.9980794400078
858,636.0701142791132
859,636.1330017325232
860,636.1791952866449
861,636.2029566505105
862,636.2008954389859
863,636.1722350869888
864,636.1187914943031
865,636.0446863551406
866,635.9558390998756
867,635.8592885216028
868,635.7624001926715
869,635.67203603413
870,635.5937914832713
871,635.5314160997069
872,635.4865103228533
873,635.458542468797
874,635.4451687159649
875,635.442777544842
876,635.4471400359774
877,635.45404986756
878,635.4598778988396
879,635.4620096435074
880,635.4591469034493
881,635.4514451285135
882,635.4404567613832
883,635.4288709594418
884,635.4200723319092
885,635.4175747318645
886,635.4244145277776
887,635.4426050339479
888,635.4727526275032
889,635.5139088990256
890,635.5636836109562
891,635.6185868982178
892,635.6745269639878
893,635.7273709034835
894,635.7734805635221
895,635.8101591692983
896,635.8359780144441
897,635.8509772770043
898,635.8567372885474
899,635.8563025069799
900,635.8539318867316
901,635.8546641089825
902,635.8637237247679
903,635.8858394561627
904,635.924580994098
905,635.981831763856
906,636.0574945323315
907,636.1494782705399
908,636.2539558122335
909,636.3658336667208
910,636.4793493026913
911,636.5887055824793
912,636.6886583002574
913,636.7749850961505
914,636.8447844673424
915,636.8965855130795
916,636.930284912864
