frame_number,force
0,728.9067400063802
1,728.9161594329516
2,728.9254395651668
3,728.9344422794737
4,728.9430317761565
5,728.9510756977008
6,728.9584461974509
7,728.965020945998
8,728.9706840654003
9,728.9753269837845
10,728.9788492049752
11,728.9811589895027
12,728.9821739445438
13,728.9818215211783
14,728.9800394182954
15,728.9767758939818
16,728.971989987108
17,728.965651653427
18,728.9577418211505
19,728.948252370533
20,728.9371860408894
21,728.9245562672309
22,728.9103869475797
23,728.8947121410955
24,728.877575696631
25,728.8590308115711
26,728.8391395222233
27,728.8179721298271
28,728.7956065698905
29,728.7721277356588
30,728.7476267679574
31,728.7222003233418
32,728.6959498311949
33,728.668980748737
34,728.6414018209398
35,728.6133243501471
36,728.5848614784549
37,728.5561274851348
38,728.5272371011824
39,728.4983048426845
40,728.4694443639329
41,728.4407678303293
42,728.4123853102554
43,728.3844041842551
44,728.356928569279
45,728.33005875568
46,728.3038906553486
47,728.2785152607959
48,728.2540181166147
49,728.2304788061534
50,728.2079704573495
51,728.1865592725061
52,728.166304087383
53,728.147255965623
54,728.129457835593
55,728.1129441780049
56,728.0977407735268
57,728.083864519345
58,728.0713233221184
59,728.0601160723278
60,728.0502327023019
61,728.0416543277369
62,728.034353470612
63,728.0282943601433
64,728.0234333078092
65,728.0197191523388
66,728.0170937704332
67,728.015492648562
68,728.0148455103872
69,728.0150769934824
70,728.016107368353
71,728.0178532926411
72,728.0202285938889
73,728.0231450750392
74,728.0265133374733
75,728.030243616566
76,728.0342466245615
77,728.038434395104
78,728.0427211230144
79,728.0470239919565
80,728.0512639818471
81,728.0553666476113
82,728.0592628612105
83,728.0628895094395
84,728.0661901404854
85,728.0691155524469
86,728.0716243165804
87,728.0736832269404
88,728.0752676671817
89,728.0763618856791
90,728.0769591718988
91,728.0770619293177
92,728.0766816422556
93,728.075838735345
94,728.0745623251632
95,728.0728898644784
96,728.0708666812652
97,728.0685454171418
98,728.0659853724675
99,728.0632517673687
100,728.060414929451
101,728.0575494204477
102,728.0547331156604
103,728.0520462512652
104,728.0495704549058
105,728.0473877746242
106,728.0455797206247
107,728.0442263338732
108,728.0434052947516
109,728.0431910834578
110,728.0436542015557
111,728.044860461318
112,728.0468703469372
113,728.0497384501649
114,728.0535129829922
115,728.0582353710973
116,728.0639399326469
117,728.0706536464273
118,728.0783960111688
119,728.0871789955684
120,728.097007077146
121,728.1078773676189
122,728.1197798218701
123,728.1326975259899
124,728.1466070573057
125,728.1614789066354
126,728.1772779511438
127,728.1939639654771
128,728.2114921588936
129,728.2298137264224
130,728.2488764026688
131,728.2686250078672
132,728.2890019770194
133,728.3099478643293
134,728.3314018169528
135,728.3533020144605
136,728.3755860727769
137,728.3981914130368
138,728.421055596903
139,728.444116631152
140,728.4673132459538
141,728.490585152513
142,728.5138732857308
143,728.53712003633
144,728.5602694754953
145,728.5832675743595
146,728.6060624203968
147,728.6286044324726
148,728.6508465759866
149,728.6727445794522
150,728.6942571536184
151,728.7153462132081
152,728.7359770992583
153,728.756118797149
154,728.7757441423577
155,728.7948300038453
156,728.8133574348394
157,728.8313117826775
158,728.8486827522839
159,728.8654644207086
160,728.8816552027276
161,728.8972577698548
162,728.9122789268363
163,728.9267294503138
164,728.9406238939357
165,728.9539803633509
166,728.9668202638948
167,728.9791680238051
168,728.9910507963759
169,729.0024981447573
170,729.0135417123386
171,729.0242148799676
172,729.0345524097614
173,729.0445900750242
174,729.0543642768688
175,729.0639116497069
176,729.0732686588032
177,729.0824711932897
178,729.0915541579809
179,729.1005510674754
180,729.1094936462271
181,729.1184114383984
182,729.1273314317468
183,729.1362777006797
184,729.1452710745966
185,729.1543288382816
186,729.163464471126
187,729.1726874310496
188,729.1820029871476
189,729.1914121030745
190,729.200911371842
191,729.2104930022707
192,729.2201448573991
193,729.2298505452962
194,729.2395895625399
195,729.2493374897992
196,729.25906623767
197,729.2687443399343
198,729.2783372913474
199,729.287807927614
200,729.2971168456227
201,729.3062228616534
202,729.3150835040832
203,729.3236555355702
204,729.3318954984608
205,729.3397602763522
206,729.3472076639794
207,729.354196936713
208,729.3606894102843
209,729.3666489812773
210,729.3720426394324
211,729.3768409435171
212,729.3810184532399
213,729.3845541105217
214,729.3874315643588
215,729.3896394343011
216,729.391171508347
217,729.3920268723822
218,729.3922099703502
219,729.3917305965152
220,729.3906038225473
221,729.3888498626427
222,729.3864938801572
223,729.383565739759
224,729.3800997097263
225,729.3761341195184
226,729.3717109782401
227,729.366875560275
228,729.3616759651869
229,729.3561626597784
230,729.3503880105256
231,729.3444058143241
232,729.3382708349362
233,729.3320383521691
234,729.3257637305038
235,729.3195020131075
236,729.3133075455473
237,729.3072336313819
238,729.3013322198766
239,729.2956536252088
240,729.2902462769431
241,729.2851565025545
242,729.2804283433518
243,729.2761034049647
244,729.2722207428179
245,729.2688167816228
246,729.265925265771
247,729.2635772353816
248,729.2618010219187
249,729.2606222581218
250,729.2600638987176
251,729.260146250044
252,729.2608870078669
253,729.2623013032708
254,729.2644017568284
255,729.2671985415785
256,729.270699455638
257,729.2749100051795
258,729.2798334977339
259,729.2854711446377
260,729.2918221705107
261,729.2988839272449
262,729.3066520101762
263,729.3151203747159
264,729.324281452244
265,729.3341262639179
266,729.3446445302304
267,729.3558247733833
268,729.3676544095357
269,729.3801198286957
270,729.3932064609236
271,729.4068988283286
272,729.4211805831554
273,729.4360345329734
274,729.4514426542877
275,729.467386095685
276,729.483845171188
277,729.5007993441204
278,729.5182272016486
279,729.5361064204319
280,729.5544137244813
281,729.5731248368484
282,729.5922144264251
283,729.611656049976
284,729.6314220883576
285,729.651483675484
286,729.6718106193633
287,729.6923713165589
288,729.7131326642245
289,729.7340599762571
290,729.7551169110363
291,729.7762654175684
292,729.797465705513
293,729.8186762434999
294,729.8398537894373
295,729.8609534555975
296,729.881928809861
297,729.9027320130671
298,729.9233139915685
299,729.9436246437639
300,729.963613078886
301,729.9832278851876
302,730.0024174232173
303,730.0211301388247
304,730.0393148899452
305,730.0569212807775
306,730.0738999967733
307,730.090203134339
308,730.1057845200829
309,730.1206000151864
310,730.1346078009385
311,730.1477686422847
312,730.1600461277092
313,730.1714068852156
314,730.1818207747796
315,730.1912610574346
316,730.199704540658
317,730.2071316992191
318,730.2135267702765
319,730.2188778215393
320,730.2231767918383
321,730.2264195041491
322,730.2286056515911
323,730.2297387571888
324,730.229826108383
325,730.2288786675651
326,730.2269109603466
327,730.223940943877
328,730.2199898582442
329,730.2150820648461
330,730.209244876631
331,730.2025083859075
332,730.1949052954837
333,730.1864707580037
334,730.1772422268772
335,730.1672593203774
336,730.1565636983389
337,730.145198948841
338,730.1332104811194
339,730.1206454209926
340,730.1075525057639
341,730.0939819763001
342,730.0799854646497
343,730.0656158762429
344,730.0509272664102
345,730.035974711569
346,730.0208141757543
347,730.0055023729336
348,729.9900966247445
349,729.974654712359
350,729.9592347205045
351,729.943894871112
352,729.9286933433305
353,729.9136880760218
354,729.8989365488962
355,729.8844955393146
356,729.8704208533509
357,729.8567670318358
358,729.8435870344441
359,729.8309319068023
360,729.8188504365476
361,729.8073888041056
362,729.7965902328519
363,729.786494641934
364,729.777138304304
365,729.7685535127171
366,729.7607682569961
367,729.7538059164635
368,729.7476849726819
369,729.7424187499275
370,729.7380151933605
371,729.7344766962525
372,729.7317999871037
373,729.7299760852388
374,729.7289903303058
375,729.7288224879079
376,729.7294469309725
377,729.7308328945811
378,729.7329448008564
379,729.735742650144
380,729.7391824748374
381,729.7432168520384
382,729.7477954703122
383,729.752865744306
384,729.7583734695028
385,729.7642635082258
386,729.770480497058
387,729.7769695648882
388,729.7836770498235
389,729.7905512024757
390,729.7975428628024
391,729.8046060977264
392,729.8116987873271
393,729.8187831489494
394,729.8258261913916
395,729.8328000947699
396,729.8396825143853
397,729.8464568081627
398,729.8531121875425
399,729.8596437922911
400,729.8660526910189
401,729.8723458106305
402,729.8785357985571
403,729.8846408211965
404,729.8906843009618
405,729.896694593501
406,729.9027046064444
407,729.908751361511
408,729.9148755027934
409,729.9211207553707
410,729.9275333399341
411,729.9341613505899
412,729.9410541040527
413,729.948261468972
414,729.9558331843728
415,729.9638181761987
416,729.9722638804725
417,729.9812155807347
418,729.9907157669219
419,730.0008035233235
420,730.0115139544022
421,730.0228776579377
422,730.034920254206
423,730.0476619776915
424,730.0611173349743
425,730.0752948298326
426,730.0901967546887
427,730.1058190464087
428,730.1221512040518
429,730.1391762658824
430,730.1568708422557
431,730.1752052000214
432,730.1941433936494
433,730.2136434386603
434,730.2336575236726
435,730.2541322579423
436,730.2750089517465
437,730.2962239275514
438,730.3177088604945
439,730.3393911470877
440,730.3611943011402
441,730.3830383757711
442,730.4048404100437
443,730.4265148982907
444,730.4479742798801
445,730.4691294472044
446,730.489890269956
447,730.5101661340494
448,730.5298664935739
449,730.5489014336935
450,730.5671822416376
451,730.5846219822175
452,730.6011360737431
453,730.6166428595516
454,730.631064169437
455,730.6443258644146
456,730.6563583581486
457,730.667097109056
458,730.6764830777
459,730.6844631438759
460,730.6909904772123
461,730.6960248551408
462,730.6995329230975
463,730.7014883935078
464,730.7018721821647
465,730.700672482897
466,730.6978847835776
467,730.6935118280745
468,730.6875635293972
469,730.6800568389662
470,730.6710155758283
471,730.66047021846
472,730.6484576614131
473,730.6350209397856
474,730.6202089259144
475,730.604076004184
476,730.5866817309729
477,730.5680904870942
478,730.5483711291528
479,730.5275966439805
480,730.5058438074263
481,730.4831928464117
482,730.4597271020424
483,730.4355326917361
484,730.4106981695214
485,730.3853141854119
486,730.3594731461803
487,730.333268880134
488,730.3067963076602
489,730.2801511181412
490,730.2534294527876
491,730.2267275918433
492,730.2001416433602
493,730.173767229593
494,730.1476991664176
495,730.1220311310778
496,730.0968553137847
497,730.0722620491704
498,730.0483394247393
499,730.0251728657119
500,730.0028446986868
501,729.9814336994082
502,729.9610146318871
503,729.9416577871008
504,729.9234285295616
505,729.9063868592617
506,729.890586995084
507,729.8760769842918
508,729.8628983415009
509,729.8510857195367
510,729.8406666136822
511,729.8316611002873
512,729.8240816106495
513,729.817932741262
514,729.8132111018332
515,729.8099052031159
516,729.8079953877792
517,729.8074538091766
518,729.808244464393
519,729.8103232886559
520,729.8136383174505
521,729.818129920452
522,729.8237311084781
523,729.830367912127
524,729.8379598290594
525,729.8464203354079
526,729.8556574548026
527,729.8655743763043
528,729.8760701113865
529,729.8870401806809
530,729.8983773229439
531,729.9099722205697
532,729.9217142373512
533,729.9334921650285
534,729.9451949755464
535,729.9567125758099
536,729.9679365608282
537,729.9787609595406
538,729.9890829658251
539,729.9988036459503
540,730.0078286136759
541,730.0160686655299
542,730.023440370935
543,730.0298666138613
544,730.0352770838588
545,730.0396087147369
546,730.0428060692907
547,730.0448216683993
548,730.0456162620912
549,730.0451590385362
550,730.0434277650215
551,730.0404088539295
552,730.036097347294
553,730.0304968156373
554,730.0236191698131
555,730.015484387804
556,730.0061201612298
557,729.9955614683408
558,729.9838500816252
559,729.971034019401
560,729.9571669522
561,729.9423075759264
562,729.9265189641826
563,729.9098679117965
564,729.892424280767
565,729.8742603586919
566,729.8554502382968
567,729.8360692251423
568,729.8161932789501
569,729.7958984920151
570,729.775260605869
571,729.754354565389
572,729.7332541084502
573,729.7120313887353
574,729.690756628913
575,729.6694978010365
576,729.6483203309298
577,729.6272868235187
578,729.6064568065026
579,729.5858864906315
580,729.5656285461345
581,729.5457318960463
582,729.5262415279174
583,729.5071983257494
584,729.488638924128
585,729.4705955862538
586,729.4530961069538
587,729.4361637413541
588,729.4198171600292
589,729.404070431794
590,729.3889330354094
591,729.374409901344
592,729.3605014844878
593,729.3472038681773
594,729.3345088989848
595,729.3224043508568
596,729.3108741169434
597,729.2998984278756
598,729.289454095822
599,729.2795147841365
600,729.2700513031094
601,729.2610319333086
602,729.2524227784803
603,729.244188149211
604,729.2362909768849
605,729.2286932558944
606,729.2213565110877
607,729.2142422868375
608,729.2073126534635
609,729.2005307258654
610,729.1938611883163
611,729.1872708188167
612,729.1807290061805
613,729.1742082527117
614,729.1676846548578
615,729.1611383542102
616,729.154553952031
617,729.147920881693
618,729.1412337343406
619,729.1344925334746
620,729.1277029542413
621,729.1208764836031
622,729.1140305188918
623,729.1071884043444
624,729.1003794072058
625,729.0936386360629
626,729.0870069040421
627,729.0805305385304
628,729.0742611374612
629,729.0682552705007
630,729.0625741225098
631,729.0572830770941
632,729.052451239784
633,729.0481509024544
634,729.0444569520089
635,729.0414462270619
636,729.039196827178
637,729.037787380902
638,729.0372962811838
639,729.0378008991275
640,729.0393767885895
641,729.042096894787
642,729.046030779848
643,729.0512438773673
644,729.0577967871218
645,729.0657446206469
646,729.0751364082644
647,729.0860145777305
648,729.0984145135518
649,729.1123642041431
650,729.1278839814507
651,729.1449863548356
652,729.1636759385425
653,729.1839494702069
654,729.2057959163761
655,729.2291966598711
656,729.2541257632193
657,729.2805503024819
658,729.3084307661198
659,729.3377215131696
660,729.368371283446
661,729.4003237503209
662,729.4335181048455
663,729.4678896589888
664,729.5033704553583
665,729.5398898709083
666,729.5773752030024
667,729.615752227545
668,729.6549457203137
669,729.6948799340696
670,729.7354790258025
671,729.7766674307877
672,729.8183701827777
673,729.8605131819601
674,729.9030234137441
675,729.9458291221639
676,729.9888599421895
677,730.0320469956166
678,730.0753229552821
679,730.1186220820921
680,730.1618802389798
681,730.2050348857465
682,730.2480250588357
683,730.2907913400155
684,730.3332758173501
685,730.3754220411726
686,730.41717497787
687,730.4584809653064
688,730.499287674828
689,730.539544085076
690,730.5792004720472
691,730.6182084184496
692,730.6565208439696
693,730.6940920568906
694,730.7308778266308
695,730.7668354760752
696,730.8019239918931
697,730.836104150406
698,730.8693386563251
699,730.9015922919998
700,730.9328320753012
701,730.9630274242448
702,730.9921503256855
703,731.0201755043313
704,731.0470805877121
705,731.0728462630987
706,731.0974564235102
707,731.1208983011273
708,731.1431625869212
709,731.1642435349216
710,731.1841390485962
711,731.2028507457916
712,731.2203839979168
713,731.2367479384346
714,731.2519554351517
715,731.2660230207176
716,731.2789707769148
717,731.2908221706773
718,731.3016038424666
719,731.3113453500789
720,731.3200788730483
721,731.3278388840935
722,731.3346617938183
723,731.3405855731322
724,731.3456493557564
725,731.3498930220486
726,731.3533567655812
727,731.3560806448874
728,731.3581041239571
729,731.3594656062932
730,731.3602019686572
731,731.3603481019417
732,731.3599364675817
733,731.3589966783072
734,731.3575551118365
735,731.3556345656602
736,731.3532539605758
737,731.3504281000934
738,731.3471674921446
739,731.3434782386826
740,731.3393619976762
741,731.3348160203091
742,731.3298332637037
743,731.324402576639
744,731.3185089533861
745,731.3121338496621
746,731.3052555546875
747,731.2978496135486
748,731.2898892936062
749,731.2813460872748
750,731.2721902417644
751,731.2623913054223
752,731.2519186808693
753,731.2407421767733
754,731.2288325516228
755,731.2161620436735
756,731.2027048818454
757,731.1884377730669
758,731.1733403618025
759,731.1573956566039
760,731.1405904168063
761,731.1229154909549
762,731.1043660981985
763,731.0849420451668
764,731.0646478732393
765,731.0434929335368
766,731.0214913888782
767,730.9986621437229
768,730.975028705256
769,730.9506189810822
770,730.9254650209364
771,730.8996027112638
772,730.873071432524
773,730.8459136896228
774,730.8181747258918
775,730.7899021305434
776,730.7611454487513
777,730.7319558025492
778,730.702385529515
779,730.6724878446458
780,730.6423165291628
781,730.6119256486099
782,730.5813693017549
783,730.5507014011803
784,730.5199754854838
785,730.4892445615285
786,730.4585609736371
787,730.4279762953677
788,730.3975412385722
789,730.367305574017
790,730.3373180582596
791,730.3076263624188
792,730.2782769990703
793,730.249315243301
794,730.2207850432607
795,730.1927289149908
796,730.1651878163821
797,730.1382009959451
798,730.1118058134575
799,730.0860375311829
800,730.0609290760934
801,730.0365107753768
802,730.0128100695198
803,729.9898512094563
804,729.9676549463715
805,729.946238224343
806,729.9256138868587
807,729.9057904084049
808,729.886771661595
809,729.8685567285337
810,729.8511397626777
811,729.8345099051793
812,729.8186512580196
813,729.803542915024
814,729.7891590506233
815,729.7754690647179
816,729.7624377803108
817,729.7500256889765
818,729.7381892377124
819,729.7268811492534
820,729.7160507666999
821,729.705644412787
822,729.6956057546585
823,729.6858761667423
824,729.6763950868637
825,729.6671003631811
826,729.6579285912353
827,729.6488154415487
828,729.6396959790608
829,729.6305049759497
830,729.621177219025
831,729.6116478124364
832,729.6018524763214
833,729.5917278419042
834,729.5812117430685
835,729.5702435035042
836,729.5587642175688
837,729.5467170224567
838,729.5340473594873
839,729.5207032231697
840,729.506635397672
841,729.4917976807907
842,729.4761470952259
843,729.4596440861427
844,729.4422527030359
845,729.4239407631644
846,729.4046799935834
847,729.3844461492329
848,729.3632191054685
849,729.3409829245895
850,729.317725897244
851,729.2934405609536
852,729.2681236988202
853,729.2417763210975
854,729.2144036308543
855,729.1860149735538
856,729.1566237700374
857,729.1262474328678
858,729.0949072661958
859,729.062628348966
860,729.0294394011086
861,728.9953726330666
862,728.9604635802956
863,728.924750925372
864,728.8882763106953
865,728.851084144989
866,728.8132214074204
867,728.774737453738
868,728.7356838283845
869,728.6961140847403
870,728.6560836133289
871,728.6156494761415
872,728.5748702445094
873,728.5338058376019
874,728.4925173584298
875,728.4510669244833
876,728.4095174909658
877,728.3679326655914
878,728.3263765146414
879,728.2849133601247
880,728.2436075675116
881,728.2025233232771
882,728.1617244022236
883,728.1212739260807
884,728.081234115945
885,728.0416660409292
886,728.0026293647302
887,727.9641820920384
888,727.9263803180645
889,727.8892779862452
890,727.8529266607662
891,727.8173753215875
892,727.7826701898464
893,727.7488545905833
894,727.7159688579466
895,727.6840502861761
896,727.6531331284355
897,727.6232486447063
898,727.5944251985521
899,727.5666884002677
900,727.5400612913697
901,727.5145645633011
902,727.4902168019681
903,727.4670347493561
904,727.4450335738072
905,727.4242271412903
906,727.4046282809195
907,727.3862490389015
908,727.3691009156759
909,727.3531950810952
910,727.3385425624997
911,727.3251544011875
912,727.3130417743023
913,727.3022160809271
914,727.2926889924483
915,727.28447246785
916,727.2775787347341
917,727.2720202365325
918,727.2678095456813
