frame_number,force
0,557.8804900000414
1,557.3163214946485
2,556.7623429250623
3,556.2280511388917
4,555.7216723961893
5,555.2497727045948
6,554.8170706423633
7,554.426424866227
8,554.0789505368374
9,553.7742201584149
10,553.5105165858741
11,553.2851187712176
12,553.0946034989332
13,552.9351404165334
14,552.802757634844
15,552.6935669757762
16,552.6039451216519
17,552.5306514603194
18,552.4708404233601
19,552.421936312557
20,552.3813928755253
21,552.3464184850735
22,552.3137709937319
23,552.2797122865321
24,552.2401723679004
25,552.1911079532356
26,552.1289646806899
27,552.0511059335304
28,551.9560883268936
29,551.8437339043263
30,551.7150320266398
31,551.5719613888897
32,551.4173263287134
33,551.2546459979411
34,551.0880589367504
35,550.9221720003386
36,550.7618145624742
37,550.6117158099453
38,550.4761549290535
39,550.3586358031912
40,550.2616306272188
41,550.1864275480303
42,550.1331026822987
43,550.1006215014743
44,550.0870606996205
45,550.0899190021953
46,550.106451855216
47,550.1339428969802
48,550.1698430576022
49,550.2117658004727
50,550.2573858979281
51,550.304309639378
52,550.3499675149384
53,550.3915586039581
54,550.4260697007344
55,550.450388569617
56,550.4615058333771
57,550.4567608875483
58,550.434070875992
59,550.3921033920701
60,550.3303871165222
61,550.2493726067353
62,550.1504535413864
63,550.0359438977343
64,549.9089908760433
65,549.7734015497007
66,549.6333797505772
67,549.4932017365273
68,549.3568889666345
69,549.2279485881908
70,549.1092399545312
71,549.0029902159656
72,548.9109328396207
73,548.8344962636214
74,548.7749461436747
75,548.7334008549707
76,548.7106971084411
77,548.7071547168057
78,548.7223350531123
79,548.7548814221702
80,548.8024824712443
81,548.8619467978627
82,548.9293491977983
83,549.0002169186394
84,549.069754059227
85,549.1331218450825
86,549.1857767173475
87,549.2238277406528
88,549.2443476279993
89,549.2455818899895
90,549.2270362742078
91,549.1894517874362
92,549.1346805720705
93,549.0654672893753
94,548.985146576815
95,548.8972944274177
96,548.8053952536279
97,548.7125809851012
98,548.6214689185782
99,548.5340973198435
100,548.4519459673566
101,548.3760258039791
102,548.3070185918853
103,548.245444889333
104,548.1918363539307
105,548.1468794566858
106,548.1114867317071
107,548.086760055188
108,548.0738497039753
109,548.0737637124614
110,548.0872086529547
111,548.1145249418589
112,548.155728927038
113,548.2106260750149
114,548.2789455963508
115,548.3604659865382
116,548.4551242714987
117,548.5631054817575
118,548.684898148217
119,548.8212957808496
120,548.9733280857978
121,549.1421128191952
122,549.3286341937463
123,549.5334793580327
124,549.7565817189791
125,549.9970134397763
126,550.2528522654552
127,550.5211391545178
128,550.7979432674501
129,551.0785473506609
130,551.3577539139867
131,551.6302969931668
132,551.8913288737525
133,552.136930458925
134,552.3645710162727
135,552.5734356333417
136,552.7645604133244
137,552.9407578534822
138,553.1063505172928
139,553.266740780107
140,553.4278434370985
141,553.595426201808
142,553.7744404605866
143,553.9684525951834
144,554.1792850439632
145,554.4069441608453
146,554.6498521118015
147,554.9053260169086
148,555.1701888091488
149,555.4413779112244
150,555.716439894718
151,555.993843706559
152,556.2730913028859
153,556.5546351845272
154,556.8396201959818
155,557.1294649548253
156,557.4253108006013
157,557.7274041818118
158,558.0345258831263
159,558.343605400251
160,558.6496398976025
161,558.9459810611137
162,559.2249806441013
163,559.4789089761721
164,559.7009880362577
165,559.8863333713427
166,560.0326034900297
167,560.1402158152148
168,560.2120855521147
169,560.2529518329872
170,560.2684461336809
171,560.2641059584079
172,560.2445337416109
173,560.2128533766755
174,560.1705362476613
175,560.1175772930077
176,560.0529306896898
177,559.975081722851
178,559.8826313658658
179,559.7747909230559
180,559.651718908058
181,559.514679123979
182,559.3660489116636
183,559.2092364367608
184,559.0485587986193
185,558.8891033979866
186,558.7365750189855
187,558.5971326605451
188,558.4772248681326
189,558.3834158632978
190,558.3221609058214
191,558.2994711790014
192,558.3204313596382
193,558.3885884733003
194,558.5052917673306
195,558.6691092873267
196,558.8754654259351
197,559.1166241053859
198,559.3820804367068
199,559.6593359696437
200,559.9349499114726
201,560.1957041812543
202,560.4297061895418
203,560.627289357046
204,560.7816475560869
205,560.8892114809667
206,560.9497982289719
207,560.96654405264
208,560.9456096649353
209,560.8956602390854
210,560.8271565004671
211,560.7515190122064
212,560.6802355771813
213,560.6239806280586
214,560.5918120774951
215,560.590510937009
216,560.6241347215065
217,560.6938484522497
218,560.7980536366623
219,560.9327707947052
220,561.0921878843247
221,561.2692842607981
222,561.4564589777417
223,561.6461095466325
224,561.8311184579425
225,562.0052194961797
226,562.1632391139381
227,562.3012297468073
228,562.4165174330838
229,562.507679296177
230,562.5744667871082
231,562.6177013360436
232,562.6391701904416
233,562.6415281445043
234,562.6281783861849
235,562.6030914188027
236,562.5705422407277
237,562.5347894109668
238,562.4997539099398
239,562.4687605194445
240,562.4443801118836
241,562.4283716064872
242,562.4216910856829
243,562.4245352074802
244,562.4364155264458
245,562.4562901935684
246,562.4827763197972
247,562.514422459366
248,562.5499657733258
249,562.5884791118145
250,562.6293529909634
251,562.6721363021956
252,562.7163314843092
253,562.7612640945861
254,562.8061116764397
255,562.8501043370575
256,562.8928339557517
257,562.9345560014046
258,562.9763562185393
259,563.0200960226748
260,563.068130250066
261,563.1228660904891
262,563.1862680790229
263,563.2594079652474
264,563.3421282764168
265,563.4328574524009
266,563.5285961602631
267,563.6250838972403
268,563.717140750129
269,563.7991598949974
270,563.8657082004377
271,563.9121777180582
272,563.9354163167807
273,563.9342493384311
274,563.9097962679688
275,563.8655030445836
276,563.8068548842023
277,563.7407958822798
278,563.6749462104568
279,563.6167551178753
280,563.5727338336711
281,563.5478692463588
282,563.5452487835234
283,563.565868449999
284,563.6085801283634
285,563.6701593509645
286,563.7455080698542
287,563.8280162188131
288,563.9100860597189
289,563.9837911303192
290,564.041613974104
291,564.0771880150384
292,564.0859535714307
293,564.0656267903872
294,564.016391001883
295,563.9407705729845
296,563.8432245858796
297,563.7295580632467
298,563.6062595534045
299,563.4798466479001
300,563.3562731763146
301,563.240443878131
302,563.1358821523542
303,563.0445849556104
304,562.9670723621814
305,562.9026063136221
306,562.8495260128586
307,562.8056348658183
308,562.7685739730321
309,562.7361260324798
310,562.7064162664075
311,562.6780125299075
312,562.649952009983
313,562.6217175706118
314,562.5931695800987
315,562.5644408483172
316,562.5358239290051
317,562.5076917538671
318,562.480474519962
319,562.454677055536
320,562.4308880698909
321,562.4097325740571
322,562.3917563682478
323,562.377278128503
324,562.3662655852132
325,562.3582833806867
326,562.352538415153
327,562.3480213363179
328,562.3437109132568
329,562.3387827723737
330,562.3327612413447
331,562.325576035914
332,562.3175199626431
333,562.3091292050827
334,562.3010161783009
335,562.2936831111264
336,562.2873386031263
337,562.2817331336179
338,562.2760309394278
339,562.2687475998225
340,562.2577925990822
341,562.2406471358383
342,562.2146756386347
343,562.177527829201
344,562.127554916528
345,562.0641493556437
346,561.9879257806415
347,561.9006932358203
348,561.805222305951
349,561.7048654126825
350,561.6031169873855
351,561.5031953533406
352,561.4077092803853
353,561.3184559872038
354,561.2363781524404
355,561.1616755141436
356,561.0940280025169
357,561.0328559392208
358,560.9775313828134
359,560.9274752037792
360,560.8821242047961
361,560.8408038585652
362,560.802567043253
363,560.7660571112882
364,560.7294404708914
365,560.6904361558396
366,560.6464482038692
367,560.5947891593501
368,560.5329751442246
369,560.4590636975387
370,560.3719820319432
371,560.2717666637569
372,560.1596368377388
373,560.0378680799826
374,559.9094947290064
375,559.7779161023843
376,559.6464966786141
377,559.5182414492209
378,559.3956002067359
379,559.2804176821713
380,559.174013061888
381,559.077349775055
382,558.9912417180909
383,558.9165327552877
384,558.8541880093677
385,558.8052568139764
386,558.7707094619462
387,558.7511986858599
388,558.7468274116052
389,558.7570020124297
390,558.7804208831938
391,558.8152062851592
392,558.8591462340964
393,558.9099855918162
394,558.9657013034538
395,559.0247146489687
396,559.0860206138536
397,559.1492360850722
398,559.2145762492221
399,559.2827632067376
400,559.354862715961
401,559.4320478107655
402,559.5153067034599
403,559.6051387285324
404,559.7013001306586
405,559.8026576213504
406,559.9071837253621
407,560.0121004916676
408,560.1141593003687
409,560.210032184984
410,560.296775259743
411,560.3723022689505
412,560.4357852634392
413,560.4879014248187
414,560.5308794351769
415,560.5683489886088
416,560.6050373692933
417,560.6463711010497
418,560.6980274375969
419,560.7654556202864
420,560.8533725782045
421,560.9652405339125
422,561.1027491464348
423,561.265344577396
424,561.4498686194736
425,561.6503894537095
426,561.8583118616237
427,562.0628349475779
428,562.2517729073818
429,562.412675960162
430,562.5341054954939
431,562.6068627998494
432,562.6249733504901
433,562.5862902332449
434,562.492669251787
435,562.349741564383
436,562.1663451249103
437,561.9536865886218
438,561.7243170806286
439,561.491027701789
440,561.2657913594163
441,561.0588775919377
442,560.8782337229583
443,560.7291629967655
444,560.6142664527029
445,560.5335836655453
446,560.4848749862011
447,560.4640136807598
448,560.4654750645772
449,560.4829028438131
450,560.5096977068098
451,560.5395370165197
452,560.5667378739842
453,560.586430794591
454,560.5945877220179
455,560.5880005331304
456,560.5643059229072
457,560.5221032877264
458,560.4611441782163
459,560.3825226516794
460,560.2887884793713
461,560.1839318600734
462,560.073217168548
463,559.9628533767634
464,559.8594949707694
465,559.7695980868534
466,559.6987121337552
467,559.6508324181159
468,559.6279413539056
469,559.6298244026308
470,559.6541864462399
471,559.6970394955268
472,559.753295514858
473,559.8174770027225
474,559.8844443533483
475,559.9500339523547
476,560.011518730097
477,560.0678469634692
478,560.1196621954707
479,560.1691315368555
480,560.2196128140777
481,560.2751945943339
482,560.3401613578436
483,560.4184619254241
484,560.5132701451449
485,560.6267058717197
486,560.7597389936849
487,560.9122534926382
488,561.0832187239928
489,561.270905441819
490,561.4730955231538
491,561.6872620001445
492,561.9107219817149
493,562.1407710877937
494,562.374798129804
495,562.61037558364
496,562.845335548339
497,563.0778557066493
498,563.306571117249
499,563.5306928392869
500,563.7500794694473
501,563.9652036579022
502,564.1769883892807
503,564.3865373098827
504,564.5948257783036
505,564.802437962667
506,565.0094230715522
507,565.2153085159856
508,565.4192669464945
509,565.620400345669
510,565.8180827500146
511,566.0122953739731
512,566.2038902476867
513,566.3947245422681
514,566.5876193434447
515,566.7861226524544
516,566.994095996738
517,567.2151820649358
518,567.4522353772177
519,567.7068130277295
520,567.9788334845725
521,568.2665033179868
522,568.5665610863814
523,568.8748025957564
524,569.1867736228899
525,569.4984753562692
526,569.8069269817305
527,570.1104649127502
528,570.4087230744182
529,570.7023149255969
530,570.9923009462533
531,571.2795576507723
532,571.5641612410932
533,571.844873707383
534,572.1187950011182
535,572.381232976317
536,572.6258336750487
537,572.8449932575487
538,573.0305311591409
539,573.1745476391134
540,573.2703437606882
541,573.3132750791447
542,573.3014367653593
543,573.2361075902372
544,573.1218991355327
545,572.9665765260424
546,572.7805509385536
547,572.5760919715088
548,572.3663565689225
549,572.1643584027931
550,571.9819908940286
551,571.8291766676981
552,571.7131779261476
553,571.638092508639
554,571.6045748314251
555,571.6098328706772
556,571.6479399355055
557,571.7104578679683
558,571.7873086101214
559,571.8677807604028
560,571.9415427050764
561,571.9995585384921
562,572.0348468472181
563,572.0430548997623
564,572.0228221650406
565,571.9758864765398
566,571.9068790381924
567,571.8227906505522
568,571.7321621510469
569,571.6441163082766
570,571.5673737718406
571,571.509383896146
572,571.4756741047778
573,571.4694894773936
574,571.4917492927171
575,571.5412881560184
576,571.6152993701992
577,571.7098816475085
578,571.8206031233406
579,571.9430167810043
580,572.0730769278617
581,572.2074214718074
582,572.3435056242952
583,572.4795972236313
584,572.6146637572747
585,572.748189220018
586,572.8799537999237
587,573.0097962772752
588,573.1373695855699
589,573.2619059792556
590,573.3820272826417
591,573.4956478884314
592,573.6000079199337
593,573.6918485107448
594,573.7677170087837
595,573.8243719591345
596,573.8592424328324
597,573.870883166073
598,573.8593583297098
599,573.8264867924142
600,573.7758984632736
601,573.7128860707874
602,573.644073460846
603,573.5769406732433
604,573.5192469281232
605,573.4783913467395
606,573.4607626204477
607,573.4711506664997
608,573.5123015517534
609,573.5846700713752
610,573.6863763924956
611,573.8133404137644
612,573.9595637397923
613,574.1175385089174
614,574.2787688404007
615,574.4343903138646
616,574.5758608973043
617,574.6956672657705
618,574.7879531941727
619,574.8489596908288
620,574.877193148625
621,574.873302445637
622,574.8397173169641
623,574.7801479964486
624,574.6990582500684
625,574.601202871214
626,574.4912745055392
627,574.3736494600244
628,574.2521859792364
629,574.1300341111471
630,574.00945400691
631,573.8916745789996
632,573.7768346029325
633,573.6640352351017
634,573.5515050745124
635,573.4368491912171
636,573.3173418739979
637,573.1902331548777
638,573.0530462759673
639,572.9038286060239
640,572.7413015809782
641,572.5648661349122
642,572.3744616989057
643,572.1703289687769
644,571.9527638021638
645,571.7219512106287
646,571.4779332643734
647,571.22071332822
648,570.9504554066169
649,570.6677174202171
650,570.3736636077708
651,570.0702171205799
652,569.7601205471074
653,569.4468735794068
654,569.1345260059464
655,568.8273212840984
656,568.5292137136183
657,568.2433281834443
658,567.9714777458508
659,567.7138600417339
660,567.4690049836555
661,567.2339754655223
662,567.0047672010217
663,566.7768213665207
664,566.5455518572827
665,566.3068039056469
666,566.057201999373
667,565.7943905217259
668,565.5171935510368
669,565.2257125298255
670,564.9213567498177
671,564.606785781541
672,564.2857469333488
673,563.9628058182094
674,563.6429805033758
675,563.3312973253779
676,563.0322954490836
677,562.7495215986819
678,562.4850728826015
679,562.2392562817727
680,562.010432593341
681,561.795098789232
682,561.5882329612423
683,561.3838796627585
684,561.1759023654987
685,560.9587936314506
686,560.728423229217
687,560.4826160033523
688,560.2214758192505
689,559.9474056030133
690,559.6648179275567
691,559.3795814297038
692,559.098290539329
693,558.8274673774708
694,558.5728076854145
695,558.3385744982714
696,558.1272213535575
697,557.939285508858
698,557.7735391457053
699,557.6273408983176
700,557.4971019964764
701,557.3787734420096
702,557.2682752316762
703,557.1618224427683
704,557.056140971069
705,556.9485915035299
706,556.8372296342782
707,556.7208285479817
708,556.5988837280537
709,556.471605870034
710,556.3398850147009
711,556.2051846794254
712,556.069325928048
713,555.9341631851762
714,555.8012131389585
715,555.6713347074891
716,555.5445519667092
717,555.4200706053323
718,555.2964817913291
719,555.1720968466252
720,555.0453260904677
721,554.9150069588474
722,554.7805968503236
723,554.6421791205626
724,554.5002885957641
725,554.3556256858622
726,554.2087586155482
727,554.0598942222755
728,553.9087521004082
729,553.7545412657491
730,553.5960251889614
731,553.431657702815
732,553.2597685248594
733,553.0787722387081
734,552.8873702986867
735,552.6847173075489
736,552.4705342407885
737,552.2451630628844
738,552.0095584451639
739,551.7652097013206
740,551.5139925440978
741,551.2579672056547
742,550.9991635254763
743,550.7394185819825
744,550.4803359686263
745,550.223396550498
746,549.9701841560984
747,549.7226393574887
748,549.4832471774245
749,549.2550931372681
750,549.0417612495924
751,548.8470782197936
752,548.6747310703379
753,548.5278091127656
754,548.4083406735025
755,548.3168984570267
756,548.2523367816812
757,548.2117113410479
758,548.1904222595899
759,548.1826057487452
760,548.1817665585097
761,548.1815891719964
762,548.1768031410899
763,548.1639363603467
764,548.1417994916561
765,548.1116081632005
766,548.0767360425759
767,548.0421637047606
768,548.0137272361138
769,547.9972801107285
770,547.9978759704683
771,548.0190708702377
772,548.0624328232063
773,548.1273255784116
774,548.2109949334865
775,548.3089323547156
776,548.415435047552
777,548.5242422992015
778,548.6291249505339
779,548.7243465610592
780,548.804981634463
781,548.8671306520615
782,548.9080881918691
783,548.9264993038842
784,548.922499247773
785,548.8977972138389
786,548.8556513414591
787,548.8006926136356
788,548.7385879070489
789,548.675579273991
790,548.6179703393109
791,548.5716277185337
792,548.541539504459
793,548.5314588014636
794,548.5436639945683
795,548.5788626691376
796,548.6362395697832
797,548.713620439134
798,548.8077145305897
799,548.91440508084
800,549.0290633509092
801,549.1468631691336
802,549.2630743502126
803,549.3733186302543
804,549.4737804545564
805,549.5613757107917
806,549.6338926300444
807,549.6901257109754
808,549.7300170266789
809,549.7547948189283
810,549.7670657171794
811,549.7707952499157
812,549.7711187221493
813,549.7739599654319
814,549.7854839256275
815,549.8114540352028
816,549.8565923887859
817,549.9240423502088
818,550.0150145235452
819,550.1286662485207
820,550.2622263445643
821,550.4113398754279
822,550.5705816495235
823,550.7340685846586
824,550.8960852577064
825,551.0516331651228
826,551.1968298119735
827,551.3291090778972
828,551.4472018470289
829,551.5509147679278
830,551.6407781096552
831,551.7176769406564
832,551.7825787101251
833,551.8364126193919
834,551.8800723145011
835,551.9144630507534
836,551.9405335998794
837,551.9592927258973
838,551.9718479338055
839,551.9794919773356
840,551.9838203066563
841,551.9868248997923
842,551.9908998741802
843,551.9987158477007
844,552.0129582143481
845,552.0359571632767
846,552.0692556910649
847,552.1131788791231
848,552.1664969713321
849,552.2263018686068
850,552.2882022090852
851,552.3468623705656
852,552.3967918809467
853,552.4331975504365
854,552.4526924811682
855,552.4537136517496
856,552.4365890566104
857,552.4032773290179
858,552.3568709714721
859,552.3010066512428
860,552.2393391391432
861,552.1751919013212
862,552.1114182779157
863,552.0504358924696
864,551.994358162252
865,551.9451383473491
866,551.9046571809296
867,551.874723089032
868,551.8570042321653
869,551.8529493753207
870,551.8637536700003
871,551.8903824547118
872,551.9336138726053
873,551.9940443554841
874,552.0720328196558
875,552.1676092232627
876,552.2804004040611
877,552.4096153493754
878,552.5540954076295
879,552.712395719137
880,552.8828458633205
881,553.0635556104763
882,553.2523767387514
883,553.4468704038766
884,553.6443346189502
885,553.8419225242958
886,554.0368501723585
887,554.226665776702
888,554.4095331629075
889,554.5844693068494
890,554.7514713076079
891,554.9114782116302
892,555.0661421099777
893,555.2174288746262
894,555.3671227539757
895,555.5163513383983
896,555.665251502185
897,555.8128503535995
898,555.9571599330983
899,556.095424465732
900,556.2244433937112
901,556.3409148307662
902,556.44177174836
903,556.5244935928552
904,556.5873724782015
905,556.6297136471228
906,556.651958332803
907,556.6557196904877
908,556.6437149028649
909,556.6195768471904
910,556.587553486793
911,556.552143483131
912,556.5177457986437
913,556.4883987746688
914,556.4676468691101
915,556.4585150274086
916,556.463522032678
917,556.4846590739829
