acceleration,velocity,displacement
-0.0030709588037117577,0.0,0.0
-0.012988424280350887,-8.029691542031324e-06,-4.014845771015662e-09
-0.022726761826937156,-2.5887284595675346e-05,-2.0973333839868996e-08
-0.0321190272461283,-5.331017913220807e-05,-6.05720657038107e-08
-0.04102061188059404,-8.987999869556923e-05,-1.3216715461769936e-07
-0.04931609249514268,-0.0001350483508834376,-2.4463132940720277e-07
-0.05692252164322553,-0.0001881676579526217,-4.062393338252324e-07
-0.06378964726508045,-0.0002485237424067747,-6.245850340049306e-07
-0.0698978660557403,-0.00031536749906718503,-9.065306547419105e-07
-0.075254692923599,-0.0003879437785568547,-1.2581862935539303e-06
-0.07989031340177147,-0.00046551628171953997,-1.6849163236921278e-06
-0.08385256053892601,-0.0005473877186898887,-2.191368323896842e-06
-0.0872016107209055,-0.0006329148043198045,-2.7815195854016886e-06
-0.09000479735642584,-0.0007215180083584702,-3.458735991740826e-06
-0.09233194191439979,-0.000812686377993883,-4.225838184917003e-06
-0.0942513943143928,-0.0009059780461082793,-5.085170396968084e-06
-0.09582684851953498,-0.0010010171675252431,-6.038668003784845e-06
-0.09711527094824794,-0.0010974882272591347,-7.087920701177034e-06
-0.09816668358205503,-0.0011951292045242862,-8.234229417068745e-06
-0.09902636437940338,-0.0012937257285050156,-9.478656883583396e-06
-0.09973907367320968,-0.001393108447531322,-1.0822073971601565e-05
-0.10035388521720148,-0.0014931549269765277,-1.226520565885549e-05
-0.10092779241901229,-0.0015937957657946346,-1.380868100524107e-05
-0.10152650725261875,-0.0016950229156304502,-1.5453090345953615e-05
-0.10222157579017553,-0.0017968969571518472,-1.7199050282344764e-05
-0.10308407455414154,-0.0018995497823240059,-1.9047273652082693e-05
-0.10417648533954632,-0.0020031800622708497,-2.099863857438012e-05
-0.10554515698574446,-0.002108040883433495,-2.3054249047232293e-05
-0.10721546262047187,-0.002214421193236603,-2.521548008556734e-05
-0.10919053052360202,-0.0023226241898086403,-2.7484002777089963e-05
-0.11145296881381685,-0.00243294593947735,-2.9861787841732957e-05
-0.1139679941954974,-0.002545656420982007,-3.2351089021962635e-05
-0.11668630947916946,-0.00266098357281934,-3.495440901886331e-05
-0.11954605182341685,-0.0027790997534706333,-3.76744506820083e-05
-0.1224744702168955,-0.0029001100144907897,-4.051405556598901e-05
-0.12539058118225926,-0.003024042540190367,-4.347613184332959e-05
-0.12820948960897963,-0.0031508425755859865,-4.656357440121777e-05
-0.13084806156410098,-0.0032803713511725266,-4.9779181364597025e-05
-0.13323107363119827,-0.003412410918770176,-5.312557249956838e-05
-0.13529693137129328,-0.0035466749212714217,-5.660511541958918e-05
-0.13700217630178035,-0.0036828244751079585,-6.021986511777887e-05
-0.13832416420868932,-0.0038204876453631935,-6.397152117801444e-05
-0.13926155704413545,-0.003959280505989606,-6.786140525369084e-05
-0.1398325406888935,-0.0040988275548561205,-7.18904592841137e-05
-0.14007092475843178,-0.004238779287579783,-7.605926270533165e-05
-0.14002067892436465,-0.004378825089421181,-8.036806489383213e-05
-0.1397300494448806,-0.004518700453605804,-8.481682766534562e-05
-0.13924678698870527,-0.0046581888718225965,-8.940527232805983e-05
-0.13861570141733653,-0.004797120116025617,-9.413292682198393e-05
-0.13787874543498402,-0.004935367339451778,-9.899917054972262e-05
-0.13707679400162656,-0.005072845109170083,-0.00010400327677403356
-0.1362519259322195,-0.005209509469137006,-0.0001091444540631871
-0.13544931040108135,-0.005345360087303657,-0.00011442188884140743
-0.134718184530804,-0.0054804438347696,-0.00011983479080244405
-0.13411151718307282,-0.005614858685626538,-0.00012538244206264213
-0.1336840180577789,-0.005748756453246963,-0.0001310642496320789
-0.13348858871622157,-0.005882342756633963,-0.00013687979923701936
-0.1335719996758842,-0.006015873050830016,-0.00014282890714075133
-0.13397086527033497,-0.006149644483303126,-0.0001489116659078179
-0.13470860775145227,-0.00628398421981402,-0.00015512848025937647
-0.13579351239650558,-0.006419235279887999,-0.00016148009000922748
-0.13721765889925783,-0.006555740865535881,-0.00016796757808193943
-0.13895654791238368,-0.0066938279689417015,-0.00017459236249917822
-0.1409695022457175,-0.006833790994020752,-0.00018135617198065945
-0.1432011975596899,-0.006975876343923456,-0.00018826100564963157
-0.1455847096667101,-0.007120269297536656,-0.00019530907847036162
-0.14804613979885983,-0.007267084722269441,-0.00020250275548026466
-0.1505103160186139,-0.0074163629501781785,-0.00020984447931648846
-0.15290654547225122,-0.007568071380923611,-0.00021733669648203935
-0.15517317634500827,-0.007722111241832241,-0.00022498178779341727
-0.15725994433160145,-0.007878327802170546,-0.00023278200731541868
-0.1591276985646955,-0.008036521623618694,-0.0002407394320283133
-0.16074596658753476,-0.00819645845619481,-0.00024885592206822004
-0.1620896380197033,-0.008357876258498428,-0.00025713308942556666
-0.16313646401770904,-0.008520489309517133,-0.00026557227220957443
-0.16386678476851402,-0.008683990933910245,-0.00027417451233128815
-0.1642658918087783,-0.008848057272198891,-0.0002829405364343427
-0.16432816318056334,-0.009012354299693562,-0.00029187074222028893
-0.16406130946610556,-0.009176549036016897,-0.00030096519388814414
-0.16348917988347747,-0.00934032428069169,-0.0003102236305464984
-0.1626524054865889,-0.009503395073376723,-0.00031964549022353263
-0.16160708764148954,-0.009665524819940761,-0.0003292299501701914
-0.16042222714677312,-0.009826539477334893,-0.00033897598231882924
-0.15917645009943504,-0.009986338815957996,-0.0003488824214654757
-0.1579540631981287,-0.010144904072606778,-0.0003589480429097581
-0.15684012680758866,-0.010302301167609636,-0.0003691716455298663
-0.15591451172473175,-0.010458678486875796,-0.000379552135357109
-0.15524561633909034,-0.010614258550907706,-0.00039008860387600077
-0.15488489915548637,-0.010769323808654994,-0.00040078039505578214
-0.15486320217921193,-0.010924197859322344,-0.0004116271558897708
-0.15518921382732756,-0.011079224067325614,-0.00042262886685309476
-0.15584990801080564,-0.01123474362824468,-0.0004337858507008799
-0.15681272609141528,-0.01139107494529579,-0.0004450987599876502
-0.15802941992507064,-0.011548496018304034,-0.00045656854546945007
-0.15944137023115976,-0.011707231413382148,-0.00046819640918529317
-0.1609857149621546,-0.011867444955978806,-0.00047998374736997365
-0.16260120195705008,-0.012029238414438408,-0.0004919320890551822
-0.16423277531687802,-0.012192655403075372,-0.0005040430359639391
-0.1658344258266276,-0.012357689003647124,-0.0005163182081673003
-0.16737032300239663,-0.012524291378061636,-0.0005287591983581547
-0.16881445395681896,-0.012692383766541243,-0.0005413675359304562
-0.1701490474197277,-0.012861865517229516,-0.0005541446605723416
-0.17136211875752516,-0.013032621100318142,-0.0005670919038811155
-0.1724445171251992,-0.013204524418259504,-0.0005802104766404043
-0.17338689656329861,-0.013377440125103753,-0.0005935014589120859
-0.17417718966208232,-0.013551222168216444,-0.0006069657900587461
-0.17479935506966016,-0.013725710440582316,-0.0006206042563631454
-0.1752340230073171,-0.013900727129620804,-0.000634417475148247
-0.17546097286577275,-0.014076074627557349,-0.000648405876026836
-0.1754624845025653,-0.014251536356241518,-0.0006625696815187354
-0.17522613714906535,-0.014426880667067333,-0.0006769088900303898
-0.17474594665709733,-0.014601866708970415,-0.0006914232637184087
-0.17402162564908744,-0.014776250495123508,-0.0007061123223204556
-0.17305659381086386,-0.014949789604853483,-0.0007209753423704442
-0.17185561132468785,-0.015122245707421258,-0.0007360113600265815
-0.17042257199761204,-0.015293384799082408,-0.0007512191752798333
-0.1687585828450811,-0.015462975376503754,-0.0007665973553676264
-0.1668603912327692,-0.01563078486354268,-0.0007821442354876497
-0.1647194093215594,-0.015796574763819845,-0.0007978579153013309
-0.16232168807374406,-0.015960095312517495,-0.0008137362503394996
-0.15964912638119172,-0.016121080719744964,-0.0008297768383556309
-0.1566820753132017,-0.01627924632059216,-0.0008459770018757995
-0.15340323348654206,-0.016434288974992033,-0.0008623337695235916
-0.14980227947112554,-0.01658589173147087,-0.0008788438598768231
-0.14588038390040067,-0.01673373306315663,-0.0008955036722741368
-0.14165385713100065,-0.01687750018367233,-0.0009123092888975513
-0.13715649030353602,-0.0170169053573896,-0.0009292564916680823
-0.13244030013219746,-0.017151703752607467,-0.0009463407962230808
-0.12757438647775338,-0.017281711095912443,-0.0009635575036473407
-0.12264167350061128,-0.017406819125901626,-0.0009809017687582478
-0.11773352739503144,-0.017527006726349447,-0.0009983686816843734
-0.11294251805504178,-0.017642344749074484,-0.0010159533574220854
-0.10835386300027527,-0.01775299293960214,-0.0010336510262664237
-0.10403645566776253,-0.01785918809893616,-0.0010514571167856929
-0.10003478356625653,-0.01796122371855317,-0.0010693673226944375
-0.09636317196569437,-0.018059422696319147,-0.0010873776459018737
-0.0930034073047997,-0.018154105985954395,-0.0011054844102430105
-0.08990604895683539,-0.018245560714085212,-0.0011236842435930303
-0.08699511098205011,-0.018334011294054656,-0.0011419740295971002
-0.08417562552860007,-0.01841959666230998,-0.0011603508335752825
-0.08134361696442964,-0.018502356283556495,-0.0011788118100482157
-0.07839769519177038,-0.018582226939634596,-0.0011973541016598113
-0.0752508202522941,-0.018659051197356627,-0.001215974740728307
-0.07184029905424655,-0.018732596757009896,-0.0012346705647054903
-0.06813409512378651,-0.018802583954098912,-0.0012534381550610447
-0.06413209676595837,-0.018868717050043785,-0.001272273805563116
-0.05986204057781508,-0.01893071411871567,-0.0012911735211474957
-0.05537108865500686,-0.018988330683332083,-0.0013101330435485196
-0.05071509036197986,-0.019041373772840577,-0.001329147895776606
-0.045947882459081324,-0.01908970525925111,-0.0013482134352926518
-0.04111259353537043,-0.019133235497248335,-0.0013673249056709014
-0.03623613782980814,-0.019171909862930925,-0.001386477478350991
-0.03132727040893475,-0.019205691567050296,-0.0014056662790659818
-0.026378036802934896,-0.019234544220656232,-0.001424886396959835
-0.021368311897267706,-0.019258417395006333,-0.0014441328777676664
-0.016273157946032044,-0.019277238129927984,-0.0014634007055301336
-0.011072511447965266,-0.019290910964624982,-0.00148268478007741
-0.005762040107864584,-0.019299328240402897,-0.001501979899679924
-0.0003631763981793398,-0.01930239084865592,-0.0015212807592244533
0.0050701035728211346,-0.019300037385068598,-0.0015405819733413156
0.01044985542555862,-0.019292277405569408,-0.0015598781307366346
0.015659209067841073,-0.019279222873322708,-0.0015791638808760806
0.020563716685381803,-0.019261111410446098,-0.001598434048017965
0.02502749912410378,-0.019238315802541355,-0.0016176837616244588
0.028931406184548734,-0.019211336349887028,-0.001636908587700673
0.032189574523246584,-0.01918077585953313,-0.001656104643805383
0.03476084328156142,-0.019147300650630725,-0.001675268682060465
0.03665255029760723,-0.01911159395384114,-0.0016943981293627008
0.03791594169167904,-0.019074309707846498,-0.0017134910811935447
0.038634326227216326,-0.01903603457388705,-0.0017325462533344113
0.038906699092319086,-0.01899726406122728,-0.0017515629026519685
0.038830403556462174,-0.01895839550990289,-0.0017705407324375335
0.038486345384958785,-0.01891973713543218,-0.001789479798760201
0.03792943920793807,-0.01888152924313573,-0.001808380431949485
0.037185550348390876,-0.018843971748357568,-0.0018272431824452315
0.036254589829617774,-0.018807251678268563,-0.0018460687941585447
0.03511817322631815,-0.018771565296740594,-0.0018648582026460493
0.03374967350746502,-0.018737131373373704,-0.0018836125509811064
0.0321244973146448,-0.01870419428796265,-0.0019023332138117747
0.03022878024017278,-0.01867301764918524,-0.0019210218197803486
0.028065308780467778,-0.01864387060467492,-0.0019396802639072787
0.025656299212337315,-0.018617009800678517,-0.0019583107041099552
0.02304354258850342,-0.018592659879778095,-0.0019769155389501836
0.020286950734670406,-0.018570994633116508,-0.0019954973662066307
0.017462413537178086,-0.018552119950980585,-0.0020140589234986794
0.014659361938724335,-0.018536059063242634,-0.002032603013005791
0.011978079806717772,-0.018522740342369913,-0.002051132412708597
0.009526835608229757,-0.018511987884662438,-0.0020696497768221134
0.007418987721891515,-0.018503514972997376,-0.002088157528250943
0.005769927985388956,-0.018496920515143737,-0.0021066577459950137
0.004693132807639115,-0.018491688984747224,-0.002125152050744959
0.004294272218541224,-0.018487195282234133,-0.00214364149287845
0.004662729276781596,-0.018482716781486472,-0.0021621264489103103
0.0058608568136253305,-0.01847745498844127,-0.0021806065347952743
0.007912373122126042,-0.018470568373473394,-0.002199080546476232
0.010792106009551912,-0.018461216133907554,-0.002217546438729922
0.014419621301487547,-0.018448610270252033,-0.002236001351932002
0.018658927209178163,-0.0184320709959967,-0.002254441692565126
0.023325359270282318,-0.01841107885275697,-0.002272863267489503
0.028199208394834478,-0.018385316568924413,-0.0022912614652003437
0.03304420014258272,-0.018354694864655706,-0.0023096314709171338
0.03762797510294774,-0.018319358777032942,-0.002327968497737978
0.0417414745565178,-0.01827967405220321,-0.002346268014152596
0.04521477060859691,-0.01823619592962065,-0.002364525949143508
0.04792821897622232,-0.01818962443482824,-0.0023827388593257322
0.049819075167820116,-0.01814075078775622,-0.0024009040469370243
0.05088412395367029,-0.018090399188195473,-0.0024190196219250003
0.05117849722427762,-0.0180393678776065,-0.002437084505457901
0.050810493577582064,-0.017988373382205568,-0.0024550983760878073
0.049932437284631453,-0.01793800191677446,-0.0024730615637372972
0.04872821646005015,-0.01788867158990212,-0.0024909749004906356
0.047398592116621785,-0.017840608185613782,-0.0025088395403783936
0.04614550726846103,-0.01779383613592124,-0.002526656762539161
0.04515660677068138,-0.01774818507890167,-0.0025444277731465725
0.04459111882408875,-0.017703311216104283,-0.0025621535212940754
0.04456824619697797,-0.01765873153359375,-0.0025798345426689246
0.045159315565013736,-0.017613867752712755,-0.002597470842312078
0.0463848067281752,-0.01756809569156616,-0.0026150618240342173
0.04821661993472692,-0.01752079497823471,-0.0026326062693691177
0.05058480027664643,-0.017471394268129024,-0.0026501023639922995
0.05338717840937623,-0.017419408278786012,-0.002667547765265757
0.056500339074893484,-0.01736446452004388,-0.002684939701665172
0.05979066594646297,-0.0173063190175332,-0.0027022750934339607
0.06312451558822815,-0.017244861426765856,-0.0027195506836561103
0.06637676996479866,-0.01718011078398934,-0.002736763169761488
0.06943727585915493,-0.017112203761077364,-0.0027539093270340215
0.07221508796452675,-0.017041377579165524,-0.002770986117704143
0.0746408124147546,-0.016967949628975885,-0.0027879907813082136
0.07666744388673348,-0.01689229550082514,-0.002804920903873114
0.07826996976574149,-0.016814826793998903,-0.0028217744650205264
0.07944402083248896,-0.016735969798699787,-0.0028385498633168756
0.08020403693116554,-0.01665614576981796,-0.0028552459211011343
0.0805814359179573,-0.016575753033393398,-0.00287186187050274
0.08062288617224855,-0.016495150872348294,-0.002888397322455611
0.08038821201729651,-0.016414645323253523,-0.0029048522205534118
0.07994721056019931,-0.016334477611964774,-0.0029212267820210207
0.07937503159812334,-0.01625481649088561,-0.0029375214290724458
0.0787465359422042,-0.01617575570711545,-0.002953736715171446
0.07813065014111739,-0.01609731711407379,-0.002969873251582041
0.07758582022363043,-0.016019458878891415,-0.0029859316395785237
0.07715723931565649,-0.01594208734912177,-0.00300191241269253
0.07687582729410003,-0.01586507081581689,-0.0030178159917749994
0.07675839104268077,-0.015788253706648502,-0.0030336426540362323
0.0768083875941824,-0.01571147031733007,-0.0030493925160482217
0.07701723061194504,-0.015634557508227006,-0.003065065529961
0.07736660552948146,-0.015557365590156292,-0.0030806614915101917
0.07783220266929446,-0.015479766186056903,-0.0030961800573982984
0.07838850720179219,-0.01540165583112136,-0.0031116207684068874
0.07901331979900769,-0.01532295491762096,-0.0031269830737812587
0.07969034218008954,-0.015243603086631412,-0.003142266352783385
0.08040886028501812,-0.015163553485398858,-0.0031574699310694
0.08116094411824377,-0.015082768583197226,-0.003172593092103698
0.08193784709786076,-0.015001219187589175,-0.003187635085989091
0.0827277132583013,-0.014918886407411094,-0.003202595138786591
0.08351608471203002,-0.014835764508425928,-0.0032174724642445095
0.08428942758518104,-0.014751861752277322,-0.003232266277374861
0.08504056756229647,-0.014667196754703583,-0.0032469758066283514
0.08577399550700165,-0.014581789473168934,-0.0032616002997422878
0.0865087976208849,-0.014495648076604991,-0.0032761390185171747
0.08727769555354539,-0.014408754830017776,-0.003290591219970486
0.08812208475162306,-0.014321054939865192,-0.0033049561248554276
0.08908428097941944,-0.014232451756999671,-0.00331923287820386
0.09019881861564573,-0.01414281020720214,-0.003333420509185961
0.09148453784609496,-0.01405196852897127,-0.0033475178985540475
0.09293867047206991,-0.013959756924812187,-0.0033615237612809393
0.09453359018478784,-0.013866020794483758,-0.003375436650140587
0.09621657199062308,-0.013770645713396052,-0.003389254983394527
0.09791272090932998,-0.013673581066946076,-0.003402977096784698
0.09953097973038244,-0.01357485921662622,-0.003416601316926484
0.10097278661942331,-0.013474607333451318,-0.003430126050201523
0.1021426330667594,-0.013373049623608227,-0.003443549878680053
0.10295951637788357,-0.013270498548885906,-0.0034568716527663
0.10336802553490484,-0.013167334777929512,-0.0034700905694297077
0.10334751133146468,-0.013063977009496327,-0.0034832062253234205
0.10291765308913194,-0.012960844427286029,-0.003496218636041812
0.10213902665115819,-0.012858316087415883,-0.003509128216299163
0.10110805611613041,-0.012756692546032239,-0.0035219357206158868
0.09994681108964532,-0.012656165112429351,-0.0035346421494451175
0.09878924585743186,-0.012556797083955813,-0.00354724863054331
0.09776631007457873,-0.012458519305989808,-0.0035597562887382827
0.09699246403007433,-0.012361139918937482,-0.003572166118350746
0.09655537177146074,-0.012264366001036715,-0.003584478871310733
0.09650930689996579,-0.012167833661701,-0.0035966949711421017
0.09687177809156278,-0.012071143119205237,-0.003608814459532555
0.09762260269729538,-0.011973895928810808,-0.003620836979056563
0.09870509810139239,-0.011875732078411465,-0.003632761793060174
0.10002964619501056,-0.011776364706263264,-0.0036445878414525113
0.10148004924129864,-0.01167560985854511,-0.0036563138287349153
0.10292274731124752,-0.011573408460268837,-0.0036679383378943223
0.10421840186506395,-0.011469837885680682,-0.003679459961067297
0.1052348642367056,-0.011365111252629796,-0.0036908774356364522
0.10586021698053669,-0.011259563712021175,-0.0037021897731187776
0.10601430587786628,-0.011153626450591973,-0.003713396368200084
0.10565698329193257,-0.011047790806007074,-0.0037244970768283837
0.1047914719632458,-0.010942566578379484,-0.003735492255520577
0.10346214750475498,-0.010838439768645484,-0.0037463827586940892
0.10174739570586817,-0.010735834997040172,-0.003757169896076932
0.09974926251820211,-0.010635086667928137,-0.003767855356909416
0.09758180952677731,-0.010536421131905647,-0.003778441110809333
0.0953596088648171,-0.01043995042270985,-0.003788929296586641
0.09318732234658282,-0.01034567695710415,-0.003799322110276548
0.09115116992946203,-0.010253507710966126,-0.003809621702610583
0.08931308911556089,-0.010163275581443615,-0.003819830094256788
0.0877081842189473,-0.010074764944776361,-0.003829949114519898
0.08634559757685632,-0.00998773805387846,-0.003839980366019225
0.0852123549287982,-0.009901959077625633,-0.003849925214584977
