acceleration,velocity,displacement
0.12286411779447026,0.0,0.0
0.13060709490060973,6.336780317377e-05,1.58419507934425e-08
0.13832154624949256,0.00013059996346129557,6.43338924522089e-08
0.1459997407321091,0.00020168028520669597,1.4740395461920677e-07
0.1536340812898124,0.00027658874071217636,2.669712110989249e-07
0.1612171101510341,0.000355301538572388,4.24943780920066e-07
0.1687415138815107,0.0004377911945805242,6.23216964208294e-07
0.17620012825955933,0.0005240266051157917,8.63671414132373e-07
0.1835859429785872,0.0006139731229253283,1.148171346142653e-06
0.19089210616979707,0.0007075926352124244,1.4785627856770912e-06
0.19811192873389852,0.0008048436439383482,1.8566718554647844e-06
0.20523888847528532,0.0009056813482406442,2.2843031035095325e-06
0.21226663404266716,0.0010100577288701324,2.7632378727872267e-06
0.21918898869064599,0.0011179216345534608,3.295232713643125e-06
0.22599995388503338,0.0012292188701973805,3.8820178398308354e-06
0.23269371278240986,0.0013438922868642413,4.5252956290962405e-06
0.23926463362236006,0.0014618818734654338,5.226739169178659e-06
0.24570727307909396,0.0015831248501407974,5.987990850080217e-06
0.25201637962859097,0.0017075557633177186,6.810661003444846e-06
0.2581868969993783,0.001835106582474711,7.696326589892954e-06
0.2642139677890449,0.001965706798671817,8.646529935179585e-06
0.2700929373407256,0.0020992835249542593,9.662777516086105e-06
0.2758193579777882,0.0022357615987838877,1.0746538797020641e-05
0.28138899368611986,0.0023750636866998647,1.1899245118391578e-05
0.2867978253124189,0.0025171103914494995,1.3122288637928919e-05
0.2920420563169386,0.002661820361856839,1.4417021326255504e-05
0.29711811908171826,0.002809110405706503,1.578475401814634e-05
0.30202268173520436,0.002958895605910734,1.7226755521050647e-05
0.30675265542035624,0.003111089440199624,1.8744251782578235e-05
0.3113052019101728,0.0032656039045322566,2.0338425118761205e-05
0.315677741457996,0.0034223496403742986,2.2010413504987844e-05
0.3198679607558786,0.0035812360659277674,2.376130993156336e-05
0.32387382086458,0.003742171511332882,2.559216182587852e-05
0.32769356497559143,0.003905063357792925,2.7503970543159973e-05
0.33132572586661196,0.004069818180503476,2.9497690927734072e-05
0.3347691329117924,0.004236341895198077,3.157423094665946e-05
0.33802291850595845,0.004404539908052515,3.373445139747211e-05
0.34108652376429904,0.004574317268620079,3.5979165691640254e-05
0.34395970337256526,0.004745578825404295,3.830913971514635e-05
0.3466425294864684,0.004918229383619053,4.072509176740218e-05
0.34913539460607923,0.00509217386464219,4.3227692579467495e-05
0.35143901337784417,0.0052673174666381705,4.5817565412287586e-05
0.35355442330194514,0.005443565825808118,4.8495286235399155e-05
0.3554829843403707,0.005620825177718697,5.126138398628086e-05
0.35722637742308305,0.0057990025181595605,5.411634091025042e-05
0.35878660183546585,0.0059780057629741975,5.706059298053386e-05
0.36016597145050666,0.006157743906295691,6.0094530397851335e-05
0.3613671097551885,0.006338127176597114,6.321849816857454e-05
0.36239294361523133,0.006519067189939719,6.643279676020874e-05
0.3632466957245187,0.006700477099774657,6.973768283263734e-05
0.36393187569669183,0.00688227174262996,7.31333700432385e-05
0.3644522697777626,0.007064367778998573,7.662002992364564e-05
0.3648119291861736,0.007246683828739557,8.019779282558018e-05
0.3650151571127561,0.0074291406003142895,8.386674893284364e-05
0.3650664944329638,0.00761166101320072,8.762694933622239e-05
0.3649707041974027,0.007794170312858311,9.147840716773714e-05
0.3647327549739728,0.007976596177651155,9.542109879036451e-05
0.36435780311739935,0.008158868817173998,9.94549650390708e-05
0.3638511740463094,0.008340921061464926,0.00010357991250873053
0.36321834262246233,0.00852268844063212,0.0001077958148842548
0.36246491274946074,0.0087041092544751,0.00011210251430803159
0.3615965963263616,0.008885124631744056,0.00011649982277958638
0.36061919169528417,0.009065678578749467,0.00012098752358220976
0.35953856171569304,0.009245718017102212,0.00012556537273117268
0.3583606115915442,0.009425192810429021,0.0001302331004380555
0.35709126657444445,0.009604055779970519,0.00013499041258565537
0.35573644966511375,0.009782262709030409,0.0001398369922079056
0.3543020594357195,0.009959772336305617,0.0001447725009692396
0.35279394809454423,0.010136546338188184,0.00014979658063786307
0.35121789990804386,0.010312549300188831,0.00015490885454745733
0.34957961008310307,0.010487748677686618,0.0001601089290419262
0.3478846641992164,0.010662114746257199,0.00016539639489791214
0.3461385182705488,0.01083562054187464,0.0001707708287199451
0.3443464795098987,0.011008241791319751,0.00017623179430324368
0.3425136878550348,0.011179956833160984,0.00018177884395936385
0.34064509830189094,0.011350746529700216,0.00018741151980007916
0.3387454640754866,0.01152059417029456,0.00019312935497507784
0.33681932066697257,0.011689485366480176,0.00019893187485927152
0.33487097077574407,0.011857407939340855,0.00020481859818572679
0.33290447021292324,0.012024351799588022,0.000210789038120459
0.33092361483815985,0.012190308820850792,0.00021684270327556872
0.3289319286113065,0.012355272706713159,0.0002229790986574597
0.32693265284432127,0.012519238852077065,0.00022919772654715726
0.3249287367393595,0.012682204199472986,0.00023549808731004477
0.3229228293003081,0.012844167090982902,0.00024187968013265874
0.3209172727077807,0.013005127116484924,0.0002483420036845257
0.3189140972482983,0.013165084958973944,0.0002548845567033904
0.31691501788340565,0.013324042237756871,0.0002615068385025731
0.3149214325353357,0.013482001350361556,0.0002682083493996027
0.3129344221578399,0.01363896531403485,0.0002749885910657018
0.31095475265452577,0.013794937607737942,0.000281847066796145
0.30898287869451563,0.013949922015575203,0.0002887832817019733
0.3070189494492868,0.014103922472611153,0.0002957967428240199
0.30506281623880444,0.014256942914033175,0.00030288695917068096
0.3031140420395754,0.01440898712860277,0.00031005344168133996
0.3011719127791498,0.014560058617307452,0.00031729570311781754
0.2992354503222089,0.014710160458082792,0.0003246132578866651
0.2973034270401451,0.014859295177423381,0.00033200562179554167
0.2953743818462094,0.01500746462964497,0.00033947231174730875
0.293446637569675,0.01515466988449894,0.00034701284537584474
0.2915183195327095,0.015300911123774536,0.0003546267406279131
0.289587375181824,0.01544618754745317,0.00036231351529572
0.2876515946150412,0.015590497289902387,0.0003700726865050589
0.285708631840802,0.015733837346516347,0.0003779037701641636
0.28375602660431093,0.015876203511127625,0.00038580628037857456
0.2817912266153031,0.016017590324432528,0.0003937797288374646
0.27981161000595417,0.01615799103358784,0.00040182362417696965
0.2778145078461331,0.01629739756305086,0.0004099374713261293
0.275797226551366,0.016435800496650235,0.0004181207708410546
0.27375707003288385,0.016573189070796298,0.0004263730182329162
0.27169136145053485,0.016709551178667154,0.0004346937032952821
0.2695974644355896,0.016844873385138685,0.00044308230943623355
0.267472803653222,0.01697914095216089,0.00045153831302055845
0.2653148845734791,0.017112337874217565,0.00046006118272715307
0.2631213123144269,0.01724444692343954,0.00046865037892656735
0.26088980941803824,0.017375449703872656,0.0004773053530833954
0.25861823242622806,0.017505326714333722,0.000486025547187947
0.25630458714090854,0.017634057419225507,0.0004948103932213368
0.2539470424711528,0.01776162032662852,0.0005036593126578003
0.2515439427880697,0.017887993072943326,0.0005125717160076933
0.24909381872333095,0.018013152513321175,0.0005215470024042594
0.24659539636097505,0.01813707481709225,0.0005305845592368628
0.24404760478307053,0.01825973556737826,0.0005396837618329805
0.2414495819355416,0.018381109864057915,0.0005488439731908396
0.23880067878380365,0.018501172429237753,0.0005580645437641635
0.23610046173845015,0.018619897714368318,0.000567344811300065
0.23334871335443827,0.01873726000814154,0.0005766841007306925
0.2305454313365624,0.018853233544314292,0.0005860817241188065
0.22769082591195208,0.01896779260862642,0.0005955369806570417
0.22478531565667578,0.019080911644018577,0.000605049156720203
0.22182952188926922,0.019192565353405064,0.0006146175259695588
0.21882426176431458,0.01930272879931846,0.0006242413495077397
0.21577054020848166,0.019411377499811658,0.0006339198760825222
0.21266954084014825,0.019518487520073815,0.0006436523423374936
0.20952261600695532,0.01962403555928559,0.0006534379731073335
0.20633127606756574,0.01972799903230422,0.000663275981755231
0.20309717803598681,0.01983035614583011,0.0006731655705497645
0.19982211369931657,0.019931085968763935,0.0006831059310784131
0.19650799731376833,0.020030168496517207,0.0006930962446947334
0.19315685298004662,0.02012758470909066,0.0007031356829961354
0.18977080179349556,0.020223316622784048,0.0007132234083291041
0.18635204885190768,0.0203173473354454,0.0007233585743186614
0.182902870188739,0.020409661065205562,0.0007335403264188241
0.17942559969236754,0.020500243182675838,0.0007437678024807945
0.1759226160752549,0.020589080236617742,0.0007540401333356179
0.1723963299631079,0.02067615997312733,0.0007643564433880542
0.16884917117645618,0.020761471348412223,0.0007747158512184391
0.16528357627143483,0.020845004535274197,0.0007851174701893606
0.1617019763919739,0.020926750923440048,0.0007955604090540392
0.1581067854677061,0.021006703113904967,0.0008060437725633755
0.15450038877977734,0.021084854907466838,0.0008165666620687184
0.15088513191339814,0.02116120128764013,0.0008271281761174952
0.14726331011724286,0.021235738398147793,0.0008377274110389422
0.1436371580909249,0.021308463515199834,0.000848363461517279
0.140008840221851,0.02137937501477803,0.0008590354211497734
0.13638044129354854,0.021448472335156878,0.0008697423829872572
0.1327539576902089,0.021515755934902816,0.0008804834400547722
0.12913128912454583,0.021581227246606504,0.0008912576858501495
0.1255142309154605,0.021644888626616506,0.0009020642148184552
0.1219044668404192,0.021706743301055476,0.0009129021228003732
0.11830356259072147,0.021766795308413262,0.0009237705074527404
0.11471295986872868,0.021825049439028125,0.0009346684686396007
0.11113397117926063,0.021881511171790123,0.0009455951087923053
0.10756777537380346,0.021936186608428387,0.0009565495332373599
0.10401541400190022,0.02198908240577231,0.0009675308504909101
0.10047778851308711,0.02204020570640106,0.0009785381725189535
0.09695565834216202,0.02208956406811487,0.0009895706149625825
0.0934496399038092,0.022137165392676364,0.0010006272973277803
0.08996020651788914,0.022183017854281787,0.0010117073431395198
0.08648768928272192,0.02222712982823194,0.0010228098800601482
0.08303227891434782,0.022269509820281207,0.0010339340399722764
0.07959402857982094,0.02231016639715475,0.0010450789590266353
0.07617285776741559,0.022349108118741558,0.0010562437776556093
0.07276855724381079,0.022386343472494363,0.0010674276405534182
0.0693807951408537,0.02242188081059053,0.0010786296966241893
0.0660091241952139,0.022455728290424547,0.001089849098899443
0.06265299013600141,0.02248789381900735,0.001101085004426801
0.059311741178927825,0.022518385001836082,0.001112336574132012
0.0559846385455219,0.022547209096767194,0.0011236029726566627
0.05267086788821595,0.02257437297337563,0.0011348833681741983
0.049369551468431055,0.02259988307821479,0.001146176932187096
0.04607976090877788,0.02262374540630909,0.001157482839308227
0.042800530331273824,0.022645965479119103,0.001168800267029584
0.03953086970542831,0.02266654832912828,0.0011801283954816458
0.036269778254976466,0.02268549849111838,0.0011914664071867075
0.0330162577964519,0.022702820000131237,0.0012028134868095198
0.029769325898712513,0.02271851639605503,0.0012141688209085664
0.026528028762121906,0.02273259073472024,0.0012255315976912602
0.023291453724131876,0.022745045605341803,0.0012369010067762756
0.0200587413047914,0.022755883154099033,0.0012482762389661357
0.016829096709978085,0.022765105113602725,0.001259656486033061
0.013601800714998233,0.02277271283795897,0.0012710409405209515
0.010376219860384353,0.022778707343102816,0.0012824287955662168
0.007151815904677929,0.02278308935204408,0.0012938192447400035
0.003928154491648668,0.022785859344643163,0.0013052114819141754
0.0007049129982926145,0.02278701761151565,0.001316604701153215
-0.0025181124671511063,0.022786564311648435,0.001327998096634006
-0.005741000950296314,0.022784499533294072,0.0013393908625952417
-0.008963701455720957,0.02278082335769257,0.0013507821933179884
-0.012186028710773587,0.022775535925150945,0.0013621712831386992
-0.015407659925071367,0.022768637502991983,0.001373557326495735
-0.0186281325746962,0.022760128554867042,0.0013849395180101998
-0.021846843222697473,0.022750009810917692,0.001396317052601646
-0.025063047363878297,0.02273828233827105,0.0014076891256389432
-0.028275860261232192,0.02272494761136477,0.0014190549331263521
-0.03148425873097292,0.022710007581616717,0.0014304136719245975
-0.03468708383140884,0.02269346474597612,0.0014417645400064958
-0.03788304441195136,0.022675322213915283,0.0014531067367464685
-0.041070721478552515,0.022655583772442655,0.001464439463243058
-0.044248573329979474,0.022634253948740524,0.0014757619226733536
-0.047414941415180316,0.022611338070054235,0.0014870733206780523
-0.05056805685671503,0.022586842320486262,0.0014983728657756875
-0.0537060475828676,0.022560773794376366,0.0015096597698044032
-0.05682694601453294,0.022533140545977017,0.0015209332483894916
-0.05992869726056395,0.022503951635158243,0.0015321925214347755
-0.06300916778394337,0.022473217168897115,0.0015434368136357894
-0.06606615450963191,0.022440948338323722,0.0015546653550125946
-0.06909739435159322,0.022407157451108415,0.0015658773814599526
-0.07210057413951577,0.02237185795898564,0.0015770721353124762
-0.07507334092560786,0.02233506448021936,0.0015882488659222775
-0.07801331264899845,0.022296792816825707,0.0015994068302465387
-0.08091808912834796,0.02225705996638137,0.0016105452934423404
-0.08378526334236668,0.02221588412826369,0.0016216635294660016
-0.08661243294627671,0.02217328470419153,0.0016327608216741155
-0.08939721196286984,0.022129282292964243,0.0016438364634234043
-0.0921372425806704,0.02208389867932836,0.0016548897586664774
-0.09483020698890035,0.022037156816935966,0.0016659200225405434
-0.09747383917765191,0.02198908080539433,0.001676926581946126
-0.10006593662822916,0.02193969586144286,0.0016879087761128354
-0.10260437181004452,0.02188902828433329,0.0016988659571492795
-0.10508710338806435,0.021837105415533763,0.0017097974905742463
-0.10751218703384673,0.021783955592928284,0.0017207027558263617
-0.10987778572856433,0.02172960809973768,0.0017315811467495282
-0.1121821794490053,0.021674093108443288,0.0017424320720515734
-0.11442377413639229,0.02161744162004694,0.001753254955733696
-0.1166011098627292,0.02155968539904716,0.0017640492374884696
-0.11871286812720462,0.021500856904549673,0.0017748143730643689
-0.12075787822792271,0.021440989217960893,0.0017855498345949966
-0.12273512265801483,0.021380115967739408,0.0017962551108914218
-0.12464374147664115,0.021318271251705743,0.001806929707696283
-0.12648303561492222,0.021255489557432852,0.0018175731478985676
-0.12825246909800683,0.02119180568125462,0.0018281849717082395
-0.12995167019213263,0.021127254646432087,0.0018387647367901611
-0.13158043151058096,0.02106187162100641,0.0018493120183570206
-0.13313870913036255,0.020995691835846174,0.0018598264092212337
-0.13462662078320334,0.02092875050336778,0.0018703075198060373
-0.13604444319056577,0.020861082737374338,0.0018807549781162229
-0.13739260861141075,0.020792723474423843,0.0018911684296691723
-0.13867170066360038,0.02072370739710509,0.0019015475373870545
-0.13988244946854195,0.020654068859572054,0.0019118919814512239
-0.14102572615753348,0.020583841815665534,0.0019222014591200333
-0.14210253677034868,0.020513059749933563,0.0019324756845114331
-0.14311401557383915,0.020441755611847516,0.0019427143883518783
-0.14406141783064014,0.020369961753496396,0.0019529173176932144
-0.14494611205380364,0.020297709871025284,0.0019630842355993446
-0.14576957178999175,0.020225030950064334,0.001973214920804617
-0.14653336697908076,0.020151955215372067,0.001983309167345976
-0.14723915494041193,0.020078512084892194,0.0019933667841710422
-0.14788867103719033,0.020004730128397794,0.0020033875947243645
-0.1484837190740092,0.019930637030869995,0.0020133714365141815
-0.14902616148749478,0.01985625956072962,0.0020233181606620814
-0.14951790939149098,0.019781623543009875,0.0020332276314380163
-0.1499609125346737,0.019706753837528335,0.002043099725783151
-0.15035714922445442,0.019631674322088552,0.0020529343328230553
-0.15070861627033985,0.019556407880714853,0.002062731353373756
-0.15101731900295404,0.01948097639689653,0.002072490699443159
-0.15128526143057797,0.019405400751788145,0.00208221229373033
-0.15151443660101413,0.019329700827280246,0.002091896069125097
-0.15170681723848267,0.01925389551382037,0.002101541968210372
-0.15186434671942645,0.019178002722830895,0.002111149942769535
-0.15198893043841444,0.019102039403541434,0.002120719953301128
-0.15208242760044807,0.019026021564031718,0.002130251968543021
-0.15214664346452386,0.018949964296265474,0.0021397459650080953
-0.15218332206021398,0.01887388180488429,0.002149201926533383
-0.15219413940719553,0.018797787439517436,0.0021586198438444835
-0.1521806972849286,0.018721693730344404,0.002167999714136949
-0.15214451761785006,0.018645612426618708,0.0021773415406761898
-0.15208703755105799,0.01856955453782648,0.0021866453324173012
-0.15200960529009627,0.01849353037711619,0.002195911103646037
-0.15191347677189979,0.01841754960660069,0.002205138873641966
-0.1517998132282963,0.01834162128410064,0.0022143286663646416
-0.15166967969862036,0.01826575391086891,0.002223480510163384
-0.151524044541428,0.018189955479808898,0.0022325944375110535
-0.15136377998846154,0.018114233523676426,0.002241670484761925
-0.15118966377960463,0.01803859516273441,0.0022507086919335275
-0.15100238191167584,0.01796304715131159,0.002259709102512039
-0.15080253251855813,0.017887595922704034,0.0022686717632805433
-0.15059063087391453,0.017812247631855915,0.002277596724169183
-0.15036711547901407,0.017737008195267683,0.0022864840381259643
-0.15013235517445211,0.017661883327604315,0.0022953337610066822
-0.14988665719598382,0.017586878574511706,0.0023041459514822112
-0.14963027607990162,0.017511999341192734,0.0023129206709611373
-0.14936342331438077,0.017437250916344165,0.0023216579835255214
-0.1490862776312245,0.017362638491107765,0.0023303579558773845
-0.14879899583242603,0.017288167172741852,0.0023390206572933467
-0.1485017240399193,0.017213841992773767,0.0023476461595847258
-0.1481946092412222,0.017139667909453482,0.0023562345370602826
-0.1478778109812391,0.017065649804397866,0.0023647858664887452
-0.14755151302645358,0.016991792473395943,0.0023733002270581935
-0.14721593480867365,0.01691810061143716,0.002381777700329402
-0.14687134245069863,0.016844578792122318,0.0023902183701802917
-0.1465180591901985,0.016771231441712095,0.00239862232273875
-0.14615647504356527,0.016698062808153655,0.0024069896463012165
-0.14578705557651694,0.016625076925498635,0.0024153204312346295
-0.14541034966714125,0.01655227757418772,0.0024236147698595513
-0.14502699616244072,0.016479668237730324,0.0024318727563125307
-0.14463772934785976,0.01640725205635275,0.0024400944863860515
-0.14424338317440835,0.01633503177822218,0.002448280057344695
-0.1438448942168897,0.016263009708874357,0.0024564295677164693
-0.14344330336433536,0.01619118765947905,0.0024645431170585578
-0.14303975626640716,0.016119566894571363,0.0024726208056970703
-0.14263550257164923,0.016048148079861848,0.0024806627344406786
-0.14223189399070202,0.01597693123072126,0.0024886690042683246
-0.14183038120566974,0.01590591566192217,0.0024966397159914854
-0.1414325096381109,0.015835099939211224,0.0025045749698917688
-0.14103991408837369,0.015764481833279602,0.0025124748653348916
-0.14065431226554204,0.01569405827669112,0.0025203395003623843
