frame_number,force
0,890.5694964094083
1,891.263723083702
2,891.9553921704792
3,892.6438105071463
4,893.328296949916
5,894.0081828433251
6,894.682812473032
7,895.3515435029274
8,896.0137473967569
9,896.6688098236218
10,897.3161310463545
11,897.9551262921848
12,898.5852261060533
13,899.2058766878692
14,899.8165402157601
15,900.4166951580456
16,901.0058365773804
17,901.583476431257
18,902.1491438739002
19,902.7023855656599
20,903.2427659972649
21,903.7698678373828
22,904.2832923122974
23,904.7826596257164
24,905.2676094248462
25,905.7378013161755
26,906.1929154310642
27,906.6326530376317
28,907.0567371924078
29,907.464913423131
30,907.8569504325986
31,908.2326408122053
32,908.5918017529365
33,908.9342757413043
34,909.2599312277972
35,909.5686632554097
36,909.8603940356317
37,910.1350734594758
38,910.3926795323407
39,910.6332187236261
40,910.8567262244487
41,911.0632661092098
42,911.2529313990157
43,911.4258440265382
44,911.5821547020792
45,911.7220426793309
46,911.845715417559
47,911.9534081356735
48,912.0453832531824
49,912.1219297132172
50,912.1833621838146
51,912.2300201355597
52,912.2622667961707
53,912.2804879849284
54,912.2850908316509
55,912.2765023861322
56,912.2551681246171
57,912.2215503601063
58,912.1761265636815
59,912.1193876053292
60,912.0518359247843
61,911.9739836445337
62,911.8863506374516
63,911.7894625609649
64,911.6838488690613
65,911.5700408131787
66,911.4485694429428
67,911.3199636177428
68,911.1847480400347
69,911.0434413206856
70,910.8965540855813
71,910.7445871315383
72,910.5880296386906
73,910.427357445808
74,910.2630313939679
75,910.0954957425702
76,909.9251766604601
77,909.7524807947082
78,909.5777939205353
79,909.4014796774369
80,909.2238783979493
81,909.0453060363774
82,908.8660532051305
83,908.6863843263806
84,908.5065369068578
85,908.3267209438602
86,908.1471184706102
87,907.9678832486444
88,907.7891406141094
89,907.6109874841119
90,907.4334925287143
91,907.2566965130427
92,907.0806128116449
93,906.9052280940343
94,906.7305031771717
95,906.5563740381185
96,906.3827529783543
97,906.2095299300688
98,906.0365738938553
99,905.8637344964596
100,905.6908436563613
101,905.5177173439072
102,905.3441574217545
103,905.16995355092
104,904.9948851477072
105,904.8187233766222
106,904.6412331639248
107,904.462175216321
108,904.2813080300363
109,904.0983898767626
110,903.9131807540018
111,903.7254442878783
112,903.5349495767484
113,903.3414729638428
114,903.1447997267214
115,902.9447256710406
116,902.7410586167414
117,902.5336197662499
118,902.3222449459975
119,902.1067857141456
120,901.88711032877
121,901.6631045719879
122,901.4346724264947
123,901.2017366014862
124,900.9642389052483
125,900.7221404626403
126,900.4754217777834
127,900.2240826448932
128,899.9681419127007
129,899.7076371102704
130,899.4426239443294
131,899.1731756800455
132,898.8993824180213
133,898.6213502801587
134,898.3392005164359
135,898.0530685439232
136,897.7631029286453
137,897.4694643202307
138,897.1723243487525
139,896.8718644928167
140,896.5682749274606
141,896.2617533592875
142,895.9525038549132
143,895.6407356681615
144,895.3266620717335
145,895.0104991996355
146,894.6924649068608
147,894.3727776523091
148,894.0516554096276
149,893.7293146090497
150,893.4059691122175
151,893.0818292216798
152,892.7571007268675
153,892.4319839884511
154,892.1066730629877
155,891.7813548698398
156,891.4562084025833
157,891.1314039873376
158,890.8071025903905
159,890.4834551773494
160,890.1606021263481
161,889.838672698811
162,889.5177845724553
163,889.1980434417893
164,888.879542690983
165,888.5623631429958
166,888.2465728879037
167,887.932227192759
168,887.6193684948922
169,887.308026480209
170,886.9982182480967
171,886.6899485654538
172,886.3832102136884
173,886.0779844331734
174,885.7742414689802
175,885.4719412199779
176,885.1710339908572
177,884.8714613433659
178,884.5731570394514
179,884.2760480656206
180,883.9800557248132
181,883.6850967797494
182,883.3910846308884
183,883.0979305132028
184,882.8055446982114
185,882.5138376899004
186,882.2227214045917
187,881.9321103256755
188,881.6419226248476
189,881.352081242096
190,881.0625149170685
191,880.773159164883
192,880.483957190272
193,880.1948607351076
194,879.9058308554949
195,879.6168386254152
196,879.32786576416
197,879.0389051845875
198,878.7499614588896
199,878.4610511984051
200,878.1722033441583
201,877.883459365526
202,877.5948733659898
203,877.3065120970527
204,877.0184548832456
205,876.7307934620816
206,876.4436317429763
207,876.1570854890474
208,875.8712819257145
209,875.5863592801851
210,875.302466256291
211,875.0197614496055
212,874.7384127079857
213,874.4585964423746
214,874.1804968920155
215,873.9043053474534
216,873.6302193339346
217,873.3584417572249
218,873.0891800135898
219,872.8226450656992
220,872.5590504864684
221,872.2986114734734
222,872.041543837553
223,871.7880629702549
224,871.5383827956293
225,871.2927147124188
226,871.0512665329484
227,870.814241425135
228,870.5818368643447
229,870.3542436025929
230,870.1316446636982
231,869.914214373977
232,869.7021174384854
233,869.495508072584
234,869.2945291978027
235,869.0993117096555
236,868.9099738234527
237,868.7266205030191
238,868.5493429768842
239,868.3782183463825
240,868.2133092892493
241,868.0546638603912
242,867.9023153890414
243,867.7562824692611
244,867.6165690391363
245,867.483164542972
246,867.3560441702314
247,867.2351691650592
248,867.1204872009304
249,867.0119328159759
250,866.9094279055379
251,866.8128822692147
252,866.7221942099088
253,866.6372511821764
254,866.5579304866671
255,866.4841000068349
256,866.4156189836265
257,866.3523388236431
258,866.2941039361602
259,866.2407525940752
260,866.1921178134023
261,866.1480282458112
262,866.108309079015
263,866.0727829401823
264,866.0412707976042
265,866.0135928555775
266,865.9895694369584
267,865.9690218473064
268,865.9517732143718
269,865.9376492971937
270,865.9264792602236
271,865.9180964092178
272,865.9123388866719
273,865.909050324843
274,865.9080804536783
275,865.9092856594202
276,865.9125294880232
277,865.9176830866629
278,865.9246255767365
279,865.9332443523416
280,865.9434352987292
281,865.9551029256625
282,865.9681604111954
283,865.9825295520059
284,865.9981406168064
285,866.0149320998902
286,866.0328503732431
287,866.0518492380056
288,866.0718893786446
289,866.0929377253252
290,866.1149667316334
291,866.1379535761298
292,866.1618792970203
293,866.1867278694106
294,866.2124852346094
295,866.239138291487
296,866.2666738613062
297,866.2950776394493
298,866.3243331496187
299,866.3544207178035
300,866.3853164837299
301,866.4169914662673
302,866.449410696979
303,866.482532433761
304,866.5163074648152
305,866.5506785118317
306,866.5855797395963
307,866.6209363769915
308,866.6566644517662
309,866.6926706389723
310,866.7288522209416
311,866.765097155582
312,866.8012842500284
313,866.8372834377437
314,866.872956157957
315,866.9081558362956
316,866.9427284648825
317,866.9765132791649
318,867.0093435271351
319,867.0410473245553
320,867.0714485878981
321,867.100368035468
322,867.1276242465572
323,867.1530347682121
324,867.1764172588258
325,867.1975906570115
326,867.2163763632491
327,867.2325994214934
328,867.246089688826
329,867.2566829827207
330,867.264222196493
331,867.2685583736318
332,867.2695517312894
333,867.2670726226756
334,867.2610024279477
335,867.2512343639769
336,867.2376742052924
337,867.2202409110322
338,867.1988671548035
339,867.1734997551754
340,867.1441000043101
341,867.1106438919206
342,867.073122221999
343,867.0315406204777
344,866.9859194330329
345,866.9362935137981
346,866.882711907836
347,866.8252374324726
348,866.7639461647593
349,866.6989268443864
350,866.6302802030713
351,866.5581182323789
352,866.48256340214
353,866.4037478412667
354,866.321812491482
355,866.2369062419474
356,866.1491850495911
357,866.058811047478
358,865.9659516429135
359,865.8707786081674
360,865.7734671688536
361,865.6741950967969
362,865.5731418147179
363,865.4704875194063
364,865.3664123290573
365,865.2610954597319
366,865.1547144354392
367,865.0474443359507
368,864.939457086105
369,864.8309207899757
370,864.7219991127835
371,864.6128507129177
372,864.5036287260251
373,864.3944803028418
374,864.2855462024751
375,864.1769604433563
376,864.0688500149543
377,863.9613346539741
378,863.8545266886615
379,863.748530953885
380,863.6434447782196
381,863.539358042858
382,863.4363533111771
383,863.3345060270576
384,863.2338847791884
385,863.1345516274513
386,863.0365624862823
387,862.9399675589975
388,862.844811816506
389,862.7511355131684
390,862.6589747314943
391,862.5683619462518
392,862.4793265979671
393,862.3918956658435
394,862.3060942307019
395,862.2219460196059
396,862.139473925441
397,862.0587004968329
398,861.9796483961237
399,861.9023408249719
400,861.8268019177368
401,861.7530571019985
402,861.6811334238871
403,861.6110598340989
404,861.5428674291834
405,861.4765896423044
406,861.4122623783969
407,861.3499240902465
408,861.2896157940879
409,861.2313810254827
410,861.1752657383299
411,861.1213181517768
412,861.0695885513923
413,861.0201290521392
414,860.972993331415
415,860.9282363408522
416,860.885914005883
417,860.8460829223309
418,860.808800059278
419,860.7741224768235
420,860.7421070660821
421,860.7128103172926
422,860.6862881207907
423,860.6625956050085
424,860.6417870151346
425,860.6239156350671
426,860.6090337539274
427,860.5971926772551
428,860.5884427826334
429,860.582833619883
430,860.580414056428
431,860.5812324681043
432,860.5853369742358
433,860.592775713628
434,860.6035971557267
435,860.6178504390055
436,860.6355857271591
437,860.6568545733636
438,860.6817102838204
439,860.7102082734307
440,860.7424064078735
441,860.7783653270474
442,860.8181487449548
443,860.8618237211216
444,860.9094608986416
445,860.9611347038043
446,861.0169235021287
447,861.0769097059592
448,861.1411798297586
449,861.2098244903638
450,861.2829383501731
451,861.3606200012806
452,861.442971788132
453,861.5300995658497
454,861.6221123914921
455,861.7191221461115
456,861.8212430860779
457,861.9285913226837
458,862.0412842298996
459,862.1594397813541
460,862.283175818799
461,862.4126092552525
462,862.5478552167456
463,862.6890261272688
464,862.8362307423122
465,862.9895731374442
466,863.1491516594434
467,863.3150578480751
468,863.4873753366185
469,863.666178739165
470,863.8515325329496
471,864.0434899444676
472,864.2420918484811
473,864.4473656890178
474,864.6593244312057
475,864.8779655524487
476,865.1032700812322
477,865.3352016916751
478,865.5737058615322
479,865.818709100647
480,866.0701182560841
481,866.3278198994764
482,866.5916798013529
483,866.8615424963397
484,867.1372309424322
485,867.4185462774027
486,867.7052676759371
487,867.9971523121401
488,868.2939354331348
489,868.5953305501422
490,868.9010297535807
491,869.2107041584999
492,869.5240044857052
493,869.8405617817139
494,870.1599882772932
495,870.4818783805778
496,870.8058097974157
497,871.1313447688252
498,871.4580314130858
499,871.785405158312
500,872.1129902508923
501,872.4403013258583
502,872.7668450265191
503,873.0921216624359
504,873.4156268972249
505,873.7368534603156
506,874.0552928784929
507,874.3704372231689
508,874.6817808683252
509,874.9888222529378
510,875.2910656410963
511,875.5880228729449
512,875.879215099754
513,876.1641744966175
514,876.4424459461419
515,876.7135886858118
516,876.9771779106179
517,877.2328063215854
518,877.4800856104441
519,877.7186478708211
520,877.9481469269091
521,878.1682595716969
522,878.3786867085865
523,878.5791543923283
524,878.7694147670994
525,878.9492469006157
526,879.1184575130959
527,879.2768815988684
528,879.4243829370529
529,879.5608544867952
530,879.6862186622571
531,879.8004274827765
532,879.9034625941836
533,879.9953351582429
534,880.0760856084852
535,880.1457832719074
536,880.204525856844
537,880.252438807678
538,880.289674527182
539,880.3164114675079
540,880.3328530913624
541,880.3392267056004
542,880.3357821702455
543,880.3227904871651
544,880.3005422747166
545,880.2693461376142
546,880.2295269445115
547,880.1814240284426
548,880.1253893264618
549,880.0617854744261
550,879.9909838716092
551,879.913362728436
552,879.8293051093618
553,879.7391969818074
554,879.6434252811039
555,879.5423760006904
556,879.43643231665
557,879.3259727561233
558,879.2113694196854
559,879.092986267687
560,878.9711774798019
561,878.8462858962657
562,878.7186415491866
563,878.5885602926363
564,878.4563425403227
565,878.322272119304
566,878.1866152478435
567,878.0496196451932
568,877.9115137803617
569,877.7725062655009
570,877.6327853975048
571,877.4925188487333
572,877.3518535044485
573,877.2109154412584
574,877.069810038369
575,876.9286222120065
576,876.7874167627746
577,876.6462388257456
578,876.5051144133978
579,876.3640510417071
580,876.2230384298421
581,876.0820492645641
582,875.9410400219812
583,875.7999518412698
584,875.6587114463229
585,875.5172321112691
586,875.3754146648513
587,875.2331485278123
588,875.0903127772875
589,874.9467772324476
590,874.8024035558357
591,874.6570463647572
592,874.5105543467878
593,874.362771373203
594,874.2135376040636
595,874.0626905788339
596,873.9100662868244
597,873.7555002123851
598,873.5988283503784
599,873.4398881878436
600,873.2785196481598
601,873.1145659949025
602,872.9478746940815
603,872.7782982350354
604,872.6056949112162
605,872.4299295621335
606,872.2508742771312
607,872.068409061015
608,871.882422461381
609,871.6928121580137
610,871.4994855155611
611,871.3023601013577
612,871.1013641705346
613,870.8964371203423
614,870.6875299147897
615,870.4746054794111
616,870.2576390650894
617,870.036618580137
618,869.8115448911668
619,869.5824320947266
620,869.3493077623997
621,869.1122131620415
622,868.8712034576575
623,868.6263478903759
624,868.3777299427188
625,868.1254474877526
626,867.8696129237584
627,867.6103532937328
628,867.3478103871082
629,867.0821408188601
630,866.8135160791328
631,866.542122544855
632,866.2681614435542
633,865.9918487589698
634,865.7134150685548
635,865.4331053046025
636,865.1511784331421
637,864.8679070471632
638,864.5835768723647
639,864.2984861841192
640,864.0129451342017
641,863.7272749862759
642,863.4418072609428
643,863.1568827939656
644,862.872850713883
645,862.5900673466422
646,862.308895054979
647,862.0297010196431
648,861.7528559689441
649,861.478732862915
650,861.2077055385703
651,860.9401473232335
652,860.676429623935
653,860.4169205024858
654,860.1619832475275
655,859.9119749559627
656,859.6672451365837
657,859.4281343489469
658,859.1949728911309
659,858.9680795504822
660,858.7477604308243
661,858.5343078676725
662,858.3279994403872
663,858.1290970872999
664,857.9378463264737
665,857.7544755812432
666,857.579195607062
667,857.4121990149833
668,857.2536598867465
669,857.1037334762038
670,856.962555991648
671,856.8302444535401
672,856.7068966219872
673,856.5925909879602
674,856.4873868219954
675,856.3913242744692
676,856.3044245226215
677,856.2266899609804
678,856.1581044330711
679,856.0986335027325
680,856.0482247627107
681,856.0068081766459
682,855.9742964489961
683,855.9505854169907
684,855.9355544595669
685,855.9290669196387
686,855.9309705371683
687,855.9410978913468
688,855.9592668512126
689,855.9852810354517
690,856.0189302836196
691,856.0599911423758
692,856.1082273716222
693,856.1633904767801
694,856.225220274403
695,856.2934454983002
696,856.3677844519945
697,856.4479457107767
698,856.5336288734865
699,856.6245253614578
700,856.7203192608455
701,856.8206882047684
702,856.9253042923542
703,857.0338350417064
704,857.1459443727402
705,857.2612936144113
706,857.3795425301561
707,857.5003503556698
708,857.6233768438235
709,857.7482833118322
710,857.8747336858221
711,858.0023955381791
712,858.1309411137511
713,858.2600483419963
714,858.3894018331197
715,858.5186938568218
716,858.6476253025712
717,858.7759066206128
718,858.9032587431883
719,859.0294139852349
720,859.1541169228638
721,859.2771252465651
722,859.3982105850104
723,859.5171592951208
724,859.633773214676
725,859.747870374503
726,859.859285667677
727,859.9678714732954
728,860.0734982328346
729,860.1760549782309
730,860.2754498125867
731,860.3716103462818
732,860.4644840927091
733,860.5540388283946
734,860.6402629217436
735,860.7231656332146
736,860.8027773878896
737,860.8791500197635
738,860.9523569858759
739,861.0224935475618
740,861.0896769155465
741,861.1540463550654
742,861.2157632462258
743,861.2750110934218
744,861.3319954761398
745,861.3869439321013
746,861.4401057622758
747,861.491751746264
748,861.5421737567071
749,861.5916842630996
750,861.6406157182198
751,861.6893198234568
752,861.7381666717561
753,861.7875437684432
754,861.8378549310264
755,861.8895190696037
756,861.942968849885
757,861.99864924118
758,862.0570159522306
759,862.118533758711
760,862.1836747276145
761,862.2529163453936
762,862.326739558387
763,862.4056267355744
764,862.4900595649092
765,862.5805168951255
766,862.6774725347389
767,862.7813930189853
768,862.8927353541727
769,863.0119447481313
770,863.1394523357111
771,863.2756729095449
772,863.4210026680153
773,863.5758169939318
774,863.7404682784177
775,863.9152838047473
776,864.100563706829
777,864.2965790173115
778,864.5035698208017
779,864.7217435276405
780,864.9512732826211
781,865.1922965212199
782,865.444913683866
783,865.7091870967967
784,865.985140026211
785,866.2727559107522
786,866.5719777758737
787,866.8827078324026
788,867.2048072604199
789,867.538096178317
790,867.8823537958808
791,868.2373187499741
792,868.6026896215327
793,868.9781256323939
794,869.3632475194512
795,869.7576385821558
796,870.1608458982206
797,870.5723817022401
798,870.991724922741
799,871.4183228737124
800,871.8515930955422
801,872.2909253375233
802,872.7356836711238
803,873.1852087212911
804,873.6388200023872
805,874.0958183456033
806,874.5554884057169
807,875.0171012363795
808,875.4799169239343
809,875.9431872695496
810,876.4061585084937
811,876.868074054057
812,877.3281772519795
813,877.7857141294324
814,878.2399361213469
815,878.690102756857
816,879.1354842897013
817,879.5753642576803
818,880.009041956952
819,880.4358348167546
820,880.8550806590789
821,881.2661398261909
822,881.6683971574395
823,882.0612637964251
824,882.4441788109978
825,882.8166106116521
826,883.1780581578975
827,883.5280519460952
828,883.8661547754225
829,884.1919622911006
830,884.5051033064257
831,884.8052399081064
832,885.0920673529167
833,885.3653137671633
834,885.6247396634906
835,885.870137292039
836,886.1013298450279
837,886.3181705353677
838,886.5205415708721
839,886.7083530460781
840,886.8815417736861
841,887.0400700771168
842,887.1839245645072
843,887.3131149028079
844,887.4276726090144
845,887.5276498742851
846,887.6131184352369
847,887.6841685042664
848,887.7409077673009
849,887.7834604536405
850,887.811966479271
851,887.8265806627285
852,887.8274720114291
853,887.8148230758349
854,887.7888293680124
855,887.7496988396094
856,887.6976514124216
857,887.6329185535214
858,887.5557428868681
859,887.4663778339512
860,887.3650872764163
861,887.2521452333908
862,887.1278355458071
863,886.9924515600676
864,886.8462958041736
865,886.6896796505092
866,886.5229229602471
867,886.3463537047983
868,886.160307560335
869,885.9651274723242
870,885.7611631880072
871,885.5487707556154
872,885.3283119899859
873,885.100153905404
874,884.86466811769
875,884.6222302181435
876,884.3732191216362
877,884.1180163903072
878,883.8570055336223
879,883.5905712855615
880,883.3190988605081
881,883.0429731906979
882,882.7625781493397
883,882.4782957646037
884,882.1905054305855
885,881.8995831218955
886,881.6059006183592
887,881.3098247455624
888,881.0117166362561
889,880.7119310176181
890,880.41081553009
891,880.1087100843025
892,879.8059462626792
893,879.5028467713739
894,879.1997249465838
895,878.8968843175597
896,878.5946182271446
897,878.2932095093323
898,877.9929302223062
899,877.6940414350828
900,877.3967930662086
901,877.1014237732028
902,876.8081608911821
903,876.5172204185346
904,876.2288070469215
905,875.9431142323101
906,875.6603243031784
907,875.3806086014814
908,875.1041276512289
909,874.8310313481478
910,874.5614591616677
911,874.2955403378734
912,874.0333940904236
913,873.7751297669766
914,873.5208469815509
915,873.2706357073024
916,873.0245763278974
917,872.7827396483603
