frame_number,force
0,890.541884142979
1,891.2408757197375
2,891.9365464617268
3,892.627715922699
4,893.3132691465514
5,893.9921693856694
6,894.6634700784713
7,895.3263257731227
8,895.9800015601894
9,896.6238804556197
10,897.257468125653
11,897.8803944206303
12,898.4924113450419
13,899.0933872553588
14,899.6832972162679
15,900.2622095815344
16,900.8302690125024
17,901.3876763049834
18,901.9346655771135
19,902.4714795959815
20,902.9983442814114
21,903.5154436676646
22,904.022896739501
23,904.5207375216661
24,905.0088995995724
25,905.4872059251264
26,905.955364337223
27,906.412968763999
28,906.8595056980629
29,907.2943653061634
30,907.7168563910378
31,908.1262243084828
32,908.5216708796848
33,908.9023753579092
34,909.2675155740236
35,909.6162884234471
36,909.9479288531821
37,910.2617265507787
38,910.557039723223
39,910.8333056653521
40,911.0900481623631
41,911.3268820976324
42,911.54351592565
43,911.7397528416387
44,911.915491420234
45,912.0707262000199
46,912.2055483075959
47,912.3201459027965
48,912.4148040286016
49,912.4899033501957
50,912.5459172883981
51,912.5834072145566
52,912.6030156204429
53,912.6054574018963
54,912.5915095379546
55,912.5619995050602
56,912.5177927406886
57,912.4597793834633
58,912.3888604635182
59,912.305933811095
60,912.2118801698222
61,912.1075501638618
62,911.9937527395426
63,911.8712455425301
64,911.7407275404843
65,911.6028341086172
66,911.4581347431215
67,911.3071335399422
68,911.1502725393547
69,910.9879379344698
70,910.8204689680459
71,910.6481691632895
72,910.4713194115695
73,910.2901923497178
74,910.1050673275074
75,909.9162450792652
76,909.7240610679733
77,909.5288964870985
78,909.3311861129184
79,909.1314225091622
80,908.9301563796608
81,908.7279930838663
82,908.5255854753401
83,908.3236233338666
84,908.1228197904554
85,907.923895302624
86,907.7275598749087
87,907.5344942864684
88,907.3453311042626
89,907.1606362995167
90,906.980892355083
91,906.8064837384966
92,906.6376854195967
93,906.4746547815487
94,906.3174269483255
95,906.1659133279825
96,906.0199030654164
97,905.8790670747611
98,905.7429643381174
99,905.6110501821743
100,905.4826862433579
101,905.3571517903124
102,905.233656031921
103,905.1113510616844
104,904.9893451623058
105,904.8667162293227
106,904.7425250410913
107,904.6158281021402
108,904.4856899032253
109,904.3511946182219
110,904.2114573795055
111,904.0656353027177
112,903.9129383945699
113,903.7526403695247
114,903.5840892186086
115,903.4067172035203
116,903.2200499040397
117,903.0237140226658
118,902.8174437550562
119,902.601085607281
120,902.3746015759909
121,902.1380706159737
122,901.8916882878203
123,901.6357643744194
124,901.3707181196962
125,901.0970707142844
126,900.8154348052248
127,900.5265010543297
128,900.2310220075565
129,899.9297937648322
130,899.623636171309
131,899.3133724210735
132,898.9998089948649
133,898.6837167519484
134,898.365813833598
135,898.0467508698391
136,897.7270988323277
137,897.4073397473323
138,897.0878603881971
139,896.7689490148101
140,896.4507951613544
141,896.1334923208528
142,895.8170431943722
143,895.5013671109651
144,895.1863093121973
145,894.8716519291478
146,894.5571265617432
147,894.2424283433526
148,893.927231222285
149,893.6112039940035
150,893.2940264991644
151,892.975405404976
152,892.6550890516478
153,892.3328809060528
154,892.0086512078072
155,891.6823464448083
156,891.3539963711896
157,891.0237183513484
158,890.691718843182
159,890.3582918493288
160,890.0238142503963
161,889.6887381274092
162,889.3535804079638
163,889.0189103081419
164,888.6853350348304
165,888.3534841164469
166,888.0239926448978
167,887.6974836849872
168,887.3745501145925
169,887.0557361817196
170,886.7415191576157
171,886.4322916923421
172,886.1283457774609
173,885.8298594145946
174,885.5368870799266
175,885.2493549015245
176,884.9670611676315
177,884.6896823670488
178,884.416784492592
179,884.1478388957299
180,883.8822415861783
181,883.6193345752071
182,883.3584277913184
183,883.0988203099608
184,882.8398200234972
185,882.580761241916
186,882.3210199488952
187,882.0600265709861
188,881.7972762174238
189,881.5323364175688
190,881.2648524063685
191,880.9945500280135
192,880.7212363988817
193,880.4447985840799
194,880.165200643804
195,879.8824794471578
196,879.5967396030447
197,879.3081477318838
198,879.0169261530465
199,878.7233459388643
200,878.4277192092517
201,878.1303905522071
202,877.831727597907
203,877.5321110057336
204,877.231924314717
205,876.9315441611191
206,876.631331301755
207,876.3316227820832
208,876.0327255078109
209,875.7349114298358
210,875.4384145396334
211,875.1434298796818
212,874.8501147455055
213,874.5585921516583
214,874.2689564766408
215,873.9812810338843
216,873.6956271558353
217,873.4120542476907
218,873.1306301915657
219,872.8514414552618
220,872.5746022749066
221,872.3002623570017
222,872.0286126820001
223,871.7598891435093
224,871.4943738825691
225,871.2323942612281
226,870.9743194643922
227,870.7205547474342
228,870.4715334120659
229,870.2277067351789
230,869.9895322770896
231,869.7574611836689
232,869.5319252027399
233,869.3133241465312
234,869.1020144620693
235,868.8982994221894
236,868.7024212656835
237,868.5145555053813
238,868.3348076419253
239,868.1632125757931
240,867.9997369551219
241,867.8442844801762
242,867.6967038810084
243,867.5567990155042
244,867.4243403650087
245,867.299077120057
246,867.1807490396037
247,867.0690973561865
248,866.9638741806032
249,866.864850086038
250,866.7718197726825
251,866.6846058869121
252,866.6030611666318
253,866.5270691075142
254,866.4565433166377
255,866.3914256740065
256,866.3316833941785
257,866.2773050887399
258,866.2282959511388
259,866.1846721715295
260,866.1464546512656
261,866.1136620946263
262,866.086303629183
263,866.0643711836842
264,866.0478318784931
265,866.0366206537354
266,866.0306332896287
267,866.0297198932105
268,866.0336788960371
269,866.0422516792048
270,866.0551181032502
271,866.0718934042333
272,866.0921270454812
273,866.1153041177132
274,866.1408497175058
275,866.168136435036
276,866.1964947612659
277,866.2252260126428
278,866.2536173030435
279,866.2809580870291
280,866.3065577706928
281,866.3297638389432
282,866.3499799167437
283,866.3666831470185
284,866.3794401943891
285,866.3879211260954
286,866.3919104938753
287,866.3913151630261
288,866.3861686938578
289,866.3766322731813
290,866.3629923188603
291,866.3456549609446
292,866.3251376118335
293,866.3020577608966
294,866.2771190371498
295,866.2510945914244
296,866.2248080076864
297,866.199112222893
298,866.1748672466765
299,866.1529177336946
300,866.1340715440003
301,866.1190802687488
302,866.1086223996804
303,866.1032895466882
304,866.1035759380885
305,866.1098713349128
306,866.1224573603033
307,866.1415070359292
308,866.1670870683771
309,866.1991622073917
310,866.2376008546731
311,866.2821811114228
312,866.332596673214
313,866.3884623306785
314,866.449319139122
315,866.5146394962123
316,866.5838324500427
317,866.6562495703248
318,866.7311916244565
319,866.8079161275477
320,866.8856456744369
321,866.9635768870312
322,867.0408898191807
323,867.1167577045507
324,867.1903569472173
325,867.2608771871451
326,867.3275311553705
327,867.3895640002976
328,867.4462619010413
329,867.4969599913821
330,867.5410497320399
331,867.5779858309498
332,867.6072926715166
333,867.6285700368051
334,867.6414977911215
335,867.6458391878265
336,867.6414426456103
337,867.6282420935357
338,867.6062561659623
339,867.5755865097979
340,867.5364152814467
341,867.4890017105712
342,867.4336774948646
343,867.3708407525526
344,867.3009482756311
345,867.2245059274097
346,867.1420572178863
347,867.0541703133949
348,866.9614239553882
349,866.8643929760552
350,866.7636342647043
351,866.6596740983019
352,866.5529977080648
353,866.4440418345384
354,866.3331907738851
355,866.22077598596
356,866.1070788130016
357,865.9923354603643
358,865.8767432839925
359,865.7604676208937
360,865.6436487487128
361,865.5264088630682
362,865.4088590729411
363,865.2911063521269
364,865.1732602787272
365,865.0554393382838
366,864.9377765558343
367,864.8204242292711
368,864.7035575537877
369,864.5873769441522
370,864.4721088663807
371,864.3580049958115
372,864.2453395426261
373,864.1344046348519
374,864.0255037456213
375,863.9189433279834
376,863.8150230519778
377,863.7140252347957
378,863.6162041353954
379,863.5217757345341
380,863.4309084906575
381,863.3437154368685
382,863.2602479182705
383,863.1804912392256
384,863.1043624354081
385,863.0317102810487
386,862.9623175208745
387,862.895905232513
388,862.83213918464
389,862.7706379916438
390,862.7109827269383
391,862.6527274993479
392,862.5954104084698
393,862.5385642959251
394,862.4817267789114
395,862.4244491857197
396,862.3663042188145
397,862.3068924460805
398,862.2458480179314
399,862.1828442191132
400,862.1175994730353
401,862.049884198045
402,861.9795285549884
403,861.9064307427517
404,861.8305651886396
405,861.7519898116616
406,861.6708515374182
407,861.587389383777
408,861.5019346510244
409,861.4149079843718
410,861.326813306465
411,861.2382288273135
412,861.1497955081898
413,861.0622034700443
414,860.9761768955367
415,860.8924579959132
416,860.811790632479
417,860.7349042078839
418,860.6624984381012
419,860.595229531399
420,860.5336981312006
421,860.4784391906288
422,860.4299138273847
423,860.3885031822986
424,860.3545042992439
425,860.3281279761072
426,860.3094984184627
427,860.2986544515653
428,860.2955520946682
429,860.3000684719306
430,860.312007217693
431,860.3311055925586
432,860.3570434114462
433,860.3894536506976
434,860.4279343281332
435,860.4720610033575
436,860.521399099113
437,860.5755152715861
438,860.6339872703636
439,860.6964120375044
440,860.7624120591561
441,860.8316401198758
442,860.9037826467479
443,860.9785618367948
444,861.0557367547364
445,861.1351035470085
446,861.2164948651913
447,861.2997786011507
448,861.3848561326645
449,861.471660390149
450,861.5601540902172
451,861.6503284056814
452,861.7422021818775
453,861.8358216458063
454,861.9312604694342
455,862.02862003328
456,862.1280297186889
457,862.2296470283367
458,862.3336573518466
459,862.4402732652264
460,862.5497333228923
461,862.6623003336066
462,862.7782591165426
463,862.8979137330101
464,863.021584213544
465,863.1496028711271
466,863.2823103708249
467,863.4200517382841
468,863.5631724223633
469,863.7120144541785
470,863.8669127329674
471,864.0281915059679
472,864.1961611357738
473,864.3711152321063
474,864.5533281778138
475,864.743053032964
476,864.9405197838798
477,865.1459339058442
478,865.3594751844289
479,865.581296680126
480,865.8115236628386
481,866.0502523054805
482,866.2975478863444
483,866.553442202476
484,866.8179298859129
485,867.0909633963975
486,867.3724466572764
487,867.6622275782536
488,867.9600899971708
489,868.2657457974456
490,868.5788281064229
491,868.8988865693649
492,869.2253856702157
493,869.5577068482025
494,869.8951547528503
495,870.2369675131239
496,870.5823304878448
497,870.9303926391804
498,871.2802844043847
499,871.6311357720485
500,871.9820932803101
501,872.3323348361231
502,872.6810815191716
503,873.0276058621649
504,873.371236524395
505,873.7113597258751
506,874.0474181074104
507,874.3789077245901
508,874.705373744028
509,875.0264052456835
510,875.341629444503
511,875.650705629305
512,875.9533191365408
513,876.2491756911609
514,876.5379964089286
515,876.8195136243451
516,877.0934675102561
517,877.3596032760731
518,877.6176686340089
519,877.8674112038505
520,878.1085755729243
521,878.3408998550742
522,878.5641118114537
523,878.7779248669679
524,878.9820345897809
525,879.1761163017657
526,879.3598244066264
527,879.5327937872995
528,879.694643333057
529,879.8449814226481
530,879.9834130561183
531,880.1095482646942
532,880.2230114150079
533,880.323451070558
534,880.4105501622487
535,880.4840362934694
536,880.543692013024
537,880.5893648234905
538,880.6209765867648
539,880.6385318969367
540,880.6421249452707
541,880.6319443840537
542,880.6082756935638
543,880.5715006257018
544,880.522093507312
545,880.4606145333312
546,880.387700582843
547,880.3040544108233
548,880.2104331711241
549,880.1076370948574
550,879.9964988937327
551,879.8778741949156
552,879.7526330860861
553,879.621652660126
554,879.4858102969888
555,879.3459773240273
556,879.2030127004003
557,879.0577564857005
558,878.9110229958332
559,878.7635936109231
560,878.616209168151
561,878.4695618549854
562,878.3242866138759
563,878.1809522440109
564,878.0400525313993
565,877.9019978267503
566,877.7671075811427
567,877.6356044528992
568,877.5076106408068
569,877.3831470336801
570,877.2621356063788
571,877.1444052286516
572,877.0297006883374
573,876.9176943623954
574,876.8079997207911
575,876.7001857537979
576,876.5937914413603
577,876.4883394976015
578,876.383348770123
579,876.2783447899794
580,876.1728680625216
581,876.066479850548
582,875.9587654866575
583,875.8493355907032
584,875.7378257958152
585,875.6238955910171
586,875.5072267332598
587,875.3875215340646
588,875.2645012726334
589,875.1379049871938
590,875.0074888780957
591,874.8730264859294
592,874.734309697644
593,874.5911505223067
594,874.4433834910345
595,874.290868477922
596,874.1334937196149
597,873.9711788255067
598,873.8038775785111
599,873.6315803007616
600,873.4543155376101
601,873.272150870769
602,873.0851928271791
603,872.8935860256676
604,872.6975117871281
605,872.4971863811808
606,872.2928589381705
607,872.084808910502
608,871.8733429076262
609,871.6587907836633
610,871.4415009720758
611,871.2218351584928
612,871.0001624270297
613,870.7768529962082
614,870.5522715523758
615,870.3267700189368
616,870.100679498277
617,869.8743012108152
618,869.647896511338
619,869.4216763424348
620,869.195790654827
621,868.9703183796547
622,868.745258571462
623,868.5205233921203
624,868.2959336238271
625,868.0712173528664
626,867.846012367254
627,867.6198726416349
628,867.3922790145153
629,867.1626538366068
630,866.9303790603342
631,866.6948169787385
632,866.4553326079296
633,866.2113165829895
634,865.9622074685717
635,865.7075125853083
636,865.446826757087
637,865.1798486781959
638,864.906394761595
639,864.6264103041076
640,864.3399776740118
641,864.0473211785142
642,863.748808431505
643,863.4449483575586
644,863.1363862507268
645,862.8238964085518
646,862.5083727642165
647,862.1908177339146
648,861.8723293040368
649,861.5540862678808
650,861.237331475908
651,860.9233529812129
652,860.6134630778214
653,860.3089754510469
654,860.0111809107174
655,859.7213223576874
656,859.4405697195688
657,859.1699956689561
658,858.9105530836224
659,858.663055351704
660,858.4281606110565
661,858.2063608058611
662,857.9979761441743
663,857.8031552013862
664,857.6218805086258
665,857.4539790401797
666,857.2991367284981
667,857.1569160698616
668,857.0267759451316
669,856.9080928551905
670,856.8001828466956
671,856.7023234896542
672,856.6137753292516
673,856.5338022518092
674,856.4616902268995
675,856.3967639889373
676,856.3384014265242
677,856.2860456997124
678,856.2392153068083
679,856.1975123898658
680,856.1606294551885
681,856.1283544213093
682,856.1005736353388
683,856.0772723913612
684,856.0585325780831
685,856.0445272557903
686,856.0355120911585
687,856.031813661599
688,856.0338147556067
689,856.0419369726981
690,856.0566211211951
691,856.0783060882083
692,856.1074070319927
693,856.1442939331574
694,856.1892716779697
695,856.24256283656
696,856.3042940876468
697,856.3744868514801
698,856.453052217024
699,856.5397898508496
700,856.6343904068535
701,856.7364410178607
702,856.8454335794389
703,856.9607755576909
704,857.0818029164415
705,857.2077945696569
706,857.3379876836622
707,857.4715932294196
708,857.6078113121034
709,857.7458458744579
710,857.884918390816
711,858.0242802154472
712,858.1632233628203
713,858.3010896563059
714,858.4372783264505
715,858.5712522224769
716,858.7025428338419
717,858.8307543503937
718,858.9555670141219
719,859.0767399628652
720,859.1941135979381
721,859.3076112760568
722,859.417239940869
723,859.5230892603075
724,859.6253289161394
725,859.7242038006913
726,859.8200269291902
727,859.9131698955736
728,860.0040507719
729,860.0931195373781
730,860.1808414099767
731,860.2676787674505
732,860.3540725932387
733,860.4404244975221
734,860.5270803175252
735,860.6143161161706
736,860.7023271528342
737,860.7912201863078
738,860.8810093238775
739,860.9716155395488
740,861.0628699340971
741,861.1545207568755
742,861.2462440851988
743,861.3376578558969
744,861.4283387241596
745,861.5178410066214
746,861.6057167341683
747,861.691535655136
748,861.7749040168953
749,861.8554811721134
750,861.9329934354628
751,862.0072450166077
752,862.078126149506
753,862.1456186777972
754,862.2097993781719
755,862.270841266675
756,862.329013065578
757,862.3846769285833
758,862.4382844656088
759,862.4903711132773
760,862.5415489701383
761,862.5924983286244
762,862.6439582525734
763,862.6967166452795
764,862.7516003074451
765,862.80946545902
766,862.8711890526623
767,862.9376609467137
768,863.0097767113167
769,863.0884306329069
770,863.1745084510062
771,863.2688795006442
772,863.3723881571439
773,863.4858446960127
774,863.6100158208898
775,863.7456151535412
776,863.8932939903826
777,864.053632707627
778,864.2271333252987
779,864.4142137970887
780,864.615204505436
781,864.8303472499836
782,865.0597968025972
783,865.3036249101021
784,865.5618264661825
785,865.834327447292
786,866.1209941228004
787,866.4216430081939
788,866.7360510033
789,867.0639651250738
790,867.4051112579084
791,867.7592014720938
792,868.1259396616797
793,868.5050253977922
794,868.8961559146524
795,869.2990260951145
796,869.7133263203722
797,870.138738203833
798,870.5749285291707
799,871.021541966636
800,871.4781931352351
801,871.9444583116366
802,872.4198667798426
803,872.9038916658891
804,873.3959401357457
805,873.8953430036408
806,874.4013440725219
807,874.9130898395882
808,875.4296204153158
809,875.9498625456014
810,876.4726255341016
811,876.9966006944094
812,877.5203647233946
813,878.0423871023296
814,878.5610414106723
815,879.074620385645
816,879.5813546541062
817,880.0794351624522
818,880.5670393153083
819,881.0423606598307
820,881.5036416202347
821,881.9492083460027
822,882.377506302085
823,882.7871349468467
824,883.1768798186697
825,883.5457405793429
826,883.8929539223186
827,884.2180105925411
828,884.5206659850195
829,884.8009439027252
830,885.0591331633202
831,885.2957769486507
832,885.5116550928128
833,885.7077598214122
834,885.8852657187088
835,886.0454949056431
836,886.1898785742277
837,886.319916136057
838,886.4371332951346
839,886.5430403581138
840,886.63909206201
841,886.7266501181319
842,886.8069495191193
843,886.8810694576556
844,886.9499095419885
845,887.0141719092236
846,887.0743497488639
847,887.1307225291806
848,887.1833578595139
849,887.2321195298581
850,887.2766809576433
851,887.3165431188037
852,887.3510560654131
853,887.3794432513835
854,887.4008279600654
855,887.4142610778046
856,887.4187493470603
857,887.413283206698
858,887.3968634642929
859,887.3685262681647
860,887.32736601173
861,887.272555850528
862,887.2033655056197
863,887.1191760717294
864,887.019491684677
865,886.9039480622541
866,886.7723180254852
867,886.6245141334286
868,886.4605885941708
869,886.280730678661
870,886.0852619268485
871,885.8746294660733
872,885.6493977876253
873,885.4102393905999
874,885.157924768847
875,884.8933121882776
876,884.617337533576
877,884.3310042580948
878,884.0353732551455
879,883.7315523680064
880,883.4206852927296
881,883.1039397475342
882,882.7824949116499
883,882.4575282521647
884,882.1302019622796
885,881.8016492949266
886,881.472961043316
887,881.1451723097573
888,880.819249614735
889,880.4960784312823
890,880.1764513906243
891,879.8610575894597
892,879.5504735119371
893,879.2451560134973
894,878.9454376490434
895,878.651524452732
896,878.3634961378525
897,878.0813085732717
898,877.8047983252679
899,877.5336890928712
900,877.2675999993953
901,877.0060558200952
902,876.7484992544618
903,876.4943053225775
904,876.2427979212912
905,875.993268521983
906,875.7449969260076
907,875.4972739170379
908,875.2494255292199
909,875.000838418385
910,874.7509854443514
911,874.4994501272647
912,874.2459483313582
913,873.9903455517849
914,873.7326685598343
915,873.4731107165766
916,873.2120307625257
917,872.949945231205
