frame_number,force
0,890.3000974218447
1,890.9903612662223
2,891.6788255136976
3,892.3647261180375
4,893.0473108353909
5,893.7258403700256
6,894.3995894825364
7,895.0678480588937
8,895.7299221386791
9,896.3851349008323
10,897.0328276052819
11,897.6723604889922
12,898.3031136152073
13,898.9244876749091
14,899.5359047397243
15,900.1368089657125
16,900.7266672476803
17,901.3049698238775
18,901.8712308311533
19,902.4249888109173
20,902.9658071665312
21,903.4932745730223
22,904.0070053401596
23,904.5066397299206
24,904.9918442291935
25,905.462311778261
26,905.9177619552137
27,906.3579411160052
28,906.7826224895117
29,907.1916062267486
30,907.5847194032774
31,907.961815973742
32,908.3227766774477
33,908.6675088939525
34,908.9959464477472
35,909.3080493612032
36,909.6038035550282
37,909.8832204956033
38,910.1463367888441
39,910.3932137206424
40,910.6239367443932
41,910.8386149165619
42,911.0373802816684
43,911.220387208386
44,911.3878116785626
45,911.5398505308649
46,911.6767206605577
47,911.798658176821
48,911.9059175190057
49,911.9987705333214
50,912.0775055116596
51,912.1424261945967
52,912.1938507410354
53,912.2321106673351
54,912.257549759087
55,912.2705229588984
56,912.2713952336725
57,912.2605404249255
58,912.2383400857432
59,912.2051823081788
60,912.1614605451865
61,912.1075724314162
62,912.0439186072175
63,911.9709015500866
64,911.8889244176618
65,911.7983899062879
66,911.6996991290998
67,911.5932505175135
68,911.4794387499244
69,911.3586537112485
70,911.2312794866854
71,911.0976933928094
72,910.9582650488641
73,910.8133554909101
74,910.6633163312084
75,910.5084889648764
76,910.3492038255444
77,910.1857796915679
78,910.018523044345
79,909.8477274803752
80,909.6736731787491
81,909.4966264257355
82,909.3168391980172
83,909.1345488059844
84,908.9499775983436
85,908.7633327291773
86,908.574805988439
87,908.3845736966405
88,908.1927966642041
89,907.9996202156977
90,907.8051742789263
91,907.6095735385408
92,907.4129176533344
93,907.2152915357833
94,907.0167656917798
95,906.8173966180075
96,906.617227254032
97,906.416287485891
98,906.2145946977356
99,906.0121543678657
100,905.8089607052897
101,905.6049973227065
102,905.4002379416011
103,905.1946471250234
104,904.9881810335742
105,904.7807882000668
106,904.5724103182454
107,904.362983040908
108,904.1524367828973
109,903.940697524619
110,903.7276876119249
111,903.5133265483183
112,903.2975317755208
113,903.0802194384809
114,902.8613051309061
115,902.640704617435
116,902.4183345287369
117,902.1941130261458
118,901.9679604327861
119,901.7397998284946
120,901.5095576061628
121,901.2771639874227
122,901.0425534958742
123,900.805665386264
124,900.5664440281977
125,900.324839243253
126,900.0808065948057
127,899.8343076304163
128,899.5853100771382
129,899.3337879906006
130,899.0797218592054
131,898.8230986651837
132,898.5639119045217
133,898.30216156788
134,898.0378540846726
135,897.7710022324856
136,897.5016250140358
137,897.2297475038791
138,896.9554006671101
139,896.6786211523422
140,896.3994510612787
141,896.1179376971011
142,895.8341332937808
143,895.5480947283917
144,895.2598832186067
145,894.9695640076959
146,894.6772060394159
147,894.3828816251385
148,894.086666105399
149,893.7886375078185
150,893.4888762032001
151,893.1874645615495
152,892.8844866097767
153,892.5800276928283
154,892.2741741399726
155,891.9670129379292
156,891.6586314125292
157,891.3491169205682
158,891.0385565534463
159,890.7270368540998
160,890.4146435487072
161,890.1014612947121
162,889.7875734468018
163,889.4730618424779
164,889.1580066087057
165,888.8424859908922
166,888.5265762052038
167,888.2103513150449
168,887.8938831323582
169,887.5772411442532
170,887.2604924653791
171,886.9437018164906
172,886.6269315297575
173,886.3102415813664
174,885.9936896517693
175,885.6773312135861
176,885.3612196467076
177,885.0454063795735
178,884.7299410549889
179,884.4148717182694
180,884.1002450249841
181,883.7861064651626
182,883.4725006006479
183,883.1594713123915
184,882.8470620547715
185,882.5353161143064
186,882.2242768703179
187,881.9139880552034
188,881.6044940120681
189,881.2958399475536
190,880.9880721777525
191,880.68123836517
192,880.3753877448295
193,880.0705713378132
194,879.7668421507215
195,879.4642553596868
196,879.1628684776564
197,878.8627415036676
198,878.5639370528434
199,878.2665204658636
200,877.9705598967497
201,877.6761263779698
202,877.3832938621687
203,877.0921392402122
204,876.8027423355821
205,876.5151858753679
206,876.2295554382043
207,875.9459393795634
208,875.6644287348871
209,875.3851171011495
210,875.108100497568
211,874.8334772063321
212,874.5613475943189
213,874.2918139167942
214,874.0249801040649
215,873.7609515319983
216,873.4998347772782
217,873.2417373582333
218,872.9867674620939
219,872.7350336595832
220,872.4866446078346
221,872.241708742761
222,872.0003339621834
223,871.7626273012129
224,871.5286946015324
225,871.298640176323
226,871.0725664726376
227,870.8505737330444
228,870.6327596584166
229,870.4192190738569
230,870.2100435998993
231,870.0053213312685
232,869.8051365255162
233,869.609569303798
234,869.4186953659106
235,869.2325857214739
236,869.0513064388748
237,868.8749184133727
238,868.7034771556766
239,868.5370326022356
240,868.375628948306
241,868.2193045045246
242,868.0680915772949
243,867.9220163729013
244,867.7810989249713
245,867.645353044689
246,867.5147862930247
247,867.3893999741957
248,867.269189149622
249,867.1541426717317
250,867.0442432370627
251,866.9394674581557
252,866.8397859537231
253,866.7451634564889
254,866.6555589379738
255,866.5709257493655
256,866.4912117775006
257,866.4163596149123
258,866.346306742852
259,866.2809857261086
260,866.2203244183605
261,866.1642461767517
262,866.112670084411
263,866.0655111796723
264,866.0226806907563
265,865.984086274623
266,865.9496322586302
267,865.9192198835564
268,865.8927475465265
269,865.8701110424685
270,865.8512038029095
271,865.8359171311401
272,865.8241404329442
273,865.8157614421602
274,865.8106664402567
275,865.8087404689037
276,865.8098675343136
277,865.8139308020251
278,865.8208127808622
279,865.8303954949225
280,865.8425606425582
281,865.8571897414156
282,865.8741642587255
283,865.8933657261612
284,865.914675838679
285,865.937976536867
286,865.9631500725656
287,865.9900790579063
288,866.0186464983276
289,866.0487358104656
290,866.0802308260966
291,866.113015783521
292,866.1469753079202
293,866.1819943822604
294,866.2179583103283
295,866.2547526735739
296,866.2922632836498
297,866.3303761328368
298,866.368977344862
299,866.4079531288664
300,866.4471897393327
301,866.4865734445843
302,866.5259905061147
303,866.5653271706503
304,866.6044696765827
305,866.6433042761681
306,866.681717274627
307,866.7195950869065
308,866.7568243124585
309,866.7932918279811
310,866.828884897735
311,866.8634913008552
312,866.896999475074
313,866.9292986763961
314,866.9602791543477
315,866.9898323423826
316,867.0178510629063
317,867.0442297462004
318,867.0688646622523
319,867.091654164172
320,867.1124989415617
321,867.1313022819961
322,867.147970338663
323,867.162412402149
324,867.1745411742914
325,867.184273041891
326,867.1915283479323
327,867.1962316579078
328,867.1983120189766
329,867.1977032099139
330,867.1943439799651
331,867.1881782747491
332,867.1791554473144
333,867.1672304523872
334,867.1523640218581
335,867.1345228196976
336,867.1136795748085
337,867.0898131907342
338,867.0629088314881
339,867.0329579829365
340,866.9999584891725
341,866.963914563325
342,866.9248367723288
343,866.8827419953409
344,866.8376533556948
345,866.7896001265667
346,866.7386176108917
347,866.6847469964547
348,866.6280351874573
349,866.5685346142151
350,866.5063030229481
351,866.4414032478144
352,866.3739029674156
353,866.303874447997
354,866.2313942754166
355,866.1565430776258
356,866.0794052389679
357,866.0000686072742
358,865.9186241946715
359,865.8351658732186
360,865.7497900668401
361,865.6625954413042
362,865.5736825940909
363,865.4831537459073
364,865.3911124354673
365,865.2976632190516
366,865.2029113762982
367,865.1069626236059
368,865.0099228364757
369,864.911897782044
370,864.8129928629719
371,864.7133128737556
372,864.6129617704379
373,864.5120424546291
374,864.4106565727211
375,864.3089043312144
376,864.2068843291693
377,864.1046934088456
378,864.0024265255358
379,863.900176637404
380,863.7980346158839
381,863.696089176928
382,863.5944268331976
383,863.4931318671225
384,863.3922863245751
385,863.2919700286782
386,863.1922606130302
387,863.0932335734443
388,862.9949623371494
389,862.8975183482529
390,862.8009711680482
391,862.7053885885308
392,862.6108367573406
393,862.5173803123071
394,862.4250825238066
395,862.33400544325
396,862.2442100562084
397,862.1557564389566
398,862.0687039175164
399,861.9831112285153
400,861.8990366812277
401,861.8165383200107
402,861.735674086066
403,861.6565019771613
404,861.5790802037315
405,861.5034673396946
406,861.4297224664093
407,861.3579053084202
408,861.2880763599319
409,861.2202970012665
410,861.1546296048613
411,861.0911376306448
412,861.0298857108688
413,860.9709397246497
414,860.9143668625901
415,860.8602356819256
416,860.8086161527009
417,860.7595796955378
418,860.7131992115749
419,860.6695491050878
420,860.6287052991427
421,860.5907452444435
422,860.5557479214033
423,860.5237938354202
424,860.4949650053007
425,860.4693449446677
426,860.4470186360351
427,860.4280724971113
428,860.4125943388888
429,860.4006733151939
430,860.392399863496
431,860.3878656367863
432,860.3871634261866
433,860.3903870736906
434,860.3976313741474
435,860.4089919653478
436,860.4245652049212
437,860.4444480327767
438,860.4687378180372
439,860.4975321897351
440,860.530928850822
441,860.5690253752242
442,860.6119189877728
443,860.6597063269103
444,860.7124831901544
445,860.7703442623548
446,860.8333828268301
447,860.9016904595992
448,860.9753567071316
449,861.0544687482792
450,861.1391110412238
451,861.2293649563429
452,861.3253083958897
453,861.4270154013767
454,861.5345557496192
455,861.6479945385332
456,861.767391763912
457,861.8928018885235
458,862.0242734050321
459,862.161848394446
460,862.3055620819938
461,862.4554423924809
462,862.6115095072926
463,862.7737754253062
464,862.9422435300894
465,863.1169081658986
466,863.2977542251303
467,863.484756749929
468,863.6778805506251
469,863.8770798436125
470,864.0822979112609
471,864.2934667864686
472,864.5105069644451
473,864.7333271442386
474,864.9618240023999
475,865.1958820010356
476,865.4353732323747
477,865.6801573018465
478,865.9300812514939
479,866.1849795253307
480,866.4446739780176
481,866.7089739280043
482,866.9776762560435
483,867.2505655497213
484,867.5274142944123
485,867.8079831109108
486,868.0920210399267
487,868.3792658736572
488,868.6694445346601
489,868.962273502218
490,869.2574592862641
491,869.554698948771
492,869.8536806722287
493,870.154084374375
494,870.4555823677106
495,870.7578400616546
496,871.0605167045771
497,871.3632661624229
498,871.6657377301852
499,871.9675769721433
500,872.2684265866116
501,872.5679272909723
502,872.8657187228738
503,873.1614403536722
504,873.4547324104963
505,873.7452368036611
506,874.0325980563734
507,874.3164642336659
508,874.5964878673315
509,874.8723268734615
510,875.1436454591084
511,875.4101150146015
512,875.671414988102
513,875.9272337390526
514,876.1772693672109
515,876.4212305139191
516,876.6588371321711
517,876.889821221987
518,877.1139275276378
519,877.3309141933894
520,877.540553374633
521,877.7426318015624
522,877.9369512929474
523,878.1233292180013
524,878.3015989047734
525,878.471609993802
526,878.6332287359173
527,878.7863382330873
528,878.9308386211703
529,879.0666471934665
530,879.1936984640937
531,879.3119441704198
532,879.4213532140433
533,879.5219115401413
534,879.6136219553695
535,879.6965038848545
536,879.7705930691155
537,879.8359412019728
538,879.8926155106886
539,879.940698279779
540,879.9802863201651
541,880.0114903855896
542,880.0344345384771
543,880.0492554677342
544,880.0561017614247
545,880.0551331378034
546,880.0465196387834
547,880.0304407904044
548,880.0070847351355
549,879.9766473408589
550,879.9393312912651
551,879.8953451622361
552,879.844902488643
553,879.7882208258577
554,879.7255208101478
555,879.6570252220264
556,879.5829580566016
557,879.5035436050202
558,879.4190055511481
559,879.3295660875806
560,879.2354450549099
561,879.1368591079972
562,879.0340209129133
563,878.9271383781706
564,878.8164139237916
565,878.7020437916016
566,878.5842173999687
567,878.4631167460468
568,878.3389158583384
569,878.2117803020468
570,878.0818667392448
571,877.949322545336
572,877.8142854826436
573,877.6768834313092
574,877.5372341771584
575,877.3954452558105
576,877.2516138520526
577,877.1058267533418
578,876.9581603561742
579,876.8086807239227
580,876.6574436945997
581,876.5044950369323
582,876.3498706532088
583,876.1935968274798
584,876.0356905177524
585,875.8761596906498
586,875.7150036967311
587,875.5522136843912
588,875.3877730501118
589,875.2216579227351
590,875.0538376793427
591,874.8842754901972
592,874.7129288900487
593,874.5397503729758
594,874.3646880078256
595,874.1876860712607
596,874.0086856954098
597,873.8276255271456
598,873.6444423960539
599,873.4590719881652
600,873.2714495225472
601,873.0815104279592
602,872.8891910169765
603,872.6944291552212
604,872.4971649234807
605,872.2973412705112
606,872.0949046542586
607,871.8898056691588
608,871.6819996571952
609,871.4714473005142
610,871.258115193583
611,871.0419763930324
612,870.8230109434425
613,870.6012063773733
614,870.3765581879107
615,870.1490702718959
616,869.9187553419779
617,869.6856353057749
618,869.449741610737
619,869.2111155536354
620,868.9698085538345
621,868.7258823896195
622,868.4794093969631
623,868.2304726302351
624,867.9791659844644
625,867.7255942787996
626,867.4698733008247
627,867.2121298113253
628,866.95250150896
629,866.6911369541045
630,866.4281954509786
631,866.1638468870611
632,865.898271528752
633,865.6316597722929
634,865.3642118491656
635,865.0961374855686
636,864.827655516064
637,864.5589934519724
638,864.2903870054637
639,864.0220795704846
640,863.754321661758
641,863.4873703132694
642,863.2214884380248
643,862.9569441513864
644,862.6940100607655
645,862.4329625247528
646,862.1740808848574
647,861.917646673004
648,861.6639427979114
649,861.4132527135031
650,861.1658595725768
651,860.9220453690747
652,860.6820900724784
653,860.4462707581167
654,860.2148607374378
655,859.9881286924731
656,859.766337818773
657,859.5497449811227
658,859.3385998864139
659,859.1331442780901
660,858.9336111564536
661,858.7402240287935
662,858.5531961928531
663,858.3727300566661
664,858.1990164972244
665,858.0322342598434
666,857.8725493996227
667,857.7201147661317
668,857.5750695323063
669,857.437538768407
670,857.3076330617555
671,857.1854481828512
672,857.0710647983283
673,856.9645482310422
674,856.8659482674154
675,856.7752990120936
676,856.6926187899946
677,856.6179100959206
678,856.5511595919457
679,856.4923381527284
680,856.4414009586488
681,856.3982876363119
682,856.3629224455749
683,856.335214512054
684,856.3150581040485
685,856.3023329528899
686,856.2969046157486
687,856.2986248799201
688,856.3073322076222
689,856.3228522204184
690,856.3449982224686
691,856.3735717618794
692,856.4083632295007
693,856.4491524945857
694,856.4957095767647
695,856.5477953536607
696,856.6051623031717
697,856.6675552789602
698,856.7347123171248
699,856.8063654715434
700,856.8822416751067
701,856.9620636240173
702,857.0455506823522
703,857.1324198040123
704,857.222386468966
705,857.3151656304286
706,857.4104726694775
707,857.5080243536063
708,857.6075397958004
709,857.7087414107405
710,857.811355864731
711,857.9151150159912
712,858.0197568420476
713,858.1250263511348
714,858.2306764746754
715,858.336468938029
716,858.4421751067792
717,858.5475768059252
718,858.6524671094378
719,858.7566510976745
720,858.8599465800808
721,858.9621847804809
722,859.0632109821994
723,859.1628851303142
724,859.2610823885444
725,859.357693648498
726,859.4526259891854
727,859.5458030848533
728,859.6371655593865
729,859.7266712858428
730,859.814295630086
731,859.9000316379161
732,859.9838901654658
733,860.0658999528737
734,860.1461076413303
735,860.2245777335547
736,860.3013924976531
737,860.3766518142465
738,860.450472966751
739,860.5229903747481
740,860.5943552704812
741,860.6647353186121
742,860.7343141794108
743,860.803291015519
744,860.8718799423899
745,860.9403094224729
746,861.0088216031761
747,861.0776715986568
748,861.1471267156737
749,861.2174656241551
750,861.2889774737099
751,861.3619609579129
752,861.4367233287005
753,861.5135793635757
754,861.5928502885683
755,861.6748626600978
756,861.7599472090446
757,861.8484376504914
758,861.9406694627552
759,862.036978639553
760,862.1377004194126
761,862.2431679967405
762,862.3537112192507
763,862.4696552767049
764,862.5913193861145
765,862.7190154786558
766,862.8530468935087
767,862.9937070836638
768,863.1412783385192
769,863.2960305279192
770,863.4582198722638
771,863.6280877434315
772,863.805859501421
773,863.9917433717526
774,864.1859293686974
775,864.388588269318
776,864.5998706431567
777,864.8199059422992
778,865.048801656458
779,865.2866425375457
780,865.5334898978708
781,865.7893809856292
782,866.0543284408716
783,866.3283198346239
784,866.6113172933603
785,866.903257210565
786,867.2040500466792
787,867.513580218326
788,867.8317060773037
789,868.1582599794236
790,868.4930484428929
791,868.8358523956748
792,869.1864275110569
793,869.544504630406
794,869.9097902717168
795,870.2819672221282
796,870.660695212198
797,871.0456116695067
798,871.4363325490791
799,871.8324532380074
800,872.2335495313106
801,872.6391786754895
802,873.0488804756325
803,873.4621784614943
804,873.8785811077331
805,874.2975831034043
806,874.7186666658473
807,875.1413028941988
808,875.5649531578013
809,875.9890705146697
810,876.413101154982
811,876.8364858643107
812,877.2586615010481
813,877.679062482183
814,878.0971222714034
815,878.5122748635047
816,878.923956259269
817,879.3316059252016
818,879.7346682326704
819,880.1325938710194
820,880.5248412291542
821,880.9108777399371
822,881.2901811816128
823,881.6622409305393
824,882.0265591598267
825,882.3826519790692
826,882.7300505110901
827,883.0683019023419
828,883.3969702642247
829,883.7156375431076
830,884.0239043173563
831,884.3213905202742
832,884.6077360885538
833,884.88260153652
834,885.1456684570766
835,885.3966399508008
836,885.6352409851189
837,885.8612186858887
838,886.0743425640344
839,886.274404680113
840,886.4612197498599
841,886.6346251938461
842,886.7944811343681
843,886.9406703425996
844,887.0730981389411
845,887.1916922494642
846,887.2964026212643
847,887.3872011993093
848,887.4640816669873
849,887.5270591521233
850,887.5761698998564
851,887.6114709135414
852,887.6330395647584
853,887.6409731735284
854,887.6353885597988
855,887.6164215671091
856,887.5842265591446
857,887.5389758897686
858,887.480859347173
859,887.4100835729267
860,887.3268714568039
861,887.2314615082713
862,887.1241072054804
863,887.0050763226362
864,886.8746502367445
865,886.7331232149082
866,886.5808016834542
867,886.4180034802413
868,886.2450570915768
869,886.0623008752904
870,885.8700822716405
871,885.668757003829
872,885.4586882700021
873,885.2402459287509
874,885.0138056802641
875,884.7797482453296
876,884.5384585442886
877,884.2903248778706
878,884.0357381116831
879,883.7750908660705
880,883.5087767131203
881,883.2371893827229
882,882.9607219797125
883,882.6797662142121
884,882.3947116473745
885,882.1059449547173
886,881.8138492091613
887,881.5188031856919
888,881.221180689387
889,880.9213499084732
890,880.6196727941109
891,880.3165044686466
892,880.012192664011
893,879.7070771917233
894,879.4014894456521
895,879.0957519383486
896,878.790177871477
897,878.4850707405926
898,878.1807239742897
899,877.877420607625
900,877.5754329896988
901,877.2750225252403
902,876.9764394499426
903,876.6799226391394
904,876.3856994492628
905,876.0939855913792
906,875.8049850359492
907,875.5188899478237
908,875.2358806503169
909,874.9561256169419
910,874.6797814890087
911,874.4069931168502
912,874.1378936221502
913,873.8726044788818
914,873.6112356107543
915,873.3538855036222
916,873.1006413318287
