frame_number,force
0,730.1303100000547
1,730.2167000736097
2,730.2986724916295
3,730.3724013698275
4,730.4351287136079
5,730.4854513955222
6,730.5234036886959
7,730.5503662901883
8,730.5688518547698
9,730.5822067115389
10,730.5942445445583
11,730.6088225600788
12,730.6294019440113
13,730.6586764286654
14,730.6983560964695
15,730.749140317804
16,730.8108404071254
17,730.8825708936744
18,730.9629328358668
19,731.0501380515925
20,731.1420483746072
21,731.2361355016195
22,731.3294085358393
23,731.4183853033231
24,731.4991767679857
25,731.5677153430776
26,731.6201086359839
27,731.6530576968888
28,731.664251264486
29,731.6526410055366
30,731.6185272597937
31,731.5634395746666
32,731.4898547779052
33,731.4008266272944
34,731.2996045868604
35,731.1893153836594
36,731.0727730655973
37,730.9524562414496
38,730.8306443798481
39,730.7096598179094
40,730.5921369088045
41,730.4812363178099
42,730.3807354385439
43,730.2949508467736
44,730.2284812927504
45,730.1857957160374
46,730.1707261933077
47,730.1859531791853
48,730.232578110096
49,730.3098578597255
50,730.4151325044716
51,730.5439330037434
52,730.6902286566974
53,730.8467724465909
54,731.005519245363
55,731.1581093584389
56,731.2964093261935
57,731.4130833772214
58,731.5021499879409
59,731.5594717968319
60,731.5831311821929
61,731.5736470258544
62,731.5339870639095
63,731.4693361842199
64,731.3866062393106
65,731.2937198682374
66,731.1987638517762
67,731.1091620565543
68,731.031021850975
69,730.9687443125234
70,730.924894635043
71,730.9002616991905
72,730.8940235316612
73,730.9039683239575
74,730.9267649648256
75,730.958296830218
76,730.994055214549
77,731.0295545398943
78,731.0607122597323
79,731.0841450823061
80,731.0973585737113
81,731.0988357585755
82,731.0880569336479
83,731.0654952329182
84,731.0326117306734
85,730.9918286832566
86,730.9464305272797
87,730.9003546987522
88,730.8578713735421
89,730.8231828439326
90,730.7999880170735
91,730.7910631127935
92,730.7979161024626
93,730.8205736448078
94,730.8575353008705
95,730.905881741655
96,730.9614907134882
97,731.0193290974352
98,731.0738290760827
99,731.119370236485
100,731.150859280288
101,731.1643482729351
102,731.1575885548054
103,731.1303960158554
104,731.0847200696226
105,731.0243743596996
106,730.9544830699165
107,730.8807763962917
108,730.8088961968423
109,730.7438430976306
110,730.689626395398
111,730.6491000234803
112,730.6239201066999
113,730.6145602432341
114,730.6203513912886
115,730.6395426146041
116,730.6693943143777
117,730.7063216937344
118,730.7461048471354
119,730.7841703001673
120,730.8159289863775
121,730.8371343334976
122,730.8442101797468
123,730.834499132748
124,730.8063994259006
125,730.7593872966598
126,730.6939486581934
127,730.6114516847671
128,730.5139825342426
129,730.4041603177914
130,730.2849525131264
131,730.1595147598316
132,730.0310708827066
133,729.9028379607129
134,729.7779952489286
135,729.6596900809045
136,729.5510598459589
137,729.4552310612461
138,729.3752489969579
139,729.313900270408
140,729.2734125216105
141,729.2550504791753
142,729.2586784520648
143,729.2824082705231
144,729.3224625898314
145,729.3733364140148
146,729.4282588385878
147,729.4798874754408
148,729.5211317651587
149,729.5459891516493
150,729.5502761201282
151,729.5321446249594
152,729.4923025823861
153,729.43390850934
154,729.362173931067
155,729.2837602729094
156,729.2060794964056
157,729.1365959711636
158,729.0821961937368
159,729.0486640515535
160,729.0402818646479
161,729.0595671867868
162,729.1071462640039
163,729.1817567119733
164,729.2803681005373
165,729.3984119441045
166,729.5301184561803
167,729.6689607073824
168,729.8082020520791
169,729.9415210613739
170,730.0636476820713
171,730.170903585924
172,730.2615288152986
173,730.3357136122894
174,730.3953271292738
175,730.4434071874907
176,730.4835147873657
177,730.5190598469744
178,730.5526905230105
179,730.5858252995907
180,730.6183930560934
181,730.6488199005952
182,730.6742639781089
183,730.6910655712256
184,730.6953547861008
185,730.6837320588496
186,730.6539057256529
187,730.6051582998143
188,730.5385420369214
189,730.4567697361134
190,730.3638392617357
191,730.2644822113056
192,730.1635477653091
193,730.0654273315815
194,729.9736056599696
195,729.8903941065499
196,729.8168598385462
197,729.7529217497795
198,729.6975619184365
199,729.649104498919
200,729.6055217357085
201,729.5647256147573
202,729.5248031896243
203,729.4841692634639
204,729.4416404686298
205,729.3964605741652
206,729.3483108140017
207,729.2973226452641
208,729.2440866520762
209,729.1896297881444
210,729.1353224418582
211,729.0826919159147
212,729.0331667774515
213,728.9878332411866
214,728.9473048584946
215,728.9117702147068
216,728.8812191863491
217,728.8557942135093
218,728.8361750685793
219,728.8238812860963
220,728.8213823667455
221,728.8319531227727
222,728.8592817361208
223,728.9069019647656
224,728.977559421619
225,729.0726272032393
226,729.1916621526332
227,729.3321575714356
228,729.4895239388284
229,729.6573217689692
230,729.8277591790156
231,729.9924289927653
232,730.1432040775313
233,730.2731650757643
234,730.3774225721197
235,730.4537139567379
236,730.5026894689317
237,730.5278414236789
238,730.5350725389085
239,730.5319440908411
240,730.5266936521394
241,730.5271596781978
242,730.5397758862654
243,730.5687842102526
244,730.6157674288324
245,730.6795429577529
246,730.7564042965929
247,730.8406559475058
248,730.9253669287096
249,731.0032618670068
250,731.0676594883611
251,731.1133450275933
252,731.1372422036424
253,731.1387664941283
254,731.1198079303184
255,731.0843800499467
256,731.0380373959924
257,730.9871849627235
258,730.9383875063492
259,730.897754139886
260,730.8704391890785
261,730.860274266197
262,730.869536845317
263,730.8988651978308
264,730.9473323015878
265,731.0126766889199
266,731.0916574072113
267,731.18047126599
268,731.275162817213
269,731.3719727339961
270,731.4675910692496
271,731.559295260646
272,731.6449645006797
273,731.7229835166239
274,731.7920805098998
275,731.8511727051565
276,731.8992944693091
277,731.9356399770622
278,731.9596838095507
279,731.9712981101018
280,731.9707950821196
281,731.9588737258937
282,731.9365014754968
283,731.9047865057413
284,731.864890047822
285,731.8180028865197
286,731.7653815072335
287,731.708415141494
288,731.6486798815359
289,731.5879365241897
290,731.528047773473
291,731.470819766968
292,731.4177968905748
293,731.3700472662738
294,731.3279739116471
295,731.2911869005028
296,731.2584790786569
297,731.2279482166671
298,731.1972843672354
299,731.1641937532061
300,731.1268833500914
301,731.0845087179016
302,731.0374950163662
303,730.9876609593305
304,730.938098645005
305,730.8927999683738
306,730.8560772898351
307,730.8318782938567
308,730.8231175745534
309,730.8311441708526
310,730.8554455560121
311,730.8936470007662
312,730.9417985067682
313,730.9948756804263
314,731.0473913366853
315,731.094033791713
316,731.1302893576063
317,731.1530226453978
318,731.1609601049481
319,731.154983325077
320,731.1381348238896
321,731.1152857060667
322,731.0924936169503
323,731.0761535025224
324,731.0720806296918
325,731.0846627004386
326,731.1161941230819
327,731.166474812931
328,731.2327218260965
329,731.3098003796077
330,731.3907275057409
331,731.4673511179333
332,731.531090720167
333,731.5736580703195
334,731.5877311287666
335,731.567585171457
336,731.5096654385951
337,731.4130373274159
338,731.2796216035579
339,731.114143290679
340,730.923780155405
341,730.7175541860804
342,730.5055437630242
343,730.2980057460077
344,730.1045001814318
345,729.9331133979299
346,729.789865080814
347,729.6783500279306
348,729.5996187899291
349,729.5522638389602
350,729.5326591854714
351,729.5353072001378
352,729.5532732889083
353,729.5787139130271
354,729.6035030452032
355,729.6199347375917
356,729.6214352050887
357,729.6031728373157
358,729.5624413489393
359,729.4987360975
360,729.4135264866427
361,729.3098008721171
362,729.1915018580748
363,729.062981996166
364,728.9285887337919
365,728.7924281623634
366,728.6582800793902
367,728.5295800862465
368,728.4093731891845
369,728.3001787509346
370,728.2037726064718
371,728.1209588202177
372,728.051434424688
373,727.9938269965868
374,727.9459228081076
375,727.9050374420821
376,727.8684409433893
377,727.8337488704353
378,727.7992210541581
379,727.7639465357088
380,727.7279129590792
381,727.6919593693183
382,727.6576110978492
383,727.626811471986
384,727.6015921573114
385,727.583741240655
386,727.5745267727988
387,727.5745215682313
388,727.5835578062699
389,727.6008138795224
390,727.625004543808
391,727.6546237561109
392,727.6881873283096
393,727.7244332174118
394,727.7624488507856
395,727.801705319251
396,727.8419957874914
397,727.8833026873876
398,727.9256410427683
399,727.9689241381951
400,728.0128712174063
401,728.056949654318
402,728.1003442738155
403,728.141970063048
404,728.1805552664991
405,728.2148001415552
406,728.2435855138732
407,728.2661917938142
408,728.2824887993022
409,728.293056710898
410,728.29920671171
411,728.3028976818388
412,728.306579924645
413,728.3130114960062
414,728.3250796350812
415,728.345639558219
416,728.377374821705
417,728.4226821867211
418,728.483574991613
419,728.5615825192514
420,728.6576158631296
421,728.7717946819616
422,728.9032819276866
423,729.0502136308515
424,729.2097934833863
425,729.3785513391691
426,729.5526921698022
427,729.7284385243689
428,729.9023035424444
429,730.0712847348108
430,730.2329953983817
431,730.3857406096079
432,730.5285232189538
433,730.660959530007
434,730.7831016676557
435,730.8951944517171
436,730.9974265423768
437,731.0897553571083
438,731.1718746487269
439,731.2433465119317
440,731.3038578148446
441,731.3535143724067
442,731.3930690048525
443,731.4239978773824
444,731.4483922400292
445,731.4687002725478
446,731.4874073400056
447,731.5067606117198
448,731.528613871799
449,731.55440136398
450,731.585186761755
451,731.6217146193
452,731.6644186816854
453,731.71338333971
454,731.7682794711103
455,731.8282950790249
456,731.892073001811
457,731.9576758306945
458,732.0226174722021
459,732.0840009504543
460,732.1387673440497
461,732.1840144654259
462,732.217321412114
463,732.2370246340695
464,732.2424127444945
465,732.2338234855827
466,732.2126379210526
467,732.1811772497389
468,732.1425101771733
469,732.1001736591655
470,732.057812083673
471,732.0187595377394
472,731.9856192903027
473,731.9599185624858
474,731.9419201827549
475,731.9306469925074
476,731.9241244770589
477,731.9197896774602
478,731.9149712577887
479,731.9073324438974
480,731.8951899923007
481,731.8776703631124
482,731.854720143406
483,731.8270246791595
484,731.795885553813
485,731.7630728437757
486,731.7306391362922
487,731.7006855554667
488,731.675097603101
489,731.6552966577184
490,731.6420638771539
491,731.6354794276571
492,731.6349874580199
493,731.6395667247066
494,731.6479748240174
495,731.6590355418272
496,731.6719373731268
497,731.6864987693174
498,731.7033401444032
499,731.7239046848061
500,731.7503047701806
501,731.7850255284266
502,731.8305587896563
503,731.8890495742255
504,731.9620164735279
505,732.0501674661336
506,732.1532897334082
507,732.2701721897229
508,732.3985376433837
509,732.5350003725526
510,732.675096910784
511,732.8134493223166
512,732.9441001098628
513,733.0610006026108
514,733.1585683609118
515,733.2322025114051
516,733.2786752647186
517,733.2963719402745
518,733.2853914818945
519,733.2475310379491
520,733.1861705608543
521,733.1060639038233
522,733.0130450748883
523,732.9136695471987
524,732.8148155159187
525,732.7232621644445
526,732.6452561991318
527,732.5860934034745
528,732.5497713830854
529,732.5387783577672
530,732.5540482621103
531,732.5950508850624
532,732.6599347015677
533,732.7456286916953
534,732.847846851592
535,732.9610109574678
536,733.0781782751881
537,733.191093981982
538,733.2904712482152
539,733.3665519056821
540,733.4099349120065
541,733.4125847973511
542,733.368861570714
543,733.2763740231719
544,733.1364729777915
545,732.9542736739754
546,732.7382034864816
547,732.4991664426481
548,732.2494633730621
549,732.0016094038426
550,731.7671758213647
551,731.5557674056896
552,731.3742316401976
553,731.2261820808612
554,731.1118958743991
555,731.0286014251327
556,730.9711111033212
557,730.9327015565298
558,730.9061182714365
559,730.8845733729445
560,730.8626033272069
561,730.8366651827812
562,730.805396177252
563,730.7695350436879
564,730.731565426428
565,730.6951659518134
566,730.6645499647624
567,730.6437737562748
568,730.6360904808878
569,730.6434237083574
570,730.6660271435786
571,730.7023786189768
572,730.7493181035583
573,730.8023855317734
574,730.8562662685421
575,730.9052349711822
576,730.9435135536664
577,730.9655142963381
578,730.9659972702713
579,730.9402067456086
580,730.8840535954497
581,730.794381591416
582,730.6693039517439
583,730.50854367472
584,730.3136861399078
585,730.0882673190423
586,729.8376596045482
587,729.5687578455338
588,729.2895020124072
589,729.008298016428
590,728.7334116844044
591,728.4724102700355
592,728.2317099870877
593,728.0162602997113
594,727.829367539683
595,727.6726443064255
596,727.5460691587762
597,727.4481431104626
598,727.3761242724888
599,727.3263120818349
600,727.2943518171119
601,727.2755432299945
602,727.2651492291719
603,727.2586965028967
604,727.2522453895683
605,727.2425971596099
606,727.2274082302316
607,727.2051904348953
608,727.1751978515201
609,727.1372330972841
610,727.0914280604821
611,727.0380431971593
612,726.9772983314357
613,726.9092343492907
614,726.8336240863434
615,726.7499780494608
616,726.6576947296555
617,726.5563729997416
618,726.4462419572657
619,726.3285966486117
620,726.206094274152
621,726.0827887193659
622,725.9638498371688
623,725.854994335582
624,725.7617209931241
625,725.6884846392526
626,725.6379600205804
627,725.61053756326
628,725.6041570651846
629,725.6145260674884
630,725.6356977056727
631,725.6609142970497
632,725.683574830904
633,725.698167558545
634,725.7010232155992
635,725.690783595753
636,725.6685347889475
637,725.6376095225131
638,725.6031020386738
639,725.5711596296869
640,725.548132971517
641,725.5396911092062
642,725.5500221473287
643,725.5812325029085
644,725.6330295518856
645,725.7027338689508
646,725.7856219283578
647,725.8755546874311
648,725.9658100908212
649,726.0500082058128
650,726.1229962037053
651,726.1815587106234
652,726.2248497583058
653,726.2544982711081
654,726.2743956631681
655,726.2902142111209
656,726.3087280195288
657,726.3370204668124
658,726.3816661460564
659,726.4479744250824
660,726.5393777554924
661,726.6570347487642
662,726.7996867081555
663,726.9637621848303
664,727.14368987977
665,727.3323731141014
666,727.5217909117453
667,727.7036949733266
668,727.8703517737692
669,728.0152481721669
670,728.133668067798
671,728.2230708102182
672,728.2832433146449
673,728.3162331313089
674,728.3260909213755
675,728.3184616904889
676,728.3000668149535
677,728.2781177064376
678,728.2597077267263
679,728.251243208217
680,728.2579804985418
681,728.2837187242704
682,728.3306632492358
683,728.3994417881629
684,728.4892377337973
685,728.5980030564483
686,728.7227156718818
687,728.8596464170868
688,729.0046039069338
689,729.1531416248661
690,729.3007397572463
691,729.4429954379591
692,729.5758477121949
693,729.6958297991386
694,729.8003062273234
695,729.8876390762143
696,729.9572432767669
697,730.0095274357807
698,730.045751816332
699,730.0678484136262
700,730.0782411065576
701,730.0796929404049
702,730.0751974130388
703,730.0679128815872
704,730.0611150685734
705,730.0581281202983
706,730.0622031950334
707,730.0763438079348
708,730.1031130625457
709,730.1444764379681
710,730.2017218304101
711,730.2754639477542
712,730.3657036772026
713,730.4718933080688
714,730.592963120056
715,730.7272884113252
716,730.872605406023
717,731.0259094508096
718,731.183385964671
719,731.3404269497759
720,731.4917625739331
721,731.6316969193849
722,731.7544129566896
723,731.8543211832948
724,731.9264433147046
725,731.9668171992801
726,731.9728900014751
727,731.9438585644602
728,731.8809185045359
729,731.7873789001018
730,731.6685914194032
731,731.5316581215118
732,731.3849259084467
733,731.2373194004612
734,731.0975860898368
735,730.9735317742218
736,730.8713207221424
737,730.794909464045
738,730.7456786040746
739,730.7223208957654
740,730.7210255221605
741,730.7359572714083
742,730.7599688365543
743,730.785430960585
744,730.8050493166434
745,730.8125639449885
746,730.8032715085141
747,730.7743440412794
748,730.7249333361099
749,730.6560605541191
750,730.5703132180097
751,730.4714127115724
752,730.3637548824869
753,730.2520249593292
754,730.1409291779045
755,730.0350058417656
756,729.9384387425342
757,729.8548242408875
758,729.7869154264979
759,729.7364299020797
760,729.7040159914977
761,729.6894157055006
762,729.6917779015188
763,729.7100154231407
764,729.743093503261
765,729.7901749620147
766,729.850607355195
767,729.9237985062306
768,730.0090716559166
769,730.1055979070541
770,730.212461227953
771,730.3288398821716
772,730.4542293937044
773,730.5886172066193
774,730.7325431570368
775,730.8870124887565
776,731.0532534541129
777,731.2323420097617
778,731.4247614002788
779,731.6300069424651
780,731.8463574138524
781,732.0709023737486
782,732.2998518357984
783,732.529082859793
784,732.7548134347176
785,732.9742514721581
786,733.1860639349474
787,733.3905565425152
788,733.5895278226212
789,733.7858280103231
790,733.9827012915991
791,734.1830304310906
792,734.3886332311671
793,734.5997538916918
794,734.8148375274202
795,735.0306030746713
796,735.2423797754585
797,735.444651048651
798,735.6317327343911
799,735.7984920437776
800,735.9410079485809
801,736.0570928689008
802,736.1466214776774
803,736.2116299111111
804,736.2561679041439
805,736.2859197574702
806,736.3076466321596
807,736.3285237399896
808,736.3554495470302
809,736.394398405271
810,736.4498740638435
811,736.5244965805209
812,736.6187278507489
813,736.7307287135749
814,736.8563508472429
815,736.9892888580748
816,737.1214321391582
817,737.2434457978765
818,737.3455740873796
819,737.4186122969513
820,737.4549482379934
821,737.4495407735195
822,737.4006900575365
823,737.3104706683755
824,737.1847398697786
825,737.0326830732276
826,736.8659087598841
827,736.6971639224207
828,736.5388151088999
829,736.4013092137313
830,736.291853653872
831,736.2135191782066
832,736.1648912109204
833,736.1403092128606
834,736.1306477908141
835,736.1245093128244
836,736.109634676237
837,736.0743176516718
838,736.0086286172382
839,735.9053051063557
840,735.7602392827215
841,735.5725688562733
842,735.3444363298048
843,735.0805102953199
844,734.787367072881
845,734.4728239229511
846,734.1453004013484
847,733.8132583259434
848,733.4847379916911
849,733.1669834612526
850,732.866139347614
851,732.5869979923384
852,732.3327771722998
853,732.1049260647135
854,731.9029942504566
855,731.7246319727037
856,731.5657883480973
857,731.4211321370425
858,731.2846654001028
859,731.1504626777563
860,731.0134454823273
861,730.8700815160103
862,730.7188890529219
863,730.5606466947423
864,730.3982557040559
865,730.2362615188513
866,730.0801028498014
867,729.9352121409366
868,729.8061222087226
869,729.6957268877702
870,729.604807914734
871,729.531894860355
872,729.4734729961708
873,729.4244928283839
874,729.3790798186982
875,729.3313185237665
876,729.2759969702751
877,729.2092217764596
878,729.1288275277816
879,729.0345089035999
880,728.9276332214592
881,728.8107659274986
882,728.6870354072115
883,728.5595185661856
884,728.4308116514613
885,728.3028771961451
886,728.1771670964224
887,728.0549458231583
888,727.937691233587
889,727.8274363677164
890,727.7269368503289
891,727.6396075204498
892,727.5692531345516
893,727.5196824212516
894,727.4943082232627
895,727.4958012779372
896,727.5258154104579
897,727.5847716407892
898,727.6716907996903
899,727.7840906330279
900,727.9179927725896
901,728.0680902856668
902,728.2280902652436
903,728.3911837925097
904,728.5505526147255
905,728.6998246720917
906,728.833420496716
907,728.9467601629456
908,729.0363204068045
909,729.0995541617419
910,729.1347176990331
911,729.1406862724675
912,729.1168523680301
913,729.0631723801048
914,728.9803697712931
915,728.8702433671737
916,728.7359869097511
917,728.5824124580586
