acceleration,velocity,displacement
0.07556774043014648,0.0,0.0
0.07108608984808362,7.332691513911505e-05,3.6663457569557526e-08
0.06675598895761758,0.00014224795454196567,1.444508924100979e-07
0.062711987843467,0.00020698194294250795,3.190658411523347e-07
0.059056887447623746,0.00026786638058805333,5.564900029176154e-07
0.05585136088971295,0.0003253205047567217,8.530834455900029e-07
0.05310959100139213,0.00037980098070227423,1.205644188319501e-06
0.05080159354563707,0.0004317565729757888,1.6114229651585325e-06
0.04886163150908184,0.0004815881855031483,2.068095344398001e-06
0.04720104737408486,0.0005296195249447316,2.573699199621941e-06
0.04572323253861516,0.0005760816649010817,3.1265497945448476e-06
0.04433826119299325,0.0006211124117668858,3.725146832878831e-06
0.042974863921500406,0.0006647689743241327,4.36808752592434e-06
0.04158798442278065,0.0007070503984962733,5.053997212334543e-06
0.04016112782772066,0.0007479249546215239,5.781484888893442e-06
0.03870375961738717,0.0007873573983440778,6.549126065376242e-06
0.0372447968888234,0.0008253316765971831,7.355470602846873e-06
0.03582365057542936,0.0008618659003293095,8.199069391310119e-06
0.034480440214319896,0.0008970179457241841,9.078511314336866e-06
0.0332470050580277,0.0009308816683603579,9.992461121379137e-06
0.03214016754216012,0.0009635752546604517,1.093968958288954e-05
0.031158340880875032,0.0009952245088719694,1.1919089464655752e-05
0.030282004727313874,0.0010259446816760639,1.2929674059929768e-05
0.029477808443061405,0.0010558245882612515,1.3970558694898425e-05
0.028705242479865042,0.0010849161137227146,1.5040929045890408e-05
0.02792424980061605,0.0011132308598629551,1.6140002532683242e-05
0.027102056532301355,0.0011407440130294139,1.7266989969129425e-05
0.02621788880225142,0.0011674039856966903,1.842106396849248e-05
0.025264973673484948,0.0011931454169345585,1.9601338669808104e-05
0.024250028526442848,0.0012179029180345224,2.0806862837292643e-05
0.023190979455960763,0.0012416234220257241,2.2036626007322765e-05
0.022113740028730202,0.0012642757817680696,2.328957560921966e-05
0.0210486741129664,0.0012858569888389178,2.4564641994523156e-05
0.020027150075982245,0.0013063949009333921,2.586076793940931e-05
0.019078489716411844,0.0013259477208295892,2.7176939250290803e-05
0.01822754401656988,0.00134460073769608,2.851221347955364e-05
0.017493043341401546,0.0013624610313750657,2.9865744364089213e-05
0.016886815401408444,0.0013796509607464707,3.123680036014998e-05
0.0164139384805632,0.0013963013376874565,3.262477650936694e-05
0.016073851878791214,0.0014125452328671336,3.402919979464424e-05
0.015862349336673808,0.0014285133334748662,3.5449729077815236e-05
0.015774248773925137,0.0014443316325301657,3.6886151560817755e-05
0.015806432560593858,0.0014601219731974252,3.833837836368155e-05
0.015960884633706606,0.0014760056317945755,3.980644216617755e-05
0.016247203456184262,0.001492109675839521,4.12904998199946e-05
0.01668389498177996,0.0015085752250585031,4.279084227044361e-05
0.017297806245611058,0.0015255660756721987,4.4307912920808964e-05
0.01812144542357708,0.0015432757015067927,4.584233380939846e-05
0.019188457392603827,0.0015619306529148832,4.7394936986609294e-05
0.020527967356781935,0.001581788865289576,4.8966796745711526e-05
0.022158793962744738,0.0016031322459493394,5.0559257301330986e-05
0.02408464818825075,0.0016262539670248372,5.2173950407818075e-05
0.026291295136513713,0.0016514419386872193,5.3812798360674105e-05
0.02874620847706011,0.0016789606904940063,5.547799967526472e-05
0.03140064219293427,0.0017090341158290036,5.7171997078426224e-05
0.03419356323145242,0.001741831218541197,5.8897429745611325e-05
0.037056684860228506,0.0017774563425870375,6.065707352617544e-05
0.039919883643630916,0.0018159446268389671,6.245377401088844e-05
0.04271648318427182,0.0018572628102529185,6.429037772943438e-05
0.04538811827983251,0.0019013151109849708,6.616966669005333e-05
0.04788898821978351,0.0019479536642347788,6.80943010776632e-05
0.05018920872180351,0.0019969927627055723,7.006677429113337e-05
0.052276828494243865,0.002048225781313596,7.208938356314295e-05
0.054158101954848804,0.0021014432465381425,7.416421807706882e-05
0.0558558521559666,0.0021564502235935502,7.629316481213467e-05
0.05740604521371487,0.0022130811722783908,7.847793051007064e-05
0.058852831817789324,0.0022712106107941428,8.07200764016069e-05
0.060242341878769805,0.0023307581976424224,8.302106080582518e-05
0.061615710685530276,0.0023916872239245724,8.538228351660869e-05
0.06300225886816775,0.0024539962087014216,8.780512523292168e-05
0.06441413798875732,0.002517704407129884,9.029097554083734e-05
0.0658436892467657,0.0025828333207476455,9.284124440477611e-05
0.0672641755397178,0.002649387253140887,9.545735469172038e-05
0.06863372215251316,0.0027173362019870025,9.814071641928432e-05
0.06990158769848766,0.002786603856912503,0.00010089268644873407
0.071015506158023,0.0028570624038407586,0.00010371451957911071
0.0719288604403448,0.0029285345871399426,0.00010660731807460106
0.07260674747464954,0.00300080239109744,0.00010957198656371975
0.07303031704492058,0.003073620923357225,0.00011260919822094708
0.07319896329251865,0.0031467355635259446,0.00011571937646438867
0.0731301450625592,0.0032199001177034836,0.00011890269430500338
0.07285700729688786,0.0032928936938832073,0.00012215909121079672
0.07242447841154143,0.0033655344367374217,0.00012548830527610703
0.0718847506127677,0.0034376890512495765,0.00012888991702010054
0.07129281539066291,0.0035092778342512916,0.00013236340046285098
0.07070230065229331,0.0035802753922727698,0.000135908177076113
0.07016166365082507,0.0036507073744243288,0.00013952366845946157
0.06971090409886968,0.003720643658299176,0.00014320934397582332
0.06937904409534938,0.0037901886323962854,0.00014696476012117105
0.06918242862647912,0.0038594693687571996,0.0001507895891217478
0.06912362811807463,0.0039286223971294765,0.00015468363500469113
0.06919069822843271,0.00399777956030273,0.00015864683598340723
0.06935675994219391,0.004067053289388044,0.0001626792524082526
0.0695800619395631,0.004136521700328922,0.00016678103990311108
0.06980477598074228,0.004206214119289075,0.00017095240781292008
0.06996283759780188,0.004276097926078347,0.0001751935638356038
0.06997721641571479,0.004346067953085106,0.00017950464677518553
0.06976695588619858,0.0044159400392360625,0.0001838856507713461
0.06925402983517784,0.0044854505320967505,0.00018833634605701252
0.06837158121727951,0.004554263337622979,0.00019285620299187237
0.06707259078908338,0.0046219854236261605,0.00019744432737249694
0.0653375734139681,0.004688190505727686,0.00020209941533717385
0.06317970859225584,0.004752449146730798,0.0002068197351634031
0.06064617602927495,0.004814362089041564,0.00021160314078128928
0.057815365258680494,0.004873592859685542,0.00021644711825565284
0.05479056624788703,0.004929895825438826,0.00022134886259821503
0.05169129183929905,0.004983136754482419,0.00022630537888817566
0.04864355435787702,0.005033304177581007,0.00023131359935420738
0.04577040886388285,0.0050805111591918865,0.00023637050702259382
0.0431838669688743,0.005124988297108265,0.0002414732567507439
0.04097873845748737,0.005167069599821446,0.00024661928569920876
0.039228196059488206,0.0052071730670799335,0.00025180640703265946
0.03798036506468259,0.0052457773476420185,0.00025703288224002043
0.03725539566852434,0.005283395228008622,0.00026229746852784574
0.03704311955365343,0.005320544485619711,0.0002675994383846599
0.03730201432583623,0.005357717052559456,0.0002729385691537495
0.037960451126598065,0.005395348285285673,0.00027831510182267205
0.03892104814103601,0.00543378903491949,0.00028372967048277464
0.040068476315871925,0.005473283797147944,0.00028918320689880835
0.041280343052493305,0.005513958206832126,0.0002946768279007984
0.04243996131018609,0.005555818359013466,0.0003002117161837212
0.04344912361142213,0.00559876290147427,0.0003057890068139651
0.044238694343891445,0.0056426068104519275,0.00031140969166992816
0.044775109600298554,0.005687113712424022,0.00031707455193136615
0.045061718937992525,0.005732032126693168,0.00032278412485092474
0.04513499999098124,0.005777130486157655,0.00032853870615735017
0.04505659938046835,0.00582222628584338,0.00033433838454335066
0.04490267545973973,0.005867205923263484,0.0003401831006479041
0.044752208300906704,0.005912033365143807,0.00034607272029210775
0.04467597943503089,0.005956747459011776,0.00035200711070418556
0.04472781784568974,0.006001449357652136,0.00035798620911251753
0.0449392759303978,0.00604628290454018,0.0003640100752436137
0.045318116530416466,0.006091411600770587,0.0003700789224962691
0.04585019823709129,0.006136995758154341,0.0003761931261757315
0.04650387451876708,0.00618317279453227,0.0003823532104520748
0.047235839854945255,0.006230042651719126,0.0003885598181752005
0.04799730868013664,0.0062776592259866665,0.00039481366911405343
0.04873956195861608,0.006326027661306043,0.0004011155125576998
0.04941828798858413,0.006375106586279643,0.0004074660796814926
0.04999652678619201,0.006424813993667031,0.00041386603997146595
0.050446213716486346,0.006475035363918371,0.00042031596465025864
0.05074851326070644,0.006525632727406967,0.0004268162986959213
0.050893467868742284,0.006576453717971691,0.00043336734191861065
0.050879635036775075,0.0066273402694244496,0.00043996923891230873
0.05071406192280241,0.006678137117904238,0.0004466219776059731
0.05041238438028891,0.006728700341055784,0.0004533253963354531
0.04999852628594246,0.0067789057963889,0.0004600791994041754
0.049503653679392835,0.006828656886371568,0.00046688298074555563
0.048964494746350146,0.0068778909605844395,0.00047373625466903363
0.048421415066207535,0.006926583915490718,0.0004806384921070712
0.047916475328577304,0.00697475286068811,0.00048758916049516064
0.04749128551671447,0.007022456741110756,0.00049458776529606
0.047184236622436725,0.007069794502180332,0.0005016338909177055
0.04702686770411594,0.007116900054343608,0.0005087272381959674
0.047039578934185394,0.007163933277662759,0.0005158676548619707
0.04722736984070502,0.007211066752050205,0.0005230551548768272
0.04757660066489219,0.007258468737303003,0.0005302899226215038
0.04805382698563607,0.0073062839511282675,0.0005375722989657194
0.04860742914510113,0.007354614579193636,0.0005449027482308804
0.04917210849107756,0.007403504348011725,0.0005522818076944831
0.04967567272611369,0.007452928238620321,0.0005597100239877991
0.050047191141793075,0.007502789670554274,0.0005671878829423864
0.05022557746976904,0.007552926054860055,0.0005747157408050936
0.05016776435594081,0.007603122725772909,0.0005822937651954101
0.04985574427425598,0.007653134480088007,0.0005899218937983405
0.04930182671580194,0.007702713265583036,0.0005975998176711761
0.048551440835603206,0.007751639899358739,0.000605326994253647
0.047682732010868575,0.007799756985781975,0.0006131026926962174
0.04680229048269747,0.007846999497028757,0.0006209260709376227
0.04603678408017526,0.007893419034310194,0.0006287962802032921
0.04552094404261953,0.007939197898371591,0.000636712588669633
0.04538305505508272,0.007984649897920443,0.000644674512567779
0.04572969015783667,0.008030206270526903,0.0006526819406520027
0.04663182787132664,0.008076387029541485,0.0006607352373020369
0.0481145902200525,0.008123760238587175,0.0006688353109361013
0.050152537481986545,0.008172893802438195,0.000676983637956614
0.05267167927394972,0.008224305910816163,0.0006851822378132412
0.05555812790048375,0.00827842081440338,0.000693433601175851
0.05867186690132994,0.008335535811804287,0.0007017405794889548
0.06186295481167109,0.008395803222660788,0.0007101062490061874
0.06498715263730173,0.008459228276385273,0.0007185337647557104
0.06791859067868648,0.008525681148043267,0.0007270262194679247
0.07055832414367312,0.008594919605454446,0.0007355865198446736
0.07283885306945072,0.008666618194061008,0.0007442172887444313
0.07472540563981184,0.008740400323415639,0.0007529207980031696
0.07621490013182634,0.008815870476301458,0.0007616989334030282
0.07733325609226968,0.008892644554413506,0.0007705531909183856
0.0781314309649123,0.008970376897942098,0.0007794847016445634
0.07868037629937598,0.009048782801574243,0.0007884942814943216
0.07906510962255102,0.009127655544535207,0.0007975825006673763
0.07937828116311686,0.009206877239928041,0.0008067497670596079
0.07971374702103116,0.009286423254020116,0.000815996417306582
0.08016046836993888,0.0093663603617156,0.0008253228091144499
0.08079669531988178,0.009446838943560512,0.000834729408767088
0.08168435538250493,0.009528079468911705,0.0008442168679733241
0.08286399433132018,0.009610353643768617,0.0008537860845296643
0.08435105319174177,0.009693961167530147,0.0008634382419353137
0.08613422913033734,0.009779203808691187,0.0008731748244234244
0.08817624443821445,0.009866359045475464,0.0008829976058505077
0.09041697031014705,0.009955655652849645,0.0008929086131996703
0.09277866112843901,0.010047253468568938,0.0009029100677603796
0.09517280150001095,0.010141229199883164,0.0009130043090946056
0.09750766029515637,0.010237569430780748,0.0009231937084099376
0.09969540299838982,0.010336170962427522,0.0009334805786065417
0.10165783114000787,0.01043684757949672,0.0009438670878775038
0.10333036120909248,0.010539341675671271,0.0009543551825050878
0.10466432911783242,0.010643339020834733,0.0009649465228533408
0.1056278789899864,0.010748485124888643,0.0009756424349262025
0.10620566778116891,0.01085440189827422,0.000986443878437784
0.10639761059439327,0.010960703537462,0.000997351431155652
0.10621698140222666,0.01106701083346031,0.0010083652883411131
0.10568828693078658,0.011172963467626817,0.0010194852754916567
0.10484533374679035,0.011278230277965606,0.001030710872364453
0.10372972513700986,0.011382517807407505,0.0010420412464071395
0.10238964120586976,0.011485577490578946,0.0010534752940561329
0.1008783469960527,0.011587211484679907,0.0010650116885437622
0.09925177844626956,0.011687276547401069,0.0010766489325598027
0.09756492654046525,0.011785684899894436,0.0010883854132834505
0.09586729808038033,0.01188240101220486,0.0011002194562395001
0.09419809657811656,0.011977433709534108,0.0011121493736003696
0.09258185418135616,0.012070823684913844,0.0011241735022975935
0.09102515890351377,0.012162627191456278,0.0011362902277357787
0.08951494765682123,0.012252897244736445,0.001148497989953875
0.08801868242099233,0.012341664059775352,0.0011607952706061309
0.08648666860977919,0.012428916735290738,0.001173180561003664
0.0848567246090842,0.01251458843190017,0.0011856523135872594
0.08306121823098962,0.012598547403320207,0.0011982088815048696
0.08103609196331608,0.01268059605841736,0.0012108484532357385
0.0787309552034953,0.012760479582000765,0.0012235689910559476
0.0761187528072756,0.01283790443600615,0.001236368183064951
0.07320314404541668,0.012912565384432497,0.0012492434179751705
0.07002185335426818,0.01298417788313234,0.0012621917896089528
0.06664505154413872,0.013052511335581543,0.0012752101342183098
0.06316901591451361,0.013117418369310869,0.001288295099070756
0.05970633044193114,0.013178856042489091,0.001301443236276656
0.056374361325540884,0.013236896388372827,0.001314651112492087
0.05328368606224408,0.013291725412066718,0.001327915423392307
0.05052774972347647,0.01334363112995958,0.0013412331016633202
0.04817452033418976,0.013392982264988413,0.0013546014083607942
0.046260560856171,0.013440199805583593,0.0013680179993960802
0.04478780902817998,0.013485723990525769,0.0013814809612941348
0.043723326984676424,0.013529979558532197,0.0013949888130686638
0.04300218183631787,0.013573342312942695,0.0014085404740044013
0.0425334251084014,0.013616110116415054,0.0014221352002190802
0.042208889842963934,0.013658481273890737,0.0014357724959142332
0.041914132966087425,0.013700542785295262,0.001449452007943826
0.04154027158635934,0.013742269987571486,0.0014631734143302595
0.040994970693373683,0.013783537608711352,0.0014769363181284009
0.040210856291412723,0.013824140522203746,0.0014907401571938584
0.03915026156510635,0.013863821081132006,0.0015045841379955262
0.03780614586937515,0.013902299284849247,0.001518467198178517
0.03619981134204161,0.013939302263454955,0.001532387998952669
0.03437644411177603,0.013974590391181863,0.0015463449452799874
0.032399588936636435,0.01400797840770607,0.0015603362296794313
0.030345590046232617,0.014039350997197504,0.0015743598943818832
0.028298831625909227,0.014068673208033575,0.0015884139064844987
0.026348234567948037,0.014095996741130504,0.0016024962414590807
0.02458493688125135,0.014121463326855103,0.0016166049714930735
0.023100535575642137,0.014145306063083549,0.0016307383561880429
0.021984905845057714,0.014167848783793898,0.0016448949336114816
0.0213226683508198,0.014189502570891837,0.0016590736092888245
0.021187894628820397,0.014210757852381658,0.0016732737395004614
0.021637382319147067,0.014232170490855641,0.00168749520367208
0.022703513665603053,0.014254340938848016,0.0017017384593869319
0.02438822707437434,0.014277886809218005,0.0017160045732609649
0.02665986979669459,0.01430341085765354,0.0017302952220944006
0.02945436752322389,0.0143314679763135,0.001744612661511384
0.032681104532975305,0.014362535712341598,0.0017589596633557116
0.03623258559016173,0.014396992557403166,0.001773339427490584
0.03999604946445719,0.014435106874930475,0.001787755477206751
0.04386496871923699,0.014477037384022323,0.0018022115493362273
0.047748526627286125,0.014522844131695583,0.0018167114900940863
0.0515775394169594,0.014572507164717707,0.001831259165742293
0.05530602784924971,0.01462594894835081,0.0018458583937988272
0.05890870957333013,0.0146830563170621,0.0018605128964315338
0.06237564293597926,0.014743698493316755,0.0018752262738367233
0.06570563505808284,0.014807739132313785,0.0018900019926495386
0.06889980070120945,0.014875041850193432,0.0019048433831407921
0.07195620330494017,0.014945469852196507,0.001919753638991987
0.07486614252586574,0.01501888102511191,0.0019347358144306413
0.0776123380837126,0.015095120265416699,0.0019497928150759057
0.08016888826695107,0.01517401087859203,0.0019649273806479103
0.08250258338001115,0.015255346614415511,0.001980142059394414
0.08457513099827796,0.015338885471604656,0.001995439175437424
0.08634607201008881,0.01542434607310884,0.002010820791209781
0.08777635605627895,0.015511407287142025,0.0020262886678899064
0.08883239313467328,0.0155997116617375,0.0020418442273643462
0.08948988265287362,0.015688872799631274,0.0020574885195950307
0.0897362595164525,0.01577848587071594,0.0020732221989302043
0.08957073286825705,0.015868139366908292,0.0020890455115490166
0.0890017550385353,0.01595742561086169,0.0021049582940379018
0.08804288441065339,0.016045947930586283,0.0021209599808086257
0.08670871762209983,0.01613332373160266,0.00213704961663972
0.08501248352117892,0.016219184332174296,0.0021532258706716085
0.08296612572120596,0.01630317363679549,0.0021694870496560934
0.08058269628959897,0.01638494804780089,0.0021858311104983917
0.07788013329596535,0.016464179462593674,0.002202255674253589
0.07488524670047204,0.016540562152591892,0.0022187580450611817
0.0716368522287681,0.016613823202056514,0.0022353352377385057
0.06818719632613542,0.016683735226333967,0.002251984016952701
0.06460105766915064,0.01675012935333161,0.0022687009492425338
0.06095231580872176,0.016812906040070547,0.002285482466939235
0.05731829011883836,0.016872041343034327,0.0023023249406307874
0.053772511435348086,0.01692758674381142,0.00231922475467421
0.050376710372678435,0.016979661354715434,0.0023361783787234735
0.04717293257492857,0.017028436176189238,0.002353182427488926
0.04417699791391846,0.017074111141433663,0.0023702337011477373
0.04137474980293108,0.017116887015292088,0.0023873292002261
0.03872226257383469,0.01715693552148047,0.0024044661114944865
0.036150366744604215,0.017194371836139692,0.0024216417651732967
0.033572952260989095,0.01722923349564249,0.002438853567839188
0.030897892904419872,0.017261468918225192,0.0024560989190461216
0.02803911409313262,0.017290937421723968,0.002473375122216096
0.024928168922779142,0.017317421063231923,0.002490679301458574
0.02152364296964168,0.017340646969178135,0.002508008335474779
