frame_number,force
0,833.1857900000446
1,833.1903747445366
2,833.1922212258817
3,833.1891587869476
4,833.1799936072995
5,833.164655496366
6,833.1440604110156
7,833.1197454098063
8,833.093384464776
9,833.0663069343808
10,833.0391213461045
11,833.0115155245633
12,832.9822727145875
13,832.9495045421331
14,832.9110496310929
15,832.8649405648841
16,832.8098277104374
17,832.745271074521
18,832.6718568824697
19,832.5911438821255
20,832.5054746650527
21,832.4176924814321
22,832.330801961946
23,832.2476224601256
24,832.1704944796085
25,832.1010850247501
26,832.0402978435791
27,831.9882653841117
28,831.9444027199154
29,831.9075173109622
30,831.8759608859883
31,831.8477859730752
32,831.8208603339372
33,831.792912447761
34,831.7615190830702
35,831.7240837186592
36,831.6778731362318
37,831.6201632300484
38,831.5485031285767
39,831.4610694957896
40,831.3570611978379
41,831.2370615822944
42,831.1032689284016
43,830.9594938809744
44,830.8108693803275
45,830.6633006920375
46,830.5227617909177
47,830.3945840696971
48,830.2828724501854
49,830.1901377341821
50,830.1171778168431
51,830.0631899373483
52,830.0260583614659
53,830.0027440964158
54,829.9897073377605
55,829.9833096692407
56,829.9801614186265
57,829.9773969229719
58,829.9728722124219
59,829.9652784256481
60,829.9541545906844
61,829.9397853880416
62,829.9229980258723
63,829.9049163830234
64,829.8867586849109
65,829.8697508309242
66,829.8551729089753
67,829.8444926445568
68,829.8395043738833
69,829.8424030565919
70,829.8557647377116
71,829.8824427141941
72,829.9254018718366
73,829.9875124564509
74,830.0713240503342
75,830.1788384237427
76,830.3112901565074
77,830.4689321202696
78,830.6508204676977
79,830.8546078858741
80,831.0763838060608
81,831.310632422838
82,831.5503871840799
83,831.7876260252111
84,832.013889849858
85,832.2210514953763
86,832.4021323700833
87,832.5520565421622
88,832.6682412913616
89,832.7509455393825
90,832.8033264550936
91,832.8311822981522
92,832.8423856553976
93,832.8460430935289
94,832.8514626370427
95,832.8670640232108
96,832.899403319658
97,832.9524752017014
98,833.027399593223
99,833.1225198101048
100,833.2338657174236
101,833.3558796786821
102,833.482267509563
103,833.6068266081036
104,833.7241239687813
105,833.8299451053473
106,833.921496354433
107,833.9973929894823
108,834.0574883330254
109,834.1026041469265
110,834.1342264325694
111,834.1542299263289
112,834.1646763330308
113,834.1676986555364
114,834.1654504117646
115,834.1600737209984
116,834.1536342460106
117,834.1479926440152
118,834.1446217078183
119,834.1444104732701
120,834.1475073285213
121,834.1532485153272
122,834.1602018726607
123,834.1663285987677
124,834.1692366856214
125,834.1664843548759
126,834.1558941119198
127,834.1358452171231
128,834.1055134058646
129,834.0650235640641
130,834.0154805437197
131,833.9588493086105
132,833.8976750914326
133,833.8346751344053
134,833.7722834454283
135,833.7122547676577
136,833.6554154911504
137,833.6016068102043
138,833.5498260171985
139,833.4985382507994
140,833.4460947818848
141,833.3911637715551
142,833.3330769843772
143,833.2720261637892
144,833.2090846948818
145,833.146060922245
146,833.0852082297168
147,833.0288372063476
148,832.9788987306347
149,832.9366186666127
150,832.9022536251796
151,832.8750071831823
152,832.8531111523772
153,832.8340516394751
154,832.8149082067831
155,832.7927633892807
156,832.7651196816695
157,832.7302458945321
158,832.6873861022833
159,832.6368030583353
160,832.5796721075441
161,832.5178682881871
162,832.4536938463624
163,832.3895884525817
164,832.3278602421663
165,832.2704688565325
166,832.218876199012
167,832.1739617718756
168,832.1359883524921
169,832.1046035716685
170,832.0788674084553
171,832.0573019774681
172,832.0379714551567
173,832.0186129718558
174,831.9968434507578
175,831.9704581379057
176,831.9378137118622
177,831.8982514397227
178,831.8524746039103
179,831.802774905253
180,831.753020055928
181,831.7083601279801
182,831.6746655042251
183,831.6577618528225
184,831.6625694540505
185,831.6922795952889
186,831.7477031918205
187,831.8269007684547
188,831.9251536540579
189,832.0352806404776
190,832.1482579399745
191,832.2540694269591
192,832.3426966418206
193,832.4051454316157
194,832.4343943164267
195,832.4261479263812
196,832.3793006864892
197,832.2960612502454
198,832.1817373877234
199,832.0442138602378
200,831.8931767895654
201,831.7391654895542
202,831.5925619022262
203,831.4626330105083
204,831.3567184105733
205,831.2796297756064
206,831.233318242809
207,831.2168554972262
208,831.2267465516555
209,831.2575512754233
210,831.3027508809383
211,831.3557572246183
212,831.4109255422638
213,831.4644058782638
214,831.5146730602918
215,831.5626199068347
216,831.6111835614058
217,831.6645864903725
218,831.7273721472008
219,831.8034528198864
220,831.8953508552784
221,832.0037353005924
222,832.1272760660459
223,832.2627831286844
224,832.4055733631393
225,832.5499987571328
226,832.690059055524
227,832.8200046998675
228,832.934828902919
229,833.0305724139569
230,833.1044200988389
231,833.1546302620412
232,833.1803795592829
233,833.181613046996
234,833.1589600211468
235,833.1137308537072
236,833.0479758924449
237,832.9645769436689
238,832.8673419202523
239,832.7610656419373
240,832.6515041225676
241,832.5452000310913
242,832.4491064768088
243,832.369993387448
244,832.3136880355897
245,832.2842815318321
246,832.2834835707444
247,832.3102895955931
248,832.3610428216991
249,832.4298738271071
250,832.5094267039761
251,832.591746431518
252,832.6691959759701
253,832.7352777577903
254,832.7852446341876
255,832.816404851262
256,832.8280683837464
257,832.8211580224626
258,832.7975973216827
259,832.7596431126241
260,832.7093236698254
261,832.648091736447
262,832.5767414232243
263,832.4955857496004
264,832.4048412893123
265,832.3051143725512
266,832.1978428573467
267,832.0855446935193
268,831.9717760511303
269,831.8607913119309
270,831.7569852813299
271,831.6642561593355
272,831.5854476652958
273,831.5220062963101
274,831.4739265502396
275,831.4399729515995
276,831.4180946411211
277,831.4059107056461
278,831.4011494673064
279,831.4019608689101
280,831.4070655994063
281,831.4157439467697
282,831.4277018903935
283,831.4428774833392
284,831.4612529479125
285,831.4827171106833
286,831.5070005853061
287,831.5336962118175
288,831.5623682324502
289,831.5927308255209
290,831.624844152048
291,831.6592537388755
292,831.697006205187
293,831.7395115507826
294,831.7882649098823
295,831.8444652467876
296,831.9085821525878
297,831.9799462546496
298,832.0564669401402
299,832.13457619964
300,832.2094396968118
301,832.275396545495
302,832.3265423302922
303,832.3573759451045
304,832.3634572478729
305,832.3420267086722
306,832.2925143317962
307,832.2168412927739
308,832.1194237354864
309,832.0068352916128
310,831.8871601189741
311,831.7691393123987
312,831.661251083945
313,831.5708618541162
314,831.5035528885782
315,831.4626867052646
316,831.4492499075344
317,831.461993278775
318,831.497859058939
319,831.5526246939951
320,831.6216322220228
321,831.7004583590166
322,831.785418450284
323,831.8738532219161
324,831.9641903451076
325,832.0558011540675
326,832.1486982685789
327,832.2431451714431
328,832.3392608008927
329,832.4366890867329
330,832.5343749503115
331,832.6304655734972
332,832.7223441844287
333,832.8067927053803
334,832.8802623363647
335,832.9392127342395
336,832.980471954148
337,833.0015726066905
338,833.0010224458164
339,832.9784659356023
340,832.9347056850629
341,832.8715899116867
342,832.7918107443045
343,832.6986658653927
344,832.5958145098087
345,832.4870411018966
346,832.3760433690387
347,832.2662669030577
348,832.1607927013793
349,832.0622577963271
350,831.9727785666851
351,831.8938634538007
352,831.8263324534147
353,831.7702791876848
354,831.7251051366038
355,831.6896345992518
356,831.6622971629486
357,831.6413456408001
358,831.6250651229853
359,831.6119322659707
360,831.600704071498
361,831.5904393738967
362,831.5804736526823
363,831.5703785027276
364,831.5599378850715
365,831.5491530238639
366,831.5382485716623
367,831.5276219836674
368,831.5176871356326
369,831.5086183459166
370,831.5000726887761
371,831.4910046971124
372,831.4796563237039
373,831.4637303563844
374,831.4406931417321
375,831.4081352072945
376,831.3641362017831
377,831.3076008183928
378,831.2385320021739
379,831.1581952900663
380,831.0691292216885
381,830.9749787310316
382,830.8801578558327
383,830.7893775861238
384,830.7071070050154
385,830.6370649177146
386,830.5818460296339
387,830.5427560732936
388,830.5198697026156
389,830.5122591901354
390,830.5183029904791
391,830.535987112952
392,830.563144910247
393,830.5976114378639
394,830.6372792216806
395,830.6800436410732
396,830.7236439747961
397,830.7654513967826
398,830.8023037092679
399,830.8304953065856
400,830.8459802211158
401,830.8447629053951
402,830.8233866673506
403,830.779414581446
404,830.71182090589
405,830.6212405151375
406,830.5100464811841
407,830.382252105603
408,830.2432653981848
409,830.0995423401362
410,829.9581783170333
411,829.8264586221469
412,829.7113775652256
413,829.619135595427
414,829.5546350999532
415,829.5210190670836
416,829.5193206822456
417,829.548296980059
418,829.6044984944658
419,829.682582024225
420,829.7758153373283
421,829.8766792164816
422,829.9774728968873
423,830.0708658812609
424,830.1503721573565
425,830.2107263620053
426,830.2481319502841
427,830.2603628415334
428,830.2467371265714
429,830.2080133950748
430,830.146260524097
431,830.0647233173518
432,829.9676712528991
433,829.8602012983326
434,829.7479787803342
435,829.6369248268746
436,829.5328714892601
437,829.4412065574185
438,829.3665315396503
439,829.3123589754516
440,829.2808730982263
441,829.2727724414411
442,829.2872118211903
443,829.3218659471548
444,829.3731398870474
445,829.436541558541
446,829.5072000959806
447,829.5804653298255
448,829.6524800614347
449,829.7206035441334
450,829.7835916185786
451,829.841501365171
452,829.8953648411153
453,829.946732472004
454,829.997200460943
455,830.0480179321071
456,830.0998386847963
457,830.1526482572613
458,830.20586078377
459,830.2585453270486
460,830.3097162994052
461,830.3586171881218
462,830.4049424153429
463,830.448966964155
464,830.4915746644986
465,830.5341917428738
466,830.5786457808127
467,830.6269815764891
468,830.6812728318598
469,830.743470421697
470,830.8153176204844
471,830.8983336383332
472,830.9938293087122
473,831.1028974279891
474,831.2263308838949
475,831.3644603984699
476,831.5169524936967
477,831.682639648565
478,831.8594479389317
479,832.0444531131957
480,832.23406260396
481,832.424299699076
482,832.6111519715519
483,832.7909395622257
484,832.9606605845518
485,833.1182703106499
486,833.2628443562878
487,833.3945812800861
488,833.5146299613207
489,833.6247665099488
490,833.7269731066128
491,833.822989195009
492,833.9139228879758
493,834.0000145194554
494,834.0806112578575
495,834.1543409799614
496,834.2194029610142
497,834.2738743252378
498,834.315978446575
499,834.3443288954041
500,834.3581905171975
501,834.3577700761573
502,834.344490362803
503,834.3211550759006
504,834.2919047762908
505,834.2619005953151
506,834.2367388632138
507,834.2216778490289
508,834.2208240077807
509,834.2364510947833
510,834.2685945495085
511,834.3149873366455
512,834.3713163669825
513,834.4317169104615
514,834.4894026068582
515,834.5373393012163
516,834.5688891530889
517,834.578368172437
518,834.5614802484708
519,834.515613575017
520,834.4400029313202
521,834.3357701464168
522,834.2058571453846
523,834.0548608525063
524,833.888769349027
525,833.7145935365766
526,833.5398950290676
527,833.3722290132674
528,833.2185455199211
529,833.0846120882134
530,832.9745251054281
531,832.8903694380872
532,832.8320690421591
533,832.7974382138045
534,832.7824016575023
535,832.7813284562297
536,832.7874332263359
537,832.7932237739055
538,832.7909975458767
539,832.7733942782331
540,832.7339947619826
541,832.667922042448
542,832.5723678500401
543,832.4469546733203
544,832.2938631324238
545,832.1176949545339
546,831.9250856917845
547,831.7241147217902
548,831.5235746215219
549,831.3321620021321
550,831.1576542055445
551,831.0061471038624
552,830.8814362678048
553,830.7846189188864
554,830.7139810316334
555,830.6652093589593
556,830.6319217188435
557,830.6064471908327
558,830.5807376326859
559,830.547274176081
560,830.4998459650932
561,830.4341115563767
562,830.3478989261023
563,830.24125052159
564,830.1162576623351
565,829.9767393599168
566,829.8278138695548
567,829.6754085132131
568,829.5257561146534
569,829.3849184715463
570,829.2583577982565
571,829.1505666909006
572,829.0647765499195
573,829.0027789358396
574,828.9648942019032
575,828.9500986554362
576,828.956278180312
577,828.9805307147999
578,829.0194279706427
579,829.0691914589687
580,829.125809410203
581,829.1851572823246
582,829.243162332945
583,829.2960073853358
584,829.3403384553153
585,829.3734320093749
586,829.3932869183997
587,829.3986342467849
588,829.3888931539078
589,829.3641185511381
590,829.3249784069907
591,829.2727872640673
592,829.2096214166551
593,829.1385289294574
594,829.0638000436837
595,828.9911956356428
596,828.9279872272443
597,828.8826754693586
598,828.8643294699679
599,828.8816021781023
600,828.9415817820858
601,829.0486916747948
602,829.2038375807712
603,829.4039401236101
604,829.6419156606852
605,829.9070997006273
606,830.1860579380876
607,830.4637023475308
608,830.7246140356827
609,830.9544597429273
610,831.1413746381119
611,831.2771750551474
612,831.3582644521188
613,831.3861077361955
614,831.367175608109
615,831.3123051643339
616,831.2354967594274
617,831.1522741910358
618,831.0778450542459
619,831.0253562548422
620,831.0045157868014
621,831.0207607891844
622,831.0750330505641
623,831.1641165499129
624,831.281420987948
625,831.418058306663
626,831.5640427931897
627,831.7094491767776
628,831.8453958725444
629,831.9647774399356
630,832.062725351956
631,832.1368017072515
632,832.1869274204208
633,832.2150468475553
634,832.2245638481885
635,832.2196441413095
636,832.2045284548807
637,832.1830023940672
638,832.1581132946254
639,832.1321397127907
640,832.1067489008149
641,832.0832467897192
642,832.0628293228732
643,832.0467670073095
644,832.0364841810105
645,832.03352241237
646,832.0393977512967
647,832.0553751215792
648,832.0821949376334
649,832.1197976178378
650,832.1670969930883
651,832.2218525208144
652,832.2806859899381
653,832.3392795448141
654,832.3927687939998
655,832.4363039423056
656,832.4657057222846
657,832.4781102228491
658,832.4724903721926
659,832.4499627230487
660,832.4138245128454
661,832.3693041080686
662,832.323044587887
663,832.2823775209242
664,832.2544777496695
665,832.245511574983
666,832.2598955328117
667,832.2997683965332
668,832.3647408617852
669,832.4519292980738
670,832.5562239040008
671,832.6707150369876
672,832.7872095793917
673,832.896790315684
674,832.9903856613654
675,833.0593286583502
676,833.0959058285587
677,833.0939189550502
678,833.0492736631455
679,832.9605544183501
680,832.8294806883468
681,832.6611130781886
682,832.4637078255948
683,832.2481832618283
684,832.0272313839338
685,831.814159768631
686,831.6215832709022
687,831.4601141816186
688,831.3372243670719
689,831.2564534869052
690,831.217096476011
691,831.2144294759923
692,831.2404516782314
693,831.2850456891509
694,831.3373907619808
695,831.3874115273918
696,831.427035854976
697,831.4510810488762
698,831.4576662985077
699,831.4481289537194
700,831.4264905155911
701,831.3985797994648
702,831.3709698841229
703,831.3499020462402
704,831.340344767369
705,831.3452855460184
706,831.3653071479589
707,831.3984784928643
708,831.4405868792213
709,831.4857214364808
710,831.5271635126527
711,831.5584609934946
712,831.57450033442
713,831.5723737807923
714,831.551874654836
715,831.5155280248232
716,831.4681575272829
717,831.416077101229
718,831.3660578678287
719,831.324246800666
720,831.2952085821449
721,831.2812337467471
722,831.2820112215852
723,831.294703599294
724,831.3143941167864
725,831.3348107420445
726,831.3491956448518
727,831.3511891066121
728,831.3356253199855
729,831.2991686766627
730,831.2407380907708
731,831.1616793294882
732,831.0656631135212
733,830.9583146678747
734,830.8466177720268
735,830.738176827061
736,830.6404465634549
737,830.5600323484961
738,830.502127339613
739,830.4701121800267
740,830.4653238674078
741,830.4870008370067
742,830.5324010805839
743,830.5970498686954
744,830.6750343121754
745,830.7592758545978
746,830.8417810404079
747,830.9139414335797
748,830.9669761203312
749,830.9925733571374
750,830.9837075040504
751,830.935517491616
752,830.8460727157251
753,830.7168448819003
754,830.5527530468331
755,830.361739798242
756,830.1539408764961
757,829.9405969040654
758,829.7328991998348
759,829.5409516450666
760,829.3729783544164
761,829.2348368147318
762,829.129831968296
763,829.058784260779
764,829.020284802567
765,829.0110633990271
766,829.0263964718523
767,829.060496056717
768,829.1068462407029
769,829.1584814390882
770,829.2082263416845
771,829.2489348188718
772,829.2737686667514
773,829.27654720838
774,829.252176416134
775,829.1971284863687
776,829.1098992764793
777,828.9913469326399
778,828.8448260847592
779,828.6760718782717
780,828.4928389698362
781,828.3043409358811
782,828.1205498220829
783,827.9514091671793
784,827.806008996285
785,827.69178260592
786,827.6138053504029
787,827.5742872955595
788,827.5723437886029
789,827.6041012571561
790,827.6631538805472
791,827.7413314645725
792,827.8296749050478
793,827.9194627595309
794,828.0031192073159
795,828.0748741144927
796,828.1311219762789
797,828.1704968573816
798,828.1937161656384
799,828.2032557416087
800,828.2029250444053
801,828.1974136509953
802,828.1918627645057
803,828.1914797010904
804,828.2011821529788
805,828.2252504555546
806,828.2669790713124
807,828.3283436615096
808,828.4097295737887
809,828.509785987338
810,828.6254569532086
811,828.752199505388
812,828.8843622372814
813,829.0156880421337
814,829.1399091304163
815,829.2513929018513
816,829.3457673660332
817,829.4204294218091
818,829.4748458282022
819,829.5105934732272
820,829.5311294037297
821,829.5413192038055
822,829.5467899275576
823,829.5532110780352
824,829.5656257640178
825,829.5879376470031
826,829.6226156339713
827,829.6706293532634
828,829.7315865754242
829,829.8040109440805
830,829.8856790965826
831,829.9739372539967
832,830.0659386249133
833,830.1587775894083
834,830.2495349406018
835,830.335276974918
836,830.4130592049889
837,830.4799760909817
838,830.5332806632317
839,830.5705731339064
840,830.5900258514791
841,830.5905869748779
842,830.5721047202602
843,830.5353384166418
844,830.4818556561418
845,830.4138431703723
846,830.3338757759647
847,830.244683013101
848,830.1489273665222
849,830.0489868716486
850,829.9467434175089
851,829.8434067742521
852,829.739422025538
853,829.6344987494679
854,829.5277749363639
855,829.4181051587688
856,829.3044432216212
857,829.1862633426285
858,829.0639316867012
859,828.9389265266313
860,828.8138340161482
861,828.6921093759828
862,828.5776572517739
863,828.4743244850421
864,828.3854070644932
865,828.3132530953101
866,828.2590055103834
867,828.2224921686902
868,828.2022535267789
869,828.1956983340972
870,828.1993794517074
871,828.2093685813013
872,828.2216846363355
873,828.2327191855003
874,828.2396146215302
875,828.2405691283997
876,828.2350482833689
877,828.223879806958
878,828.2092106063444
879,828.1943187579075
880,828.1832886282143
881,828.1805660027356
882,828.1904153078023
883,828.2163144520922
884,828.2603485311166
885,828.3226912261227
886,828.4012770855411
887,828.4917589333674
888,828.5878060346691
889,828.6817289875821
890,828.7653325404827
891,828.8308351653482
892,828.8716907710163
893,828.8832045969161
894,828.8629130212289
895,828.8107532391916
896,828.7290692215565
897,828.6224911707934
898,828.4976992876018
899,828.3630590531421
900,828.228111847449
901,828.1029208274484
902,827.9972981641807
903,827.9199726644073
904,827.8777915705582
905,827.8750718413087
906,827.9132110765257
907,827.9906367532864
908,828.1031212798699
909,828.2444249920043
910,828.4071626983289
911,828.583746770735
912,828.7672587550454
913,828.9521323665682
914,829.134568107968
915,829.3126328520576
916,829.4860358145081
917,829.6556228008278
