frame_number,force
0,593.3026100000304
1,593.3569520346429
2,593.4092837501471
3,593.4569742866553
4,593.4963258959174
5,593.5224344392689
6,593.5294129947753
7,593.5109453138051
8,593.4610599314128
9,593.3749727350078
10,593.2498449626643
11,593.0853370152894
12,592.8838842482036
13,592.6506637493535
14,592.3932586684657
15,592.1210585356176
16,591.8444620662005
17,591.5739799917022
18,591.3193637795371
19,591.0888879078577
20,590.8888783231475
21,590.7235279484971
22,590.5949919317364
23,590.5037096399308
24,590.4488547301337
25,590.4287818379447
26,590.4413376431088
27,590.4839496949174
28,590.553496665487
29,590.646064933355
30,590.7567535254957
31,590.879668938275
32,591.0081682795136
33,591.1353120393615
34,591.2544261396054
35,591.3596698233426
36,591.4465433221324
37,591.5123043805577
38,591.5562707288138
39,591.5799764528288
40,591.5871438820029
41,591.5834371277352
42,591.5759786580696
43,591.5726375972451
44,591.581140485281
45,591.6081058489546
46,591.6581435264553
47,591.7331707224665
48,591.8320756051264
49,591.9508075985135
50,592.0828979253921
51,592.2203345412179
52,592.3546539963589
53,592.4780779663168
54,592.5845193147169
55,592.6703147361176
56,592.734595551588
57,592.7792640607227
58,592.8085946787639
59,592.8285331611692
60,592.8458138993597
61,592.8670299818482
62,592.8977702534919
63,592.941911118382
64,593.0011386576231
65,593.0747627343435
66,593.1598470590707
67,593.2516223437176
68,593.3440963534579
69,593.4307454071038
70,593.5051753929273
71,593.5616696050532
72,593.5955795899577
73,593.6035511115115
74,593.5836034197615
75,593.5350909725009
76,593.4585736512213
77,593.3556195938014
78,593.2285798950567
79,593.0803963031692
80,592.9145007749523
81,592.7348257036135
82,592.5458873451993
83,592.3528681199397
84,592.1616243472096
85,591.9785742270052
86,591.8104537646944
87,591.663954274382
88,591.5452781063437
89,591.4596713541076
90,591.4110020504
91,591.4014424383832
92,591.4312962600004
93,591.4989953039528
94,591.6012618893699
95,591.7333918080529
96,591.8895826320896
97,592.0632445163645
98,592.247278366633
99,592.434353628793
100,592.6172336162297
101,592.789170264512
102,592.9443348765515
103,593.078202636482
104,593.1878054426286
105,593.2718128749814
106,593.3304560805971
107,593.3653352661398
108,593.3791464778154
109,593.3753527764525
110,593.3578257248317
111,593.330491986413
112,593.2970290493022
113,593.2606566432709
114,593.2240548309994
115,593.189401551282
116,593.1584776433479
117,593.1327642320882
118,593.1134744040793
119,593.1015091265982
120,593.0973712319887
121,593.1010808442013
122,593.1121162412798
123,593.1293883552818
124,593.1512645321268
125,593.1756705384497
126,593.2002892476586
127,593.222840055539
128,593.2413945004569
129,593.2546787909478
130,593.2623233818321
131,593.2650298313357
132,593.2646310897615
133,593.2640211581323
134,593.2669312488882
135,593.2775512537578
136,593.3000395894798
137,593.3380007878
138,593.3940135960831
139,593.4692774014648
140,593.5634320663754
141,593.674583270943
142,593.7995155403129
143,593.9340204070803
144,594.0732498773385
145,594.2120376179348
146,594.3451835219295
147,594.4677352855755
148,594.5753035346794
149,594.6644136624776
150,594.7328489083993
151,594.779910547937
152,594.8065306323742
153,594.8152068448726
154,594.8097638016728
155,594.7949699929161
156,594.7760548681705
157,594.7581745178996
158,594.74586670984
159,594.7425309068554
160,594.7499847520304
161,594.7681759274728
162,594.7951263648482
163,594.8271312843732
164,594.8591628977337
165,594.885395492447
166,594.8997883798696
167,594.8966932388081
168,594.8714486247055
169,594.8208920522197
170,594.7437036471139
171,594.6405239162353
172,594.5138415152501
173,594.3676837302103
174,594.2071525620577
175,594.0378573698404
176,593.8653137444195
177,593.694387533445
178,593.5288446689665
179,593.3710359592566
180,593.221727507723
181,593.0800860633598
182,592.9438266801557
183,592.8095130116025
184,592.6729729406485
185,592.5297704062466
186,592.3756697364569
187,592.2070424483037
188,592.0211907866343
189,591.8165848411788
190,591.5930225921666
191,591.3517230491066
192,591.0953513944852
193,590.8279597389973
194,590.5548275075577
195,590.2822067353219
196,590.0169950106362
197,589.766352907165
198,589.537270061434
199,589.336090068263
200,589.1680253996436
201,589.0367082949557
202,588.943825578355
203,588.8888837540981
204,588.8691501108854
205,588.8798101455887
206,588.9143618176621
207,588.96522633129
208,589.0245000425336
209,589.0847266956475
210,589.1395575149439
211,589.1841945958386
212,589.2155702316282
213,589.2322821789453
214,589.2343585023021
215,589.2229488484113
216,589.2000330590832
217,589.1682127483258
218,589.1306115291247
219,589.0908608506877
220,589.0531087255639
221,589.0219781555144
222,589.0024226526
223,588.9994569471806
224,589.017762361509
225,589.0611872106268
226,589.1322027461717
227,589.2314210966392
228,589.3572908667218
229,589.5060418939576
230,589.6718842530631
231,589.8474186904857
232,590.0241986744085
233,590.1933845852942
234,590.3464321682795
235,590.4757574222451
236,590.5753257030253
237,590.6411243624012
238,590.6714838833038
239,590.6672073054737
240,590.6314687336309
241,590.5694673583224
242,590.4878657494754
243,590.3940752647203
244,590.2954651776125
245,590.1985733934316
246,590.108400090944
247,590.0278791194031
248,589.9576324283337
249,589.8960887345492
250,589.8399744686692
251,589.7850922966182
252,589.7272370815936
253,589.6630815935046
254,589.5908866721713
255,589.5109385252858
256,589.4256742598027
257,589.3395100044705
258,589.258425265784
259,589.1893791734958
260,589.1396354513097
261,589.1160566423328
262,589.1244125741682
263,589.1687516950213
264,589.2509018978737
265,589.3701754446726
266,589.5233337197657
267,589.7048261243054
268,589.9072705476492
269,590.122106849328
270,590.3403374483777
271,590.5532682039911
272,590.7531701489795
273,590.9337935828943
274,591.0906855117764
275,591.2212958292115
276,591.3249008146303
277,591.4024070442551
278,591.4561100200038
279,591.4894661882627
280,591.5069020999354
281,591.51364612045
282,591.5155426732474
283,591.5188053911744
284,591.5296855018634
285,591.5540697516473
286,591.5970603858358
287,591.6626030387446
288,591.7532052753363
289,591.8697499797785
290,592.0113952523454
291,592.1755805211183
292,592.3581887828684
293,592.5539004557148
294,592.7567187454806
295,592.960590966448
296,593.1600198783367
297,593.3505518979231
298,593.529046471076
299,593.6936833900139
300,593.8437421149736
301,593.9792511104059
302,594.1006275693207
303,594.2084130086231
304,594.3031716425478
305,594.3855614991793
306,594.4565266045764
307,594.5175218765772
308,594.5706884771895
309,594.6189289180985
310,594.6658564845814
311,594.7156033417087
312,594.7724828775421
313,594.8405305521233
314,594.9229882719005
315,595.0218266971214
316,595.1373967364823
317,595.2682655611914
318,595.4112492136387
319,595.5616347963288
320,595.7135918908841
321,595.8607704871324
322,595.997043002974
323,596.1172844107653
324,596.2180365002714
325,596.2979025506081
326,596.3575769918843
327,596.399510990187
328,596.4273075992714
329,596.444998302508
330,596.4563717772749
331,596.4645043312001
332,596.471574522498
333,596.4789484852258
334,596.4874385261361
335,596.4975997098654
336,596.5099436379668
337,596.5249995000585
338,596.5432147322651
339,596.5647382150838
340,596.5891570259315
341,596.6152673978473
342,596.640959265196
343,596.6632799321343
344,596.6787081029343
345,596.6836153381951
346,596.6748356833425
347,596.6502309969547
348,596.6091414141245
349,596.5526379280151
350,596.4835295842965
351,596.4061133202969
352,596.3256941144475
353,596.2479470470328
354,596.1782245783825
355,596.1209135968228
356,596.0789246182133
357,596.0533739633128
358,596.0435022760743
359,596.0468397134979
360,596.0595765888581
361,596.0770549385587
362,596.0942851729548
363,596.1064131857012
364,596.1091044535257
365,596.0988537892288
366,596.0732498918647
367,596.0312104482383
368,595.9731672263483
369,595.9011511543017
370,595.8187296059878
371,595.7307792150161
372,595.6431151351962
373,595.5620236927701
374,595.493752655684
375,595.4440036588653
376,595.417456970937
377,595.4173528245855
378,595.4451560388379
379,595.5003341680143
380,595.5802803008098
381,595.6804067918043
382,595.7944191830453
383,595.9147489764497
384,596.0330909741884
385,596.1409747173659
386,596.2303107500375
387,596.2938798665309
388,596.3257552472985
389,596.3216545949346
390,596.2792187892427
391,596.198210220994
392,596.0806149337535
393,595.9306201101298
394,595.7544360016851
395,595.5599483982644
396,595.3562149181372
397,595.1528396320394
398,594.9592714136672
399,594.7840796461954
400,594.6342719517188
401,594.5147261068286
402,594.427801146974
403,594.3731680204621
404,594.347868701019
405,594.3465927133003
406,594.3621569214656
407,594.3861677015163
408,594.4098146968938
409,594.4247043332535
410,594.423619171969
411,594.4011034514956
412,594.3538208157272
413,594.280684414009
414,594.1827947833254
415,594.0632266479034
416,593.9266973684073
417,593.7791484978899
418,593.6272790985827
419,593.4780684525172
420,593.3383082392373
421,593.2141472289437
422,593.1106591774253
423,593.0314749555995
424,592.9785442594625
425,592.95208582424
426,592.9507468063242
427,592.9719395475137
428,593.0122808256245
429,593.0680425763962
430,593.1355367220835
431,593.2113871891943
432,593.2926732218111
433,593.3769533728805
434,593.4621980783697
435,593.5466667247969
436,593.6287646091034
437,593.706917282545
438,593.7795052028291
439,593.8448926812296
440,593.9015514274015
441,593.9482373558834
442,593.9841560428265
443,594.0090574637007
444,594.0232270478298
445,594.0273750713408
446,594.022457884753
447,594.0094820102722
448,593.9893413961886
449,593.9627223794903
450,593.9300866283944
451,593.8917186332395
452,593.8478128884171
453,593.7985794368121
454,593.7443532342764
455,593.685694416231
456,593.6234690322278
457,593.5589061633672
458,593.4936262776803
459,593.4296227320922
460,593.3691712300525
461,593.3146578125335
462,593.2683455097304
463,593.2321185690321
464,593.207238465605
465,593.1941285642258
466,593.192197228189
467,593.1997214359686
468,593.213827635212
469,593.2306019937193
470,593.2453404525528
471,593.2529298407983
472,593.2483400630554
473,593.227188501987
474,593.1863054837788
475,593.1242026430314
476,593.0413455354031
477,592.9401610991879
478,592.824756899644
479,592.7003767975107
480,592.5726599886889
481,592.4468098631282
482,592.3268126960584
483,592.2148552760277
484,592.1110579740874
485,592.0135731973666
486,591.9190267971799
487,591.8232244398985
488,591.7220115072465
489,591.6121599828391
490,591.4921534792521
491,591.3627477770899
492,591.2272015793372
493,591.0911098420597
494,590.961833983331
495,590.8475991765816
496,590.7563988649139
497,590.6948907051313
498,590.6674724004276
499,590.6756869446116
500,590.7180352975504
501,590.7901923278873
502,590.8855538653912
503,590.9960060206167
504,591.1128034141134
505,591.2274561457589
506,591.3325400720423
507,591.4223592015791
508,591.4934093271074
509,591.5446118192301
510,591.5772925639734
511,591.5948858122853
512,591.6023774592582
513,591.6055671488303
514,591.6102809823301
515,591.6216696576695
516,591.6436863082239
517,591.6787865749529
518,591.7278558807427
519,591.7903484776888
520,591.8646058817264
521,591.9482946312007
522,592.0388680641204
523,592.1339409942315
524,592.2314987749987
525,592.329934389076
526,592.4279703747317
527,592.5245430266144
528,592.6187169874559
529,592.7096792091218
530,592.7968276267085
531,592.8799176948506
532,592.9591811585705
533,593.0353192854361
534,593.109314738624
535,593.1820872632849
536,593.2540962288067
537,593.3250295747787
538,593.3936999561932
539,593.4581989672274
540,593.5162615174647
541,593.5657101863195
542,593.6048286694909
543,593.632562768663
544,593.6485324018464
545,593.6529089419037
546,593.6462381060436
547,593.6292717929373
548,593.6028343929819
549,593.5677150506081
550,593.5245680771985
551,593.4738241278643
552,593.4156447858131
553,593.3499640906222
554,593.2766412755253
555,593.1957124776213
556,593.1076967590619
557,593.0138943887399
558,592.9166100809858
559,592.8192368296525
560,592.7261515306684
561,592.6424080929818
562,592.573263396239
563,592.523618072985
564,592.4974738894305
565,592.4974917383882
566,592.5246940693244
567,592.578323291908
568,592.6558601611102
569,592.7532109106843
570,592.8650635925345
571,592.9853830975698
572,593.1079738065406
573,593.2270091806754
574,593.3374260456854
575,593.4351196468942
576,593.5169456833402
577,593.580597882709
578,593.6244441624096
579,593.6473788118277
580,593.6487267748339
581,593.6282346668754
582,593.5861700763013
583,593.5235038888998
584,593.4420960605556
585,593.3447866718626
586,593.2353260452568
587,593.1181383718481
588,592.997966899702
589,592.8794741044552
590,592.7668699720817
591,592.66362811798
592,592.5723322132758
593,592.4946759094433
594,592.4316118885919
595,592.3836057875598
596,592.3509119115326
597,592.3337738617496
598,592.3324750359285
599,592.3472115995293
600,592.3778153077636
601,592.4233970761142
602,592.4820046733869
603,592.5503907465658
604,592.6239689320646
605,592.6969889620257
606,592.762896553997
607,592.8147939019992
608,592.8459109389001
609,592.8500330087733
610,592.8218738587284
611,592.7574040659298
612,592.6541444211373
613,592.5114257234164
614,592.3306010182566
615,592.115168772281
616,591.8707407367335
617,591.6047906910873
618,591.326156238763
619,591.0443224319811
620,590.7685757779531
621,590.5071621835476
622,590.2665942337316
623,590.051222943354
624,589.8631294935964
625,589.7023295202899
626,589.5672301594439
627,589.4552360694735
628,589.3633683689005
629,589.288755656267
630,589.2288914634969
631,589.181623976984
632,589.1449301931165
633,589.1165950718394
634,589.0939395322998
635,589.0737139959381
636,589.0522140153727
637,589.0256085548843
638,588.9904172531076
639,588.9440315118995
640,588.8851503859892
641,588.8140148346426
642,588.7323773338948
643,588.643211312336
644,588.5502174962571
645,588.4572181369099
646,588.3675537888108
647,588.2836072148235
648,588.2065574094879
649,588.1364039791335
650,588.0722185978965
651,588.012518090161
652,587.9556401289065
653,587.9000308943528
654,587.8444016977248
655,587.7877587416951
656,587.7293431334048
657,587.6685335632178
658,587.6047655189299
659,587.5375081751542
660,587.4663145066174
661,587.390935409399
662,587.3114784744013
663,587.2285944226405
664,587.1436743270103
665,587.0590254791672
666,586.9779662574795
667,586.9047626127465
668,586.8443427599898
669,586.8017766090594
670,586.7815813564687
671,586.7869895468002
672,586.819351551832
673,586.8778148080607
674,586.9593448619507
675,587.0590696344557
676,587.1708608912891
677,587.2880189863505
678,587.4039098072625
679,587.5124322620679
680,587.6082643946744
681,587.6869175242151
682,587.7446906448431
683,587.7786406953041
684,587.786659034539
685,587.7676811206933
686,587.721984708674
687,587.6514825161787
688,587.5599017324787
689,587.4527594801502
690,587.3370770369015
691,587.2208199369154
692,587.1121101732435
693,587.0183257320616
694,586.945251670644
695,586.8964415505374
696,586.872886274407
697,586.8730086103715
698,586.8929541643113
699,586.92714217335
700,586.9690328924524
701,587.0120283882553
702,587.0503705463576
703,587.079884492923
704,587.0984564148476
705,587.1062006417147
706,587.1053200537176
707,587.0996895898824
708,587.0942175108634
709,587.094072279514
710,587.1038863508682
711,587.1270471059662
712,587.1651697379057
713,587.2178321479834
714,587.2826305055708
715,587.3555661683541
716,587.4317016442623
717,587.5059559277769
718,587.573880344369
719,587.6322745250749
720,587.6795537140224
721,587.7158380818429
722,587.7427851692631
723,587.7632271477132
724,587.7807054551492
725,587.7990060555207
726,587.8217803401081
727,587.852294783135
728,587.8933021674152
729,587.9469891566486
730,588.0149484651309
731,588.0981491282704
732,588.1969109847927
733,588.3109035260337
734,588.4391816973787
735,588.5802575452188
736,588.7321987232211
737,588.8927420735424
738,589.0594112606346
739,589.2296338288631
740,589.4008574610988
741,589.5706583033024
742,589.7368281954241
743,589.8974389529412
744,590.0509012154072
745,590.1960433196153
746,590.3322255972635
747,590.4594800799098
748,590.5786361199004
749,590.6913776077341
750,590.8001830557745
751,590.9081142533446
752,591.018439007896
753,591.1341099898774
754,591.2571728717488
755,591.388215848105
756,591.5259756025475
757,591.6671848895334
758,591.8067019961171
759,591.9379149616827
760,592.0533691104828
761,592.1455300383899
762,592.2075702586444
763,592.2340612421399
764,592.2214703820252
765,592.1684061237988
766,592.0756129463459
767,591.945771186504
768,591.7831866821467
769,591.5934527534594
770,591.3831369658624
771,591.1595058563051
772,590.9302731434007
773,590.7033501207146
774,590.4865854089594
775,590.2874913140147
776,590.1129559168011
777,589.9689379172446
778,589.8601458711165
779,589.7897157286048
780,589.7589135510033
781,589.7669000455123
782,589.810598559152
783,589.8847083015976
784,589.9819019033619
785,590.0932354172285
786,590.208767108643
787,590.3183322546314
788,590.4123798060933
789,590.4827644067378
790,590.5234031523869
791,590.5307352912516
792,590.5039497227878
793,590.4449657483415
794,590.3581738860024
795,590.2499699058943
796,590.1281414473594
797,590.00118487366
798,589.8776347266944
799,589.7654770712611
800,589.671694868611
801,589.6019642013872
802,589.5604886226107
803,589.549932274845
804,589.5714017554901
805,589.6244368497947
806,589.7069979797099
807,589.815476542998
808,589.9447880446799
809,590.088616722441
810,590.2398564850226
811,590.391245387141
812,590.5361336678295
813,590.6692735159717
814,590.7874892031424
815,590.8900943265367
816,590.9789735016903
817,591.0583246371424
818,591.1341343124702
819,591.2135033409744
820,591.303940511609
821,591.4127088738812
822,591.5462632676947
823,591.7097826078653
824,591.9067848766988
825,592.1388137810792
826,592.4052027236639
827,592.7029526253286
828,593.0267851689338
829,593.3694276101137
830,593.7221527981975
831,594.0755580709247
832,594.4205207348671
833,594.7492101167616
834,595.0559864582094
835,595.3380099856493
836,595.5954299444211
837,595.8311030780874
838,596.0498800537309
839,596.2575850527005
840,596.4598874369617
841,596.6612977981148
842,596.8644813925787
843,597.0699743487951
844,597.2762683636581
845,597.480163011893
846,597.677291101239
847,597.8627614369614
848,598.0318728805739
849,598.1808147797205
850,598.3072239862912
851,598.4104681408894
852,598.4915796600314
853,598.5528526532834
854,598.5972024577842
855,598.6274427693307
856,598.6456417582203
857,598.6526842526713
858,598.648114597354
859,598.6302785764279
860,598.5967236634435
861,598.5447581792839
862,598.4720287221392
863,598.3769732617851
864,598.2590522034462
865,598.1187353690422
866,597.9572995839735
867,597.7765444474178
868,597.5785493433253
869,597.3655658565399
870,597.1400689833321
871,596.9049066120666
872,596.663440744379
873,596.4195923389059
874,596.1777529896516
875,595.9425591691613
876,595.7185283566608
877,595.50956417239
878,595.3183765191785
879,595.1459224331758
880,594.9910145278836
881,594.8502286819813
882,594.7181726377357
883,594.5880944659407
884,594.452745798978
885,594.3053657593839
886,594.1406164463143
887,593.9553025212919
888,593.7487619239308
889,593.5229032929375
890,593.2819452829763
891,593.0319498733793
892,592.7802367586778
893,592.5347460681646
894,592.3034024063913
895,592.0935230107498
896,591.9113019069972
897,591.7613982105154
898,591.6466638154911
899,591.5680452447278
900,591.524667012215
901,591.51406176477
902,591.5324907457832
903,591.575309416533
904,591.6373495216917
905,591.7132825857465
906,591.7979142202449
907,591.8863676435977
908,591.9741535510017
909,592.0571632407821
910,592.1316384573469
911,592.1941670848795
912,592.2417416795744
913,592.2719012560465
914,592.2829514902961
915,592.27422701977
916,592.246334656821
917,592.2013087087349
