frame_number,force
0,886.860780008837
1,886.8068000805289
2,886.7529808794245
3,886.6994815679177
4,886.6464582059731
5,886.5940622657741
6,886.542439220326
7,886.4917272239144
8,886.4420558988187
9,886.3935452398463
10,886.3463046461759
11,886.3004320883422
12,886.2560134165866
13,886.2131218150789
14,886.1718174045848
15,886.132146993932
16,886.0941439781695
17,886.0578283790363
18,886.023207021581
19,885.9902738393464
20,885.9590102990238
21,885.9293859338695
22,885.9013589740473
23,885.8748770619374
24,885.8498780411782
25,885.8262908090551
26,885.8040362220452
27,885.7830280435726
28,885.7631739216249
29,885.7443763825759
30,885.7265338273259
31,885.7095415172165
32,885.6932925396973
33,885.6776787463743
34,885.6625916578989
35,885.6479233307772
36,885.6335671808869
37,885.6194187580152
38,885.6053764657726
39,885.5913422220892
40,885.577222057066
41,885.5629266467029
42,885.548371782246
43,885.533478775211
44,885.5181747979883
45,885.5023931601908
46,885.486073522003
47,885.4691620473886
48,885.4516115013702
49,885.4333812962919
50,885.4144374922096
51,885.3947527565929
52,885.3743062883642
53,885.3530837109612
54,885.3310769386734
55,885.3082840197906
56,885.2847089590535
57,885.2603615209565
58,885.2352570150823
59,885.2094160647637
60,885.1828643605526
61,885.1556324001259
62,885.1277552166301
63,885.0992720982473
64,885.070226302675
65,885.0406647706086
66,885.0106378417927
67,884.9801989757995
68,884.9494044776468
69,884.9183132260266
70,884.8869863996077
71,884.855487195208
72,884.8238805313363
73,884.7922327319983
74,884.7606111881578
75,884.7290839968374
76,884.6977195798049
77,884.6665862850126
78,884.6357519744879
79,884.605283602031
80,884.575246782917
81,884.5457053565821
82,884.5167209430242
83,884.4883524947807
84,884.4606558483881
85,884.4336832812173
86,884.4074830808023
87,884.3820991343932
88,884.3575705471003
89,884.3339312979024
90,884.311209943341
91,884.2894293779312
92,884.2686066578706
93,884.2487528911449
94,884.2298731937535
95,884.2119667093832
96,884.1950266887573
97,884.1790406247286
98,884.1639904393901
99,884.149852719693
100,884.1365989981385
101,884.124196074717
102,884.1126063754097
103,884.1017883419786
104,884.0916968479105
105,884.0822836357939
106,884.0734977716
107,884.0652861114165
108,884.0575937764567
109,884.0503646326097
110,884.0435417712403
111,884.0370679881445
112,884.0308862572979
113,884.0249401951236
114,884.0191745095593
115,884.0135354266843
116,884.0079710867855
117,884.0024319019865
118,883.9968708687538
119,883.9912438300922
120,883.9855096834322
121,883.9796305310284
122,883.9735717705283
123,883.9673021245445
124,883.9607936094437
125,883.9540214448705
126,883.9469639067298
127,883.9396021275637
128,883.9319198495342
129,883.923903136615
130,883.9155400542215
131,883.9068203261794
132,883.8977349801147
133,883.8882759926455
134,883.8784359450849
135,883.8682076989696
136,883.8575840990294
137,883.8465577097109
138,883.8351205901604
139,883.8232641114439
140,883.810978818802
141,883.7982543413211
142,883.7850793515976
143,883.7714415778687
144,883.7573278695812
145,883.7427243145659
146,883.7276164033027
147,883.7119892344039
148,883.6958277552986
149,883.6791170324166
150,883.6618425453714
151,883.6439904995926
152,883.6255481514343
153,883.6065041391041
154,883.586848812089
155,883.5665745512856
156,883.5456760718304
157,883.5241507008782
158,883.5019986236762
159,883.4792230932501
160,883.4558306014533
161,883.4318310115829
162,883.4072376550671
163,883.3820673966303
164,883.356340673324
165,883.3300815124114
166,883.3033175315812
167,883.2760799231173
168,883.2484034221894
169,883.2203262585799
170,883.19189009082
171,883.1631399218662
172,883.1341239960966
173,883.104893678157
174,883.0755033144237
175,883.046010077462
176,883.0164737932516
177,882.9869567505115
178,882.9575234911056
179,882.928240579687
180,882.8991763491564
181,882.8704006171708
182,882.841984369347
183,882.8139994072509
184,882.7865179625114
185,882.7596122810957
186,882.7333541833049
187,882.7078146053249
188,882.6830631276637
189,882.659167495424
190,882.636193135734
191,882.6142026787722
192,882.593255490303
193,882.5734072252297
194,882.5547094130416
195,882.5372090865512
196,882.5209484644464
197,882.505964696002
198,882.492289673555
199,882.4799499156387
200,882.4689665211836
201,882.4593551930328
202,882.4511263274338
203,882.4442851651098
204,882.438831998593
205,882.4347624294969
206,882.4320676686584
207,882.4307348720176
208,882.4307475055592
209,882.4320857329019
210,882.4347268188474
211,882.4386455417093
212,882.4438146071623
213,882.4502050569282
214,882.457786666705
215,882.4665283290847
216,882.4763984186593
217,882.4873651376672
218,882.4993968409035
219,882.5124623381498
220,882.5265311716174
221,882.5415738653558
222,882.5575621433126
223,882.5744691125361
224,882.5922694077368
225,882.6109392932183
226,882.6304567184171
227,882.6508013241718
228,882.6719543981371
229,882.69389877896
230,882.7166187097187
231,882.7400996419776
232,882.7643279928445
233,882.7892908584297
234,882.8149756878184
235,882.8413699221115
236,882.8684606034624
237,882.8962339595213
238,882.9246749693784
239,882.9537669180402
240,882.9834909474268
241,883.0138256124411
242,883.0447464506068
243,883.0762255733127
244,883.1082312862179
245,883.1407277461628
246,883.1736746620883
247,883.2070270478476
248,883.240735034901
249,883.2747437520163
250,883.3089932772309
251,883.3434186650459
252,883.3779500497704
253,883.4125128242114
254,883.4470278913092
255,883.4814119847496
256,883.5155780532101
257,883.5494357019744
258,883.5828916852474
259,883.6158504425872
260,883.6482146732939
261,883.6798859430991
262,883.7107653176854
263,883.7407540171989
264,883.769754085045
265,883.7976690631128
266,883.8244046644094
267,883.8498694333821
268,883.8739753845942
269,883.8966386121258
270,883.917779864601
271,883.9373250830585
272,883.9552059002989
273,883.9713601009538
274,883.9857320415895
275,883.9982730298722
276,884.0089416614178
277,884.0177041127729
278,884.0245343891086
279,884.0294145255441
280,884.0323347416523
281,884.0332935496691
282,884.0322978178154
283,884.0293627902201
284,884.0245120639545
285,884.0177775222694
286,884.0091992222117
287,883.9988252347872
288,883.9867114366627
289,883.9729212536909
290,883.9575253576809
291,883.9406013181484
292,883.9222332102788
293,883.9025111798067
294,883.8815309656504
295,883.85939338209
296,883.8362037638753
297,883.8120713795339
298,883.787108819681
299,883.7614313676421
300,883.7351563590278
301,883.7084025354434
302,883.6812893960142
303,883.653936549526
304,883.6264630701716
305,883.5989868611322
306,883.5716240319354
307,883.5444882968316
308,883.5176904017296
309,883.4913375866221
310,883.4655330893941
311,883.4403756958361
312,883.4159593396256
313,883.3923727550098
314,883.369699183886
315,883.3480161379622
316,883.3273952159057
317,883.3079019752983
318,883.2895958599044
319,883.2725301835457
320,883.2567521717483
321,883.2423030609261
322,883.2292182526619
323,883.2175275182722
324,883.2072552466718
325,883.1984207268479
326,883.1910384552124
327,883.1851184578119
328,883.1806666177902
329,883.1776849995159
330,883.1761721622911
331,883.1761234584371
332,883.1775313127038
333,883.1803854820803
334,883.1846732968863
335,883.190379885292
336,883.1974883842771
337,883.2059801406955
338,883.2158349064806
339,883.2270310318155
340,883.2395456591976
341,883.2533549198879
342,883.2684341323135
343,883.2847579995689
344,883.3023008005965
345,883.3210365677453
346,883.3409392429141
347,883.3619828053622
348,883.3841413659195
349,883.407389224095
350,883.4317008862963
351,883.4570510452158
352,883.4834145223637
353,883.5107661772277
354,883.5390807871405
355,883.5683329016338
356,883.5984966742783
357,883.6295456743835
358,883.6614526810433
359,883.69418946282
360,883.7277265471033
361,883.7620329832806
362,883.7970761035837
363,883.8328212855214
364,883.869231720111
365,883.9062681899803
366,883.9438888605517
367,883.9820490865502
368,884.020701235686
369,884.0597945312832
370,884.0992749150212
371,884.1390849297682
372,884.1791636215477
373,884.2194464597144
374,884.2598652752114
375,884.3003482177353
376,884.3408197333558
377,884.3812005644552
378,884.4214077736924
379,884.4613547931817
380,884.5009514995033
381,884.5401043146932
382,884.5787163331519
383,884.6166874745403
384,884.6539146628764
385,884.69029203175
386,884.7257111549048
387,884.7600613010409
388,884.793229712015
389,884.8251019044245
390,884.8555619951435
391,884.8844930513721
392,884.9117774654314
393,884.9372973544795
394,884.9609349858634
395,884.9825732297414
396,885.0020960412035
397,885.0193889739824
398,885.0343397272229
399,885.0468387260255
400,885.0567797354829
401,885.0640605063329
402,885.068583448245
403,885.070256324662
404,885.0689929613767
405,885.0647139594317
406,885.0573474013249
407,885.0468295382635
408,885.0331054458724
409,885.0161296365158
410,884.9958666179532
411,884.9722913897766
412,884.9453898704508
413,884.9151592490667
414,884.8816082578434
415,884.8447573638966
416,884.8046388808232
417,884.7612970015475
418,884.7147877539255
419,884.6651788802744
420,884.6125496416571
421,884.5569905477021
422,884.4986030132161
423,884.4374989439023
424,884.3738002550003
425,884.3076383282611
426,884.2391534137004
427,884.1684939825293
428,884.0958160368947
429,884.0212823816659
430,883.9450618638482
431,883.8673285855077
432,883.7882610956468
433,883.7080415656599
434,883.6268549526739
435,883.5448881554895
436,883.4623291683566
437,883.3793662378081
438,883.2961870275075
439,883.21297779625
440,883.12992259497
441,883.047202489282
442,882.9649948141973
443,882.8834724672411
444,882.8028032455815
445,882.7231492322209
446,882.6446662357109
447,882.5675032871409
448,882.4918021973884
449,882.4176971768657
450,882.3453145190213
451,882.274772347581
452,882.2061804262873
453,882.1396400290986
454,882.0752438682366
455,882.0130760767099
456,881.9532122409174
457,881.8957194777581
458,881.8406565494186
459,881.7880740079804
460,881.7380143618495
461,881.6905122575159
462,881.6455946732974
463,881.6032811252942
464,881.5635838882788
465,881.5265082349694
466,881.4920526963353
467,881.4602093437486
468,881.430964091602
469,881.4042970172951
470,881.3801826947572
471,881.3585905377511
472,881.3394851493547
473,881.3228266739827
474,881.3085711487233
475,881.2966708524891
476,881.287074654505
477,881.2797283668003
478,881.2745751071791
479,881.2715556788862
480,881.2706089712073
481,881.2716723824442
482,881.2746822638622
483,881.2795743807819
484,881.2862843852022
485,881.2947482932481
486,881.3049029604234
487,881.3166865479159
488,881.3300389734615
489,881.3449023401428
490,881.3612213363344
491,881.3789436004969
492,881.3980200456277
493,881.4184051392139
494,881.440057134872
495,881.4629382515375
496,881.4870147955356
497,881.5122572205975
498,881.538640120902
499,881.5661421523847
500,881.5947458779744
501,881.6244375336538
502,881.6552067146495
503,881.687045984292
504,881.7199504113378
505,881.7539170440095
506,881.7889443301777
507,881.8250314929571
508,881.8621778701144
509,881.9003822250983
510,881.9396420378008
511,881.9799527840885
512,882.021307214245
513,882.0636946415948
514,882.1071002535459
515,882.1515044577395
516,882.19688227585
517,882.2432027970307
518,882.2904287019802
519,882.3385158667455
520,882.3874130528992
521,882.4370616885542
522,882.4873957435893
523,882.5383417023373
524,882.5898186370003
525,882.6417383845791
526,882.6940058288811
527,882.7465192871734
528,882.7991709983669
529,882.8518477067428
530,882.90443133272
531,882.9567997201561
532,883.0088274480182
533,883.0603866931356
534,883.1113481306701
535,883.1615818600038
536,883.2109583452142
537,883.2593493602786
538,883.3066289293126
539,883.3526742518965
540,883.3973666034907
541,883.4405922015079
542,883.4822430291097
543,883.5222176113695
544,883.5604217415173
545,883.5967691573122
546,883.6311821682209
547,883.6635922332573
548,883.6939404880284
549,883.7221782185359
550,883.7482672788874
551,883.7721804500293
552,883.7939017364369
553,883.8134265969315
554,883.8307621044904
555,883.8459270286688
556,883.8589518338254
557,883.8698785869747
558,883.8787607705787
559,883.8856629974651
560,883.8906606268832
561,883.8938392822245
562,883.8952942722361
563,883.8951299189672
564,883.8934587975033
565,883.8904008946369
566,883.8860826954673
567,883.880636208271
568,883.874197939036
569,883.8669078279033
570,883.8589081601235
571,883.8503424639077
572,883.8413544070596
573,883.8320867038103
574,883.8226800429674
575,883.8132720483625
576,883.8039962825342
577,883.7949813043883
578,883.7863497911197
579,883.7782177338408
580,883.7706937150148
581,883.7638782739891
582,883.7578633650338
583,883.7527319106898
584,883.748557451859
585,883.7454038945849
586,883.743325351925
587,883.7423660781923
588,883.742560492316
589,883.7439332866007
590,883.7464996163633
591,883.7502653651613
592,883.7552274800909
593,883.7613743716887
594,883.7686863727337
595,883.77713624931
596,883.7866897560222
597,883.7973062257844
598,883.8089391834825
599,883.8215369718441
600,883.8350433771318
601,883.8493982425247
602,883.8645380588525
603,883.8803965250828
604,883.8969050735286
605,883.9139933564911
606,883.931589691987
607,883.9496214666607
608,883.9680154944177
609,883.9866983303604
610,884.0055965415046
611,884.0246369381686
612,884.0437467720957
613,884.0628539086077
614,884.0818869799724
615,884.1007755257757
616,884.1194501239682
617,884.1378425142098
618,884.1558857139322
619,884.1735141273708
620,884.1906636481549
621,884.2072717562298
622,884.2232776098075
623,884.23862213322
624,884.2532481024195
625,884.2671002314078
626,884.2801252645825
627,884.2922720811041
628,884.3034918172959
629,884.3137380115735
630,884.3229667739517
631,884.3311369798088
632,884.3382104860782
633,884.3441523671578
634,884.3489311667653
635,884.3525191605096
636,884.3548926227668
637,884.3560320912812
638,884.3559226237418
639,884.3545540416658
640,884.3519211573831
641,884.3480239794657
642,884.3428678910564
643,884.336463794997
644,884.3288282200252
645,884.319983383696
646,884.3099572097045
647,884.2987832990788
648,884.2865008554127
649,884.273154564102
650,884.2587944254976
651,884.2434755425612
652,884.2272578643474
653,884.210205886443
654,884.1923883082409
655,884.1738776455188
656,884.1547497963924
657,884.135083559721
658,884.1149601068859
659,884.0944624097717
660,884.0736746294268
661,884.0526814712642
662,884.0315675139775
663,884.0104165206449
664,883.9893107416164
665,883.9683302194596
666,883.947552106366
667,883.92705000419
668,883.9068933370274
669,883.8871467660059
670,883.8678696554562
671,883.849115598476
672,883.830932008235
673,883.8133597796273
674,883.7964330239962
675,883.7801788770697
676,883.7646173768751
677,883.7497614052519
678,883.7356166850074
679,883.7221818252273
680,883.7094484090399
681,883.697401120108
682,883.6860179055831
683,883.6752701741415
684,883.6651230283891
685,883.6555355314891
686,883.6464610082585
687,883.6378473812556
688,883.6296375428458
689,883.6217697648178
690,883.6141781474101
691,883.6067931091795
692,883.5995419179529
693,883.5923492613892
694,883.5851378539371
695,883.5778290756638
696,883.5703436376094
697,883.5626022678015
698,883.5545264118242
699,883.5460389419994
700,883.5370648697326
701,883.5275320560186
702,883.5173719151276
703,883.5065201061209
704,883.494917206408
705,883.4825093613168
706,883.4692489034284
707,883.4550949349557
708,883.4400138655876
709,883.423979897102
710,883.4069754450582
711,883.3889914875751
712,883.3700278320334
713,883.3500932924645
714,883.3292057727932
715,883.3073922531697
716,883.2846886778965
717,883.2611397439288
718,883.2367985890337
719,883.2117263792717
720,883.1859917972577
721,883.1596704356618
722,883.1328441039166
723,883.1056000593751
724,883.0780301767088
725,883.0502300707452
726,883.0222981881217
727,882.9943348823903
728,882.9664414862733
729,882.9387193939518
730,882.9112691651562
731,882.8841896609649
732,882.8575772190301
733,882.8315248744092
734,882.8061216317635
735,882.781451794907
736,882.7575943594749
737,882.7346224732382
738,882.7126029666076
739,882.6915959541079
740,882.6716545069505
741,882.652824397533
742,882.635143918041
743,882.618643776111
744,882.6033470700679
745,882.5892693447709
746,882.5764187270502
747,882.5647961374965
748,882.5543955735152
749,882.545204457603
750,882.5372040443473
751,882.5303698786922
752,882.5246722961151
753,882.5200769533203
754,882.5165453770563
755,882.5140355192572
756,882.512502308522
757,882.5118981902393
758,882.5121736498165
759,882.513277715115
760,882.515158435526
761,882.517763336742
762,882.5210398521187
763,882.5249357324428
764,882.5293994350766
765,882.5343804915359
766,882.539829850924
767,882.54570019581
768,882.5519462267548
769,882.5585249115982
770,882.5653956961303
771,882.5725206739025
772,882.5798647141396
773,882.5873955474372
774,882.5950838092045
775,882.6029030411831
776,882.6108296522242
777,882.6188428404971
778,882.6269244796954
779,882.6350589714036
780,882.6432330655031
781,882.6514356516099
782,882.6596575270419
783,882.6678911491483
784,882.6761303804748
785,882.6843702342755
786,882.6926066266248
787,882.7008361407395
788,882.7090558088328
789,882.7172629161357
790,882.7254548303878
791,882.7336288585107
792,882.7417821309252
793,882.7499115133909
794,882.7580135463951
795,882.7660844126741
796,882.7741199336132
797,882.7821155943332
798,882.7900665951646
799,882.7979679247618
800,882.8058144483904
801,882.8136010046088
802,882.8213225046203
803,882.828974030367
804,882.8365509290928
805,882.8440489027824
806,882.851464090208
807,882.858793137657
808,882.8660332529658
809,882.8731822374128
810,882.88023849173
811,882.8872009953362
812,882.8940692606944
813,882.9008432664943
814,882.9075233741048
815,882.9141102320972
816,882.9206046743118
817,882.9270076181226
818,882.9333199707521
819,882.939542551916
820,882.9456760404721
821,882.9517209515009
822,882.9576776487986
823,882.9635463961588
824,882.9693274489721
825,882.9750211856395
826,882.9806282763578
827,882.9861498853182
828,882.9915879012007
829,882.9969451895896
830,883.0022258593515
831,883.0074355334874
832,883.0125816141641
833,883.017673531801
834,883.0227229689306
835,883.0277440507269
836,883.03275349583
837,883.0377707237359
838,883.042817918244
839,883.0479200491435
840,883.0531048555446
841,883.0584027940363
842,883.0638469541443
843,883.0694729434093
844,883.0753187451695
845,883.0814245533858
846,883.0878325898402
847,883.0945869091696
848,883.1017331964118
849,883.1093185603227
850,883.1173913239172
851,883.1260008117729
852,883.135197131967
853,883.145030949466
854,883.1555532474298
855,883.1668150730897
856,883.1788672654434
857,883.1917601628301
858,883.2055432894066
859,883.2202650204982
860,883.235972227642
861,883.2527099049981
862,883.2705207798105
863,883.2894449106824
864,883.3095192784431
865,883.3307773750861
866,883.3532487964832
867,883.3769588444909
868,883.4019281442982
869,883.4281722836575
870,883.4557014812447
871,883.4845202909078
872,883.5146273471338
873,883.5460151554344
874,883.5786699297707
875,883.6125714772247
876,883.6476931277914
877,883.6840017049119
878,883.7214575309616
879,883.7600144619
880,883.7996199466297
881,883.8402151087588
882,883.8817348508403
883,883.9241079834977
884,883.9672573838582
885,884.011100188893
886,884.0555480292879
887,884.1005073084468
888,884.1458795295333
889,884.1915616712985
890,884.2374466111371
891,884.2834235918497
892,884.3293787276306
893,884.3751955450424
894,884.4207555555263
895,884.4659388563554
896,884.5106247566015
897,884.554692424237
898,884.5980215503365
899,884.6404930260692
900,884.6819896272452
901,884.7223966996813
902,884.7616028370884
903,884.7995005420773
904,884.8359868606035
905,884.8709639809656
906,884.9043397903711
907,884.9360283845801
908,884.9659505282888
909,884.9940340648898
910,885.0202142740814
911,885.044434175056
912,885.0666447724085
913,885.0868052419221
914,885.1048830540698
915,885.1208540342166
916,885.1347023600833
917,885.1464204991572
