frame_number,force
0,859.6268300098727
1,859.6393849036566
2,859.6520771884149
3,859.6650430672867
4,859.6784163814422
5,859.6923274618952
6,859.7069020174048
7,859.7222600667171
8,859.7385149220563
9,859.755772229905
10,859.774129074533
11,859.7936731494868
12,859.8144820023612
13,859.8366223583013
14,859.8601495275086
15,859.8851069016504
16,859.9115255437862
17,859.9394238761191
18,859.9688074692119
19,859.9996689351759
20,860.0319879260643
21,860.0657312376637
22,860.1008530183103
23,860.1372950824101
24,860.1749873289998
25,860.2138482664442
26,860.2537856442635
27,860.2946971913495
28,860.3364714567954
29,860.3789887464359
30,860.4221221458247
31,860.4657386186744
32,860.5097001683163
33,860.5538650483566
34,860.5980890075614
35,860.6422265533121
36,860.686132217976
37,860.7296618132751
38,860.772673658935
39,860.815029773246
40,860.8565970145468
41,860.8972481640207
42,860.9368629412936
43,860.9753289447884
44,861.0125425088414
45,861.0484094699588
46,861.0828458357493
47,861.1157783517007
48,861.1471449624999
49,861.1768951659797
50,861.2049902593137
51,861.2314034788451
52,861.2561200367146
53,861.2791370589736
54,861.3004634309301
55,861.3201195561373
56,861.33813703588
57,861.3545582761723
58,861.3694360289275
59,861.3828328733963
60,861.3948206438562
61,861.4054798099199
62,861.4148988160619
63,861.4231733866866
64,861.4304058027485
65,861.436704155935
66,861.4421815863335
67,861.446955508735
68,861.4511468314415
69,861.4548791704359
70,861.4582780615907
71,861.4614701741508
72,861.4645825293884
73,861.4677417285941
74,861.4710731943122
75,861.4747004279445
76,861.4787442856776
77,861.4833222735651
78,861.488547861934
79,861.4945298193052
80,861.5013715667222
81,861.509170554552
82,861.5180176649752
83,861.527996644249
84,861.5391835696155
85,861.5516463566115
86,861.5654443131511
87,861.5806277466326
88,861.5972376295251
89,861.6153053279428
90,861.6348523971368
91,861.6558904478734
92,861.6784210879841
93,861.7024359433021
94,861.727916761078
95,861.7548355967185
96,861.7831550818115
97,861.8128287686196
98,861.8438015440963
99,861.8760101052026
100,861.9093834868827
101,861.9438436343396
102,861.9793060120437
103,862.0156802429597
104,862.0528707725247
105,862.09077755264
106,862.1292967410533
107,862.1683214109247
108,862.2077422643534
109,862.2474483423961
110,862.2873277227154
111,862.3272681948147
112,862.3671579026294
113,862.406885945698
114,862.4463429329421
115,862.4854214861722
116,862.5240166926877
117,862.5620265074922
118,862.599352106286
119,862.635898191151
120,862.6715732516641
121,862.7062897847043
122,862.7399644762341
123,862.7725183480281
124,862.8038768718037
125,862.8339700524999
126,862.8627324814578
127,862.8901033587829
128,862.9160264821694
129,862.9404501975422
130,862.9633273060615
131,862.9846149228975
132,863.0042742854152
133,863.0222705113707
134,863.0385723107277
135,863.0531516571599
136,863.0659834268461
137,863.0770450128041
138,863.0863159229219
139,863.0937773690993
140,863.0994118537876
141,863.1032027592078
142,863.1051339438632
143,863.1051893505212
144,863.1033526297275
145,863.0996067833325
146,863.0939338329719
147,863.0863145181846
148,863.0767280277952
149,863.0651517668705
150,863.0515611605539
151,863.0359294957482
152,863.018227801921
153,862.9984247726936
154,862.9764867297515
155,862.95237762993
156,862.9260591155323
157,862.8974906074549
158,862.8666294405398
159,862.8334310402907
160,862.7978491391201
161,862.7598360288051
162,862.7193428445707
163,862.6763198757342
164,862.6307168980333
165,862.5824835231623
166,862.5315695615029
167,862.4779253945995
168,862.4215023543171
169,862.3622531051224
170,862.3001320243602
171,862.2350955734594
172,862.1671026517561
173,862.096114924635
174,862.0220971187028
175,861.9450172779627
176,861.8648469759728
177,861.7815614799969
178,861.6951398646428
179,861.6055650743261
180,861.5128239355636
181,861.416907121276
182,861.3178090702306
183,861.2155278658757
184,861.1100650801674
185,861.0014255892362
186,860.889617368519
187,860.7746512749072
188,860.6565408222858
189,860.5353019546434
190,860.4109528184373
191,860.2835135340758
192,860.1530059659065
193,860.0194534909796
194,859.8828807684013
195,859.7433135121034
196,859.6007782695489
197,859.45530220757
198,859.3069129053438
199,859.1556381542073
200,859.0015057644066
201,858.8445433793484
202,858.6847782981628
203,858.5222373073586
204,858.3569465219521
205,858.1889312356817
206,858.0182157790009
207,857.8448233828713
208,857.6687760461575
209,857.4900944045764
210,857.3087975995068
211,857.1249031454479
212,856.9384267955613
213,856.7493824055
214,856.557781796607
215,856.3636346205965
216,856.1669482290005
217,855.967727551531
218,855.7659749877128
219,855.5616903161209
220,855.3548706259891
221,855.1455102766657
222,854.9336008905095
223,854.7191313839332
224,854.5020880399645
225,854.2824546245968
226,854.0602125483956
227,853.8353410738853
228,853.6078175679344
229,853.3776177969102
230,853.1447162609302
231,852.9090865620226
232,852.6707017995925
233,852.4295349859032
234,852.1855594747899
235,851.9387493980493
236,851.6890801050831
237,851.4365286021521
238,851.1810739882667
239,850.9226978852228
240,850.6613848591882
241,850.3971228306783
242,850.1299034693658
243,849.8597225703757
244,849.5865804093354
245,849.310482074045
246,849.0314377709807
247,848.7494631047509
248,848.4645793281167
249,848.1768135596952
250,847.8861989665742
251,847.5927749098026
252,847.2965870515964
253,846.9976874237036
254,846.6961344566216
255,846.3919929693134
256,846.0853341188867
257,845.7762353095892
258,845.4647800606326
259,845.151057832959
260,844.8351638160906
261,844.5171986773347
262,844.1972682763941
263,843.8754833487386
264,843.5519591609828
265,843.2268151409804
266,842.9001744846456
267,842.5721637412179
268,842.2429123791329
269,841.9125523355156
270,841.5812175527583
271,841.2490435049931
272,840.9161667159227
273,840.5827242690375
274,840.2488533129712
275,839.9146905679466
276,839.580371841787
277,839.2460315641634
278,838.9118023457717
279,838.5778145664301
280,838.2441959941195
281,837.9110714364649
282,837.5785624268268
283,837.2467869479201
284,836.9158591955817
285,836.5858893837407
286,836.2569835894686
287,835.9292436350235
288,835.602767002514
289,835.2776467763086
290,834.9539716082544
291,834.6318257008803
292,834.3112888040355
293,833.9924362207845
294,833.6753388184343
295,833.3600630401302
296,833.0466709120869
297,832.7352200419093
298,832.4257636046649
299,832.1183503147926
300,831.8130243828592
301,831.5098254563834
302,831.2087885437231
303,830.9099439198144
304,830.6133170125987
305,830.3189282694628
306,830.0267930041508
307,829.7369212261563
308,829.4493174556659
309,829.1639805270804
310,828.8809033834999
311,828.600072864252
312,828.3214694879663
313,828.0450672349126
314,827.770833334091
315,827.4987280623158
316,827.2287045636988
317,826.960708698363
318,826.6946789291752
319,826.4305462550598
320,826.1682341988039
321,825.9076588556205
322,825.6487290060743
323,825.3913462940238
324,825.1354054678452
325,824.8807946818996
326,824.627395855123
327,824.375085084355
328,824.1237331107152
329,823.8732058373088
330,823.6233648958392
331,823.374068258806
332,823.1251708929718
333,822.8765254484657
334,822.6279829762119
335,822.3793936647498
336,822.1306075866506
337,821.8814754451594
338,821.6318493133357
339,821.3815833602782
340,821.1305345611762
341,820.8785633891097
342,820.6255344863905
343,820.3713173124947
344,820.1157867653575
345,819.8588237733164
346,819.60031585578
347,819.3401576511143
348,819.078251410069
349,818.8145074523371
350,818.5488445827283
351,818.2811904622284
352,818.0114819281931
353,817.739665257199
354,817.4656963637192
355,817.1895409279773
356,816.9111744473748
357,816.6305822079155
358,816.3477591747786
359,816.0627098041193
360,815.7754477809244
361,815.485995690076
362,815.1943846294135
363,814.9006537744688
364,814.6048499048026
365,814.3070269015064
366,814.0072452242978
367,813.705571374928
368,813.4020773521696
369,813.0968401031446
370,812.7899409760777
371,812.4814651799778
372,812.1715012567544
373,811.8601405708287
374,811.5474768208235
375,811.2336055777498
376,810.9186238540556
377,810.6026297073033
378,810.2857218807719
379,809.9679994812698
380,809.649561692504
381,809.3305075209398
382,809.0109355703797
383,808.6909438413277
384,808.3706295511055
385,808.0500889703139
386,807.7294172705557
387,807.4087083775405
388,807.0880548228997
389,806.7675475873632
390,806.4472759276201
391,806.1273271795854
392,805.8077865322853
393,805.488736769031
394,805.1702579751048
395,804.8524272128932
396,804.5353181660664
397,804.2190007543383
398,803.903540719829
399,803.58899918553
400,803.2754321865591
401,802.962890176461
402,802.6514175136975
403,802.3410519369598
404,802.0318240410239
405,801.7237567669758
406,801.4168649214915
407,801.1111547393289
408,800.8066235014894
409,800.5032592193945
410,800.201040393574
411,799.899935853833
412,799.5999046863891
413,799.3008962516442
414,799.0028502937943
415,798.7056971406931
416,798.4093579900377
417,798.1137452764589
418,797.8187631134753
419,797.5243078043322
420,797.230268416288
421,796.9365274135713
422,796.6429613445615
423,796.3494415786729
424,796.0558350883017
425,795.7620052713478
426,795.4678128100942
427,795.1731165622886
428,794.8777744799205
429,794.5816445504123
430,794.2845857538143
431,793.9864590283723
432,793.6871282357155
433,793.3864611160733
434,793.0843302235966
435,792.7806138323631
436,792.4751968048689
437,792.167971415946
438,791.8588381254934
439,791.5477062935755
440,791.2344948323502
441,790.9191327913842
442,790.601559875601
443,790.281726897362
444,789.959596165344
445,789.6351418129008
446,789.3083500677011
447,788.9792194628644
448,788.6477609879461
449,788.3139981765479
450,787.9779671265369
451,787.6397164491536
452,787.2993071446192
453,786.9568124036892
454,786.6123173359741
455,786.2659186261346
456,785.9177241187376
457,785.5678523327811
458,785.2164319081346
459,784.863600987733
460,784.5095065402501
461,784.1543036276445
462,783.7981546209421
463,783.4412283669967
464,783.0836993093737
465,782.7257465677349
466,782.3675529815995
467,782.0093041256835
468,781.6511873048535
469,781.2933905372337
470,780.9361015347217
471,780.5795066915126
472,780.2237900927532
473,779.8691325562213
474,779.5157107195156
475,779.1636961841887
476,778.8132547272322
477,778.4645455890369
478,778.1177208446452
479,777.7729248619876
480,777.4302938479119
481,777.0899554808778
482,776.7520286280126
483,776.4166231433771
484,776.0838397434501
485,775.7537699548742
486,775.4264961287026
487,775.1020915151662
488,774.7806203933366
489,774.4621382502847
490,774.1466920039837
491,773.8343202637036
492,773.5250536214884
493,773.218914968262
494,772.9159198277044
495,772.616076700431
496,772.3193874108273
497,772.0258474495063
498,771.7354463056388
499,771.448167785014
500,771.1639903112766
501,770.8828872092301
502,770.6048269705387
503,770.3297735036884
504,770.0576863715547
505,769.7885210213132
506,769.5222290128232
507,769.2587582527592
508,768.9980532419007
509,768.7400553415052
510,768.4847030619029
511,768.2319323736201
512,767.9816770394777
513,767.733868965243
514,767.4884385660663
515,767.2453151459637
516,767.0044272882128
517,766.765703255693
518,766.5290714014711
519,766.2944605908109
520,766.0618006359637
521,765.8310227446447
522,765.6020599823102
523,765.3748477474774
524,765.1493242582281
525,764.9254310465178
526,764.7031134551539
527,764.482321130714
528,764.263008504566
529,764.0451352536453
530,763.8286667325751
531,763.6135743687148
532,763.3998360117378
533,763.1874362298812
534,762.9763665466414
535,762.7666256142402
536,762.5582193227725
537,762.3511608457034
538,762.1454706232071
539,761.9411762853207
540,761.7383125176159
541,761.5369208732105
542,761.3370495361222
543,761.1387530417104
544,760.9420919598938
545,760.7471325460076
546,760.5539463629799
547,760.3626098774827
548,760.1732040321333
549,759.9858137955181
550,759.8005276913916
551,759.6174373078518
552,759.436636787094
553,759.2582222969803
554,759.0822914868983
555,758.9089429314229
556,758.7382755654796
557,758.5703881141529
558,758.405378519662
559,758.2433433680762
560,758.0843773194356
561,757.9285725466773
562,757.7760181900376
563,757.6267998333889
564,757.4809990073254
565,757.3386927217905
566,757.1999530296982
567,757.0648466226302
568,756.933434459871
569,756.8057714323035
570,756.6819060625661
571,756.5618802422013
572,756.4457290056181
573,756.3334803403123
574,756.22515503341
575,756.1207665559992
576,756.0203209880339
577,755.9238169869336
578,755.8312458021792
579,755.7425913368645
580,755.6578302562001
581,755.5769321428206
582,755.499859699224
583,755.4265689980672
584,755.357009780843
585,755.291125804698
586,755.2288552361094
587,755.1701310889923
588,755.1148817036495
589,755.063031261813
590,755.014500331811
591,754.96920643676
592,754.9270646378503
593,754.8879881243163
594,754.8518888012907
595,754.8186778664835
596,754.7882663669458
597,754.7605657281579
598,754.7354882486328
599,754.7129475534105
600,754.6928589994322
601,754.6751400258735
602,754.6597104438744
603,754.6464926624844
604,754.6354118500909
605,754.6263960326277
606,754.6193761315923
607,754.6142859464726
608,754.6110620872927
609,754.6096438634409
610,754.6099731349868
611,754.6119941325023
612,754.615653250832
613,754.6208988213721
614,754.6276808667673
615,754.6359508420283
616,754.6456613668432
617,754.6567659549927
618,754.669218748186
619,754.6829742632168
620,754.6979871624011
621,754.7142120567129
622,754.7316033481821
623,754.7501151137224
624,754.769701028554
625,754.7903143253075
626,754.8119077844452
627,754.8344337515188
628,754.8578441762957
629,754.8820906682728
630,754.9071245628016
631,754.932896991957
632,754.9593589544804
633,754.9864613798568
634,755.0141551827223
635,755.0423913049412
636,755.0711207436453
637,755.1002945643261
638,755.1298638988604
639,755.1597799293096
640,755.1899938594963
641,755.2204568775089
642,755.251120113131
643,755.2819345945654
644,755.3128512085007
645,755.3438206668186
646,755.3747934825616
647,755.4057199573687
648,755.4365501821306
649,755.4672340517084
650,755.4977212931844
651,755.5279615057826
652,755.5579042100619
653,755.587498904706
654,755.6166951308137
655,755.6454425453118
656,755.6736910063952
657,755.7013906745019
658,755.7284921321134
659,755.7549465247519
660,755.7807057243149
661,755.8057225147131
662,755.8299507986894
663,755.8533458237173
664,755.8758644242328
665,755.8974652774916
666,755.9181091708657
667,755.9377592788142
668,755.9563814479517
669,755.9739444891261
670,755.9904204763379
671,756.0057850527828
672,756.0200177433273
673,756.0331022705068
674,756.0450268686972
675,756.0557845893476
676,756.0653735892472
677,756.0737973934606
678,756.0810651243717
679,756.0871916882605
680,756.092197911545
681,756.0961106205351
682,756.0989626606887
683,756.1007928531398
684,756.1016458875594
685,756.1015721516435
686,756.1006274989896
687,756.098872958563
688,756.0963743898451
689,756.0932020881314
690,756.089430344857
691,756.0851369686288
692,756.0804027736214
693,756.0753110428918
694,756.0699469748756
695,756.0643971216771
696,756.0587488277595
697,756.0530896774139
698,756.0475069589054
699,756.0420871521112
700,756.036915444474
701,756.0320752773167
702,756.0276479218195
703,756.0237120824539
704,756.0203435259493
705,756.0176147351328
706,756.0155945881496
707,756.0143480642364
708,756.0139359775412
709,756.0144147407028
710,756.0158361603482
711,756.0182472673393
712,756.0216901850055
713,756.0262020381803
714,756.0318149047328
715,756.0385558101977
716,756.0464467657765
717,756.0555048502308
718,756.0657423362779
719,756.0771668615681
720,756.0897816435091
721,756.1035857365716
722,756.1185743303
723,756.1347390858427
724,756.1520685082493
725,756.1705483511157
726,756.1901620493649
727,756.2108911749324
728,756.2327159090618
729,756.2556155241815
730,756.2795688680801
731,756.3045548431415
732,756.3305528735218
733,756.3575433532742
734,756.3855080688264
735,756.4144305901908
736,756.4442966267266
737,756.4750943446248
738,756.506814643975
739,756.5394513932657
740,756.5730016191008
741,756.6074656492425
742,756.6428472077099
743,756.6791534613436
744,756.7163950181665
745,756.7545858790589
746,756.7937433453806
747,756.833887885806
748,756.8750429658202
749,756.9172348435234
750,756.9604923359294
751,757.0048465605176
752,757.050330657096
753,757.0969794951677
754,757.1448293721008
755,757.1939177072384
756,757.244282736563
757,757.2959632118472
758,757.3489981074925
759,757.4034263371775
760,757.4592864806508
761,757.5166165188606
762,757.5754535740853
763,757.6358336518686
764,757.697791383401
765,757.7613597694848
766,757.8265699291754
767,757.8934508570401
768,757.9620291927123
769,758.0323290052734
770,758.104371593471
771,758.1781753015235
772,758.2537553495379
773,758.3311236773653
774,758.4102888011003
775,758.4912556822417
776,758.5740256102537
777,758.6585960995169
778,758.7449608016957
779,758.8331094346844
780,758.9230277295396
781,759.0146973968928
782,759.1080961141777
783,759.2031975350135
784,759.2999713227716
785,759.3983832114981
786,759.4983950979812
787,759.5999651682642
788,759.7030480606662
789,759.8075950660311
790,759.9135543647232
791,760.0208712986725
792,760.1294886754658
793,760.2393471001909
794,760.3503853296704
795,760.4625406429856
796,760.5757492218178
797,760.6899465340294
798,760.8050677139147
799,760.921047932723
800,761.037822753622
801,761.1553284662717
802,761.2735023975504
803,761.3922831964638
804,761.5116110924467
805,761.6314281266972
806,761.7516783559988
807,761.8723080283423
808,761.9932657301914
809,762.1145025062953
810,762.2359719537419
811,762.3576302921269
812,762.4794364119186
813,762.6013519037538
814,762.7233410719984
815,762.8453709358478
816,762.9674112206924
817,763.0894343417815
818,763.2114153812474
819,763.3333320581997
820,763.4551646903283
821,763.5768961451488
822,763.6985117800384
823,763.8199993718015
824,763.9413490375455
825,764.062553148592
826,764.1836062384539
827,764.3045049053891
828,764.4252477101392
829,764.545835069878
830,764.6662691495621
831,764.786553751574
832,764.906694204067
833,765.0266972480604
834,765.1465709232053
835,765.2663244523291
836,765.3859681254136
837,765.5055131843129
838,765.6249717099422
839,765.7443565138885
840,765.8636810363579
841,765.9829592517292
842,766.1022055815926
843,766.2214348134822
844,766.3406620223845
845,766.4599024919589
846,766.5791716330671
847,766.6984848980413
848,766.8178576898104
849,766.9373052659029
850,767.0568426389624
851,767.176484477469
852,767.2962450119438
853,767.4161379522943
854,767.5361764211331
855,767.6563729062491
856,767.7767392332169
857,767.8972865567307
858,768.0180253672339
859,768.1389655083296
860,768.2601162001115
861,768.3814860634371
862,768.5030831403784
863,768.6249149070085
864,768.7469882761213
865,768.869309588611
866,768.9918845925994
867,769.1147184093486
868,769.237815485095
869,769.3611795283585
870,769.484813432859
871,769.6087191868764
872,769.7328977709254
873,769.8573490469116
874,769.9820716428558
875,770.1070628371355
876,770.2323184451394
877,770.3578327100512
878,770.4835981988905
879,770.6096057050194
880,770.7358441586763
881,770.8623005473128
882,770.988959847775
883,771.1158049731736
884,771.2428167384709
885,771.3699738495978
886,771.4972529208266
887,771.6246285242642
888,771.7520732739432
889,771.87955794543
890,772.0070516305518
891,772.1345219259108
892,772.2619351531372
893,772.389256608316
894,772.5164508377784
895,772.6434819372593
896,772.7703138707495
897,772.8969108040276
898,773.0232374463371
899,773.1492593928547
900,773.2749434612052
901,773.4002580173261
902,773.5251732883094
903,773.6496616610823
904,773.7736979656796
905,773.8972597414216
906,774.0203274843547
907,774.142884874692
908,774.2649189829863
909,774.3864204529685
910,774.5073836575956
911,774.6278068236911
912,774.7476921204727
913,774.8670457083064
914,774.9858777453386
915,775.1042023503552
916,775.2220375204613
917,775.3394050030474
