acceleration,velocity,displacement
-0.034836836326443736,0.0,0.0
-0.03417909380473422,-1.725398253279449e-05,-4.313495633198623e-09
-0.03352389534488508,-3.417972982019931e-05,-1.7171923721447073e-08
-0.03287376468412996,-5.077914482745307e-05,-3.841164238336017e-08
-0.03223118527814634,-6.705538231802216e-05,-6.787027416972898e-08
-0.0315985810553044,-8.301282390138484e-05,-1.0538732572458073e-07
-0.030978298181479742,-9.865704371058088e-05,-1.5080479262757216e-07
-0.030372588079515296,-0.00011399476527582964,-2.0396774487417478e-07
-0.029783591885008263,-0.00012903381026696054,-2.6472488875987236e-07
-0.02921332645648818,-0.00014378303985233465,-3.3292910128969615e-07
-0.02866367200184147,-0.00015825228946691707,-4.084379336195091e-07
-0.028136361341465663,-0.00017245229780274386,-4.911140804369244e-07
-0.027632970804472193,-0.0001863946308392283,-5.808258125974174e-07
-0.027154912744082303,-0.00020009160172636693,-6.774473707388162e-07
-0.026703429655208576,-0.00021355618732618966,-7.808593180019553e-07
-0.02627958987260865,-0.00022680194220814397,-8.909488503855387e-07
-0.025884284815412082,-0.00023984291088014915,-1.0076100636576119e-06
-0.025518227723999042,-0.0002526935390150019,-1.1307441761313996e-06
-0.025181953813310686,-0.00026536858439932937,-1.2602597069849824e-06
-0.024875821749605186,-0.0002778830282900583,-1.3960726101573294e-06
-0.024600016350157777,-0.00029025198781499907,-1.5381063641835937e-06
-0.024354552406341733,-0.00030249063000412394,-1.6862920186383743e-06
-0.024139279530474064,-0.0003146140879883279,-1.8405681981364873e-06
-0.02395388791845928,-0.0003266373798505612,-2.00088106509621e-06
-0.023797914911174868,-0.00033857533055796975,-2.1671842426983427e-06
-0.023670752243813303,-0.0003504424973467168,-2.3394386996745142e-06
-0.02357165390081422,-0.00036225309888287367,-2.517612598731912e-06
-0.023499744533583656,-0.00037402094849147316,-2.7016811105754985e-06
-0.023454028429036194,-0.00038575939173212813,-2.891626195631399e-06
-0.023433399024333938,-0.0003974812485954707,-3.0874363557132984e-06
-0.023436648946877473,-0.00040919876058827356,-3.2891063580092343e-06
-0.023462480531420672,-0.0004209235429578481,-3.4966369338957646e-06
-0.02350951674135243,-0.00043266654227604135,-3.710034455204237e-06
-0.02357631240294908,-0.0004444379995621167,-3.929310590663776e-06
-0.023661365649426967,-0.00045624741907521074,-4.154481945323108e-06
-0.02376312946671315,-0.00046810354285424575,-4.3855696858054725e-06
-0.02388002323708761,-0.00048001433103019595,-4.622599154276583e-06
-0.024010444189604793,-0.0004919869478868691,-4.86559947400585e-06
-0.024152778684711648,-0.0005040277536054482,-5.114603149378929e-06
-0.024305413279944014,-0.0005161423015966121,-5.369645663179444e-06
-0.024466745536993274,-0.0005283353413008464,-5.630765073903809e-06
-0.02463519453223916,-0.0005406108263181545,-5.89800161580856e-06
-0.02480921102636627,-0.0005529719277078058,-6.17139730431505e-06
-0.024987287244621785,-0.0005654210522755529,-6.4509955493108895e-06
-0.02516796622481737,-0.0005779598656429127,-6.736840778790506e-06
-0.025349850700884233,-0.000590589319874338,-7.028978075169818e-06
-0.025531611494708104,-0.0006033096854232361,-7.327452826494212e-06
-0.025711995383485963,-0.0006161205871427846,-7.632310394635717e-06
-0.02588983239936652,-0.0006290210440884977,-7.943595802443538e-06
-0.026064042508962628,-0.00064200951281558,-8.261353441669557e-06
-0.026233641611268534,-0.0006550839338456377,-8.585626803334862e-06
-0.02639774678049213,-0.0006682417809435779,-8.916458232032165e-06
-0.026555580668079448,-0.0006814801128057208,-9.25388870546949e-06
-0.026706474973290772,-0.0006947956267160633,-9.597957640349936e-06
-0.026849872899635877,-0.000708184713684295,-9.948702725450027e-06
-0.026985330534650916,-0.0007216435145428666,-1.0306159782506817e-05
-0.027112517116930423,-0.000735167976455762,-1.0670362655256473e-05
-0.027231214179007073,-0.0007487539092797463,-1.104134312669035e-05
-0.027341313573653298,-0.0007623970412179114,-1.1419130864314765e-05
-0.027442814405706378,-0.0007760930732127513,-1.1803753392922431e-05
-0.027535818904236415,-0.0007898377315402371,-1.2195236094110678e-05
-0.027620527281311702,-0.0008036268180866242,-1.2593602231517394e-05
-0.027697231635577642,-0.0008174562578158465,-1.2998873000493012e-05
-0.027766308974541094,-0.0008313221429683762,-1.3411067600689067e-05
-0.027828213448601924,-0.0008452207735741619,-1.38302033298247e-05
-0.027883467906300276,-0.0008591486939128874,-1.4256295696696463e-05
-0.027932654887082457,-0.0008731027246112332,-1.4689358551327493e-05
-0.02797640716290966,-0.0008870799901237312,-1.5129404230011235e-05
-0.02801539792725778,-0.000901077941396273,-1.5576443712891236e-05
-0.028050330717144856,-0.0009150943735573737,-1.6030486791629647e-05
-0.028081929147968726,-0.0009291274385236521,-1.6491542244649903e-05
-0.028110926545214764,-0.000943175652446948,-1.6959618017392553e-05
-0.0281380555674429,-0.0009572378979751125,-1.743472140499807e-05
-0.028164037923973116,-0.0009713134213479664,-1.791685923482884e-05
-0.02818957429480724,-0.0009854018244026615,-1.8406038046266495e-05
-0.028215334560709227,-0.0009995030516165406,-1.8902264265271297e-05
-0.028241948448496885,-0.001013617372368842,-1.9405544371267642e-05
-0.028269996690341866,-0.0010277453586535518,-1.9915885054023242e-05
-0.02830000278788476,-0.0010418878585231085,-2.0433293358317407e-05
-0.02833242546300786,-0.0010560459655858316,-2.0957776814344644e-05
-0.02836765186454528,-0.0010702209849177198,-2.1489343551970533e-05
-0.028405991580589568,-0.0010844143957790037,-2.2028002397144715e-05
-0.028447671480609733,-0.0010986278115443036,-2.257376294897554e-05
-0.028492831388016254,-0.0011128629372614601,-2.3126635636176982e-05
-0.02854152057028542,-0.0011271215252510356,-2.3686631751805105e-05
-0.028593695031538163,-0.0011414053291514915,-2.4253763465405736e-05
-0.02864921559562318,-0.0011557160568082818,-2.482804381189568e-05
-0.028707846772268585,-0.0011700553224002549,-2.5409486656697813e-05
-0.028769256406336378,-0.001184424598194906,-2.5998106636846604e-05
-0.028833016120076244,-0.0011988251663265091,-2.6593919077976957e-05
-0.02889860256462648,-0.0012132580709976848,-2.7196939887308006e-05
-0.02896539949442338,-0.0012277240715124471,-2.7807185422935537e-05
-0.029032700667724492,-0.001242223596552984,-2.8424672339951895e-05
-0.02909971356312722,-0.001256756700110697,-2.9049417414117816e-05
-0.029165563891063045,-0.0012713230194742445,-2.968143734401405e-05
-0.02922930087332011,-0.0012859217356653403,-3.0320748532798947e-05
-0.02928990326063558,-0.001300551536698829,-3.096736685088999e-05
-0.029346286053736365,-0.0013152105840274222,-3.162130738107155e-05
-0.029397307883610713,-0.001329896482511759,-3.228258414770635e-05
-0.02944177899370032,-0.0013446062542310866,-3.295120983189206e-05
-0.029478469755084544,-0.001359336316418283,-3.36271954745544e-05
-0.029506119641439697,-0.001374082463767414,-3.4310550169600824e-05
-0.02952344659602481,-0.00138883985532678,-3.500128074937437e-05
-0.029529156733642117,-0.0014036030061591969,-3.5699391464745864e-05
-0.02952195432783576,-0.0014183657839245663,-3.6404883662266806e-05
-0.029500552032653667,-0.0014331214105146887,-3.711775546087662e-05
-0.029463681280552084,-0.00144786246884299,-3.783800143071604e-05
-0.02941010278777459,-0.0014625809148600718,-3.85656122766418e-05
-0.029338617089906587,-0.001477268094829492,-3.9300574529064195e-05
-0.029248075025618096,-0.0014919147678583732,-4.0042870244736164e-05
-0.029137388086227154,-0.0015065111336363345,-4.079247672010984e-05
-0.0290055385498552,-0.0015210468652953552,-4.154936621984276e-05
-0.02885158931729929,-0.0015355111472621437,-4.2313505722982134e-05
-0.028674693360384758,-0.0015498927179315647,-4.308485668928056e-05
-0.028474102685221665,-0.0015641799169429662,-4.3863374847999195e-05
-0.028249176705352756,-0.0015783607367906099,-4.4649010011432586e-05
-0.027999389912413297,-0.0015924228784450513,-4.5441705915241505e-05
-0.027724338725355145,-0.0016063538106044935,-4.624140008750389e-05
-0.02742374739907804,-0.0016201408321356017,-4.7048023748188916e-05
-0.027097472885696472,-0.0016337711372067954,-4.7861501740524516e-05
-0.02674550856747473,-0.0016472318825700883,-4.868175249546874e-05
-0.026367986815474996,-0.0016605102564158257,-4.950868803021522e-05
-0.025965180366751637,-0.0016735935482113822,-5.034221398137202e-05
-0.02553750255075301,-0.0016864692189407584,-5.118222967316006e-05
-0.02508550642786566,-0.0016991249711854131,-5.2028628220691604e-05
-0.024609882928010477,-0.0017115488185243822,-5.288129666811905e-05
-0.024111458096015656,-0.0017237291537803888,-5.374011616119524e-05
-0.023591189562933507,-0.0017356548156951261,-5.4604962153564125e-05
-0.023050162363999357,-0.0017473151536768594,-5.547570464590712e-05
-0.022489584209773324,-0.0017587000903203026,-5.635220845690641e-05
-0.021910780288656895,-0.0017698001814449103,-5.7234333524847715e-05
-0.0213151876450728,-0.0017806066734283427,-5.812193523856603e-05
-0.020704349147464128,-0.0017911115576264769,-5.9014864796329736e-05
-0.02007990703805171,-0.0018013076216728558,-5.991296959115457e-05
-0.019443596044616176,-0.0018111884974435228,-6.0816093620933666e-05
-0.018797236036849452,-0.0018207487054638892,-6.172407792166052e-05
-0.018142724225182618,-0.0018299836955293972,-6.263676102190884e-05
-0.017482026918832685,-0.001838889883315401,-6.355397941662004e-05
-0.016817170870690297,-0.001847464682762782,-6.447556805813958e-05
-0.016150234238262406,-0.00185570653404002,-6.540136086234029e-05
-0.0154833371914707,-0.0018636149268974533,-6.633119122757465e-05
-0.014818632206515366,-0.0018711904192469499,-6.726489256411075e-05
-0.0141582940951131,-0.001878434650822357,-6.820229883162808e-05
-0.013504509821091092,-0.001885350351801408,-6.914324508228403e-05
-0.012859468151847272,-0.0018919413462946425,-7.008756800680805e-05
-0.012225349187124708,-0.0018982125506293854,-7.103510648103905e-05
-0.01160431380565169,-0.0019041699663775796,-7.198570211029079e-05
-0.010998493072927489,-0.0019098206680972243,-7.293919976890949e-05
-0.010409977664441517,-0.0019151727857815665,-7.389544813237918e-05
-0.009840807378401662,-0.0019202354820422774,-7.485430019933514e-05
-0.00929296083425074,-0.0019250189240954405,-7.581561380086957e-05
-0.00876834547181783,-0.0019295342506719577,-7.677925209456142e-05
-0.008268787977470125,-0.0019337935340342797,-7.774508404073797e-05
-0.007796025263655087,-0.001937809737344561,-7.871298485858268e-05
-0.0073516961148416176,-0.0019415966676891853,-7.968283645984112e-05
-0.0069373335919406,-0.0019451689251158808,-8.065452785804238e-05
-0.006554358267620166,-0.001948541848080771,-8.162795555134154e-05
-0.006204072349332715,-0.0019517314557350091,-8.260302387729548e-05
-0.005887654731754453,-0.001954754387505281,-8.357964533810555e-05
-0.00560615700151166,-0.001957627840438597,-8.455774089509152e-05
-0.0053605003930000715,-0.001960369504787225,-8.553724023139797e-05
-0.005151473666158194,-0.0019629974983020144,-8.651808198217028e-05
-0.004979731849782177,-0.0019655302996809997,-8.750021393166603e-05
-0.0048457957738887725,-0.0019679866815869172,-8.848359317698301e-05
-0.004750052306436093,-0.0019703856436069983,-8.94681862582815e-05
-0.004692755212491135,-0.00197274634548673,-9.045396925555492e-05
-0.004674026561437194,-0.001975088040930212,-9.144092785215916e-05
-0.004693858613663254,-0.001977430012223987,-9.242905736544771e-05
-0.004752116120990842,-0.0019797915059076507,-9.341836274498062e-05
-0.00484853897879777,-0.001982191669682598,-9.440885853887818e-05
-0.004982745177366213,-0.001984649490721639,-9.540056882897924e-05
-0.005154234015591033,-0.001987183735519878,-9.639352713553962e-05
-0.005362389557647155,-0.0019898128914131877,-9.738777629227288e-05
-0.005606484328579788,-0.0019925551098847446,-9.838336829259736e-05
-0.005885683254724684,-0.001995428151780571,-9.938036410801369e-05
-0.006199047854486443,-0.0019984493345578734,-0.00010037883347959831
-0.006545540672412019,-0.002001635481689598,-0.00010137885468366018
-0.006924029932808735,-0.002005002874340903,-0.0001023805142726678
-0.0073332943835393,-0.00200856720541999,-0.00010338390679260803
-0.007772028313746101,-0.0020123435360943115,-0.0001043891344779866
-0.008238846753575975,-0.002016346254861142,-0.00010539630692572547
-0.00873229088609113,-0.0020205890392710588,-0.00010640554074925852
-0.009250833713323177,-0.0020250848204209125,-0.00010741695921418152
-0.00979288601601847,-0.002029845750353248,-0.00010843069185687506
-0.010356802626702948,-0.0020348831725139284,-0.00010944687408759185
-0.010940889002457129,-0.0020402075954212185,-0.00011046564677957564
-0.011543408050478255,-0.0020458286696844524,-0.00011148715584585205
-0.012162587138267372,-0.002051755168481639,-0.00011251155180539357
-0.01279662521162698,-0.0020579949715691125,-0.00011353898934040625
-0.013443699941421111,-0.0020645550528573748,-0.00011456962684651287
-0.014101974820130864,-0.002071441471547763,-0.00011560362597761416
-0.014769606133369823,-0.002078659366786138,-0.00011664115118719763
-0.01544474974346764,-0.0020862129557553473,-0.000117682369267833
-0.01612556764307855,-0.0020941055351019837,-0.00011872744889054734
-0.016810234262000037,-0.0021023394855782533,-0.0001197765601457174
-0.01749694253217913,-0.002110916279776798,-0.00012082987408705616
-0.018183909728062272,-0.0021198364928418584,-0.00012188756228021082
-0.01886938310106716,-0.0021290998160491408,-0.00012294979635743357
-0.019551645321268307,-0.0021387050731547248,-0.00012401674757973454
-0.020229019730163902,-0.0021486502394175828,-0.0001250885864078776
-0.020899875396192744,-0.002158932463199172,-0.0001261654820835318
-0.021562631948093585,-0.0021695480900352435,-0.0001272476022218404
-0.02221576414315044,-0.0021804926890580546,-0.00012833511241661373
-0.022857806116263153,-0.002191761081622908,-0.00012942817585928398
-0.023487355256601977,-0.002203347371966124,-0.00013052695297268124
-0.024103075668161538,-0.002215244979697315,-0.0001316316010605971
-0.024703701182450556,-0.002227446673909968,-0.00013274227397399893
-0.02528803790114589,-0.002239944608680867,-0.00013385912179464664
-0.02585496625150666,-0.00225273035971903,-0.00013498229053674661
-0.026403442538549364,-0.002265794961916544,-0.00013611192186715551
-0.02693249997879156,-0.0022791289475458795,-0.0001372481528445211
-0.027441249205312424,-0.0022927223848419054,-0.00013839111567761806
-0.02792887824550259,-0.002306564916704609,-0.00013954093750300468
-0.02839465198871771,-0.002320645799263164,-0.00014069774018199663
-0.028837911174055507,-0.002334953940053857,-0.00014186164011682588
-0.029258070932901965,-0.0023494779355805965,-0.0001430327480857345
-0.029654618920491326,-0.0023642061080439447,-0.00014421116909664063
-0.030027113073975736,-0.0023791265410425615,-0.00014539700225891226
-0.030375179043468335,-0.0023942271140719226,-0.00014659034067269087
-0.030698507348505762,-0.002409495535669916,-0.00014779127133512633
-0.030996850306491523,-0.0024249193750836657,-0.00014899987506281472
-0.031270018763313534,-0.002440486092351117,-0.0001502162264296734
-0.03151787863912357,-0.0024561830667017264,-0.0001514403937194366
-0.03174034729308795,-0.0024719976231847795,-0.00015267243889190824
-0.03193738971093113,-0.002487917057435784,-0.00015391241756206338
-0.03210901452178471,-0.0025039286584939632,-0.00015516037899104582
-0.032255269850580054,-0.0025200197295870545,-0.00015641636608806607
-0.032376239011749686,-0.002536177606802637,-0.0001576804154221635
-0.03247203605495605,-0.0025523896755693136,-0.0001589525572427565
-0.03254280118406892,-0.00256864338487907,-0.00016023281550786857
-0.0325886960833979,-0.0025849262591959364,-0.00016152120791888732
-0.03260989919875226,-0.002601225908016474,-0.00016281774596069043
-0.03260660103418291,-0.0026175300330747078,-0.00016412243494596322
-0.03257899953552906,-0.002633826433217136,-0.0001654352740625362
-0.032527295637541066,-0.0026501030070104035,-0.00016675625642259307
-0.032451689054040854,-0.002666347753183299,-0.0001680853691126415
-0.032352374389197955,-0.0026825487690441087,-0.00016942259324319835
-0.03222953763624386,-0.0026986942470504692,-0.000170767903997222
-0.03208335310607399,-0.0027147724697360485,-0.00017212127067641863
-0.03191398080383055,-0.0027307718032135247,-0.00017348265674465603
-0.03172156426189398,-0.002746680689479956,-0.0001748520198678294
-0.03150622884345305,-0.0027624876377562928,-0.00017622931194963848
-0.031268080538433086,-0.0027781812151017643,-0.000177614479162853
-0.031007205270972935,-0.002793750036554116,-0.00017900746197576696
-0.030723668723444564,-0.0028091827550527203,-0.00018040819517366866
-0.03041751666280988,-0.002824468051399284,-0.00018181660787528167
-0.030088775736778536,-0.002839594624499181,-0.0001832326235442563
-0.029737454692342746,-0.0028545511821064613,-0.0001846561599959077
-0.02936354595863274,-0.002869326432269205,-0.00018608712939950162
-0.028967027529829915,-0.0028839090756413205,-0.00018752543827647925
-0.028547865082414813,-0.0028982877987943816,-0.00018897098749508817
-0.02810601426658278,-0.002912451268631631,-0.00019042367226194468
-0.02764142312577962,-0.0029263881279797217,-0.00019188338211109752
-0.027154034617373125,-0.0029400869924155098,-0.00019335000089119633
-0.026643789225941534,-0.0029535364483763383,-0.00019482340675139429
-0.02611062767649664,-0.002966725052601948,-0.00019630347212663886
-0.02555449376805246,-0.0029796413329630854,-0.00019779006372303012
-0.024975337352879507,-0.002992273790743318,-0.00019928304250395673
-0.02437311747749208,-0.0030046109044509113,-0.0002007822636777553
-0.023747805680170323,-0.0030166411352403268,-0.0002022875766876781
-0.023099389419385264,-0.0030283529340152156,-0.000203798825204992
-0.022427875599464322,-0.003039734750269928,-0.00020531584712606328
-0.021733294163982616,-0.0030507750427107897,-0.00020683847457430847
-0.021015701735169104,-0.0030614622916855776,-0.00020836653390790755
-0.02027518527945956,-0.0030717850134392346,-0.00020989984573418875
-0.0195118657705583,-0.003081731776201739,-0.000211438224931599
-0.018725901804468228,-0.0030912912180954956,-0.00021298148068017332
-0.017917493105695553,-0.0031004520668230363,-0.00021452941650140295
-0.01708688386130998,-0.003109203161064788,-0.00021608183030837492
-0.016234365833713727,-0.003117533473488544,-0.00021763851446701324
-0.015360281225258366,-0.003125432135253287,-0.00021919925586919869
-0.014465025283255283,-0.0031328884618804153,-0.0002207638360184821
-0.01354904863514195,-0.0031398919803600146,-0.0002223320311290422
-0.012612859335489956,-0.0031464324573526724,-0.00022390361223847038
-0.01165702459936118,-0.003152499928336385,-0.00022547834533489264
-0.010682172195578602,-0.00315808472753512,-0.0002270559914988605
-0.009688991477430749,-0.0031631775184533723,-0.00022863630706035763
-0.008678234032760813,-0.0031677693248309204,-0.0002302190437711787
-0.007650713936012997,-0.003171851561823114,-0.0002318039489928422
-0.006607307578936962,-0.003175416067201851,-0.00023339076590009843
-0.005548953046369032,-0.0031784551323581775,-0.00023497923369998844
-0.004476648996467614,-0.0031809615328688865,-0.00023656908786629522
-0.003391453006557386,-0.003182928558369643,-0.00023816006038910486
-0.0022944793557716147,-0.0031843500414602253,-0.00023975188003906234
-0.0011868962312764888,-0.0031852203853569875,-0.00024134427264576664
-6.992236335427807e-05,-0.0031855345900056453,-0.0002429369613896073
0.001055176886361066,-0.0031852882763748936,-0.0002445296671062024
0.002187093941977762,-0.0031844777086678087,-0.0002461221086024631
0.003324483881448801,-0.003183099814211952,-0.00024771400298318304
0.004465969696698448,-0.0031811522008174152,-0.00024930506598694037
0.005610147890656613,-0.0031786331714205767,-0.00025089501232999987
0.006755594363386334,-0.003175541735857066,-0.00025248355605681926
0.00790087054374278,-0.0031718776196302837,-0.0002540704108956911
0.009044529721614483,-0.0031676412695639446,-0.0002556552906179896
