frame_number,force
0,497.56634000457046
1,497.6672861641734
2,497.76794070635844
3,497.86801383865316
4,497.9672193921996
5,498.0652765689347
6,498.16191161423166
7,498.2568593948986
8,498.3498648657888
9,498.44068441194446
10,498.52908705741004
11,498.6148555364052
12,498.6977872264846
13,498.7776949459359
14,498.85440761927964
15,498.92777081602384
16,498.997647168949
17,499.06391667889557
18,499.1264769131502
19,499.1852431040612
20,499.24014815332407
21,499.29114254557817
22,499.3381941731813
23,499.38128807297494
24,499.4204260757575
25,499.4556263699381
26,499.48692298202053
27,499.51436517754513
28,499.53801678648085
29,499.5579554570054
30,499.5742718418105
31,499.5870687221936
32,499.5964600772735
33,499.6025701079759
34,499.60553222724366
35,499.6054880291353
36,499.6025862502181
37,499.59698173674053
38,499.58883443015264
39,499.57830838183327
40,499.56557080611236
41,499.5507911794574
42,499.5341403928827
43,499.5157899635694
44,499.49591130985226
45,499.4746750911625
46,499.4522506117183
47,499.4288052844739
48,499.40450415044853
49,499.37950944760513
50,499.3539802221254
51,499.3280719729922
52,499.3019363190037
53,499.2757206768718
54,499.2495679404707
55,499.2236161539816
56,499.1979981743155
57,499.1728413201411
58,499.1482670066511
59,499.1243903675044
60,499.10131986786433
61,499.0791569143574
62,499.05799546886084
63,499.03792167348996
64,499.019013494204
65,499.0013403902097
66,498.9849630160144
67,498.9699329626342
68,498.9562925438613
69,498.94407463252855
70,498.93330255088165
71,498.9239900192267
72,498.91614116794835
73,498.90975061889884
74,498.90480364196776
75,498.90127639089656
76,498.8991362195458
77,498.8983420767214
78,498.8988449748703
79,498.9005885256362
80,498.90350953354306
81,498.9075386380199
82,498.9126009933556
83,498.91861697578514
84,498.92550290709795
85,498.933171785434
86,498.94153401588
87,498.9504981349723
88,498.9599715236625
89,498.96986110312434
90,498.98007400770405
91,498.99051822979993
92,499.00110323244263
93,499.0117405263662
94,499.02234420915977
95,499.0328314648688
96,499.04312302322637
97,499.0531435782978
98,499.06282216661464
99,499.07209250477706
100,499.08089328587005
101,499.0891684332687
102,499.0968673103929
103,499.10394488607994
104,499.11036185677705
105,499.1160847276747
106,499.1210858549547
107,499.1253434512157
108,499.1288415563294
109,499.1315699761086
110,499.13352419088346
111,499.13470523572164
112,499.13511955400185
113,499.1347788261304
114,499.13369977504607
115,499.1319039500482
116,499.12941749080875
117,499.1262708738966
118,499.1224986440926
119,499.11813913229673
120,499.113234161688
121,499.1078287443146
122,499.1019707709167
123,499.0957106967858
124,499.08910122553294
125,499.08219699114863
126,499.0750542375401
127,499.06773049449316
128,499.0602842496508
129,499.0527746170237
130,499.04526100309573
131,499.03780277143966
132,499.030458906077
133,499.02328767317357
134,499.016346280719
135,499.00969053674623
136,499.00337450778665
137,498.99745017981604
138,498.99196712384844
139,498.9869721683448
140,498.9825090813327
141,498.97861826643725
142,498.975336478323
143,498.972696563884
144,498.97072723559097
145,498.9694528825727
146,498.968893423313
147,498.96906420158547
148,498.9699759249079
149,498.97163464271637
150,498.9740417598378
151,498.97719407991497
152,498.9810838735262
153,498.9856989667759
154,498.99102284747266
155,498.9970347868428
156,499.0037099747895
157,499.01101966657575
158,499.0189313391668
159,499.02740885629817
160,499.03641264211694
161,499.0458998637498
162,499.0558246236211
163,499.06613816301774
164,499.0767890793105
165,499.0877235601351
166,499.0988856381155
167,499.11021746886894
168,499.1216596334186
169,499.1331514648797
170,499.14463139898044
171,499.1560373479204
172,499.16730709609664
173,499.17837871421597
174,499.18919098626986
175,499.19968384267065
176,499.20979879254725
177,499.21947934834725
178,499.22867143648415
179,499.23732378911836
180,499.2453883140229
181,499.25282044080154
182,499.2595794415817
183,499.2656287227602
184,499.27093608251505
185,499.2754739279826
186,499.2792194468674
187,499.2821547300185
188,499.28426684292754
189,499.28554784502876
190,499.2859947570195
191,499.28560947860495
192,499.28439866128554
193,499.2823735419834
194,499.27954974317953
195,499.2759470444776
196,499.27158912979866
197,499.2665033137339
198,499.2607202496122
199,499.2542736207819
200,499.2471998161642
201,499.23953759158934
202,499.23132771939464
203,499.2226126296849
204,499.2134360471286
205,499.2038426270725
206,499.19387759440974
207,499.18358638851834
208,499.173014317784
209,499.16220622741287
210,499.151206184145
211,499.140057181057
212,499.12880086501104
213,499.11747728885575
214,499.1061246905599
215,499.09477930183783
216,499.08347518882425
217,499.07224412674367
218,499.06111550982706
219,499.0501162976153
220,499.0392709991257
221,499.0286016963893
222,499.01812810814585
223,499.0078676932539
224,498.9978357918781
225,498.9880458006798
226,498.9785093760916
227,498.9692366577175
228,498.9602365023729
229,498.9515167183719
230,498.9430842893177
231,498.9349455769782
232,498.9271064940602
233,498.91957263999245
234,498.9123493961268
235,498.9054419806715
236,498.89885546731267
237,498.8925947737354
238,498.8866646265126
239,498.881069507573
240,498.8758135858675
241,498.8709006367607
242,498.8663339513819
243,498.8621162387104
244,498.8582495244264
245,498.85473505202765
246,498.85157319265613
247,498.848763369907
248,498.8463040046681
249,498.84419248359467
250,498.84242515400683
251,498.8409973478389
252,498.8399034370575
253,498.8391369223141
254,498.83869055565685
255,498.83855649691674
256,498.83872650153484
257,498.8391921350977
258,498.8399450073614
259,498.84097701696794
260,498.84228059776063
261,498.8438489582948
262,498.8456763072827
263,498.8477580589812
264,498.85009101393854
265,498.85267351207244
266,498.85550555643806
267,498.8585889068494
268,498.8619271427533
269,498.8655256947299
270,498.86939184400717
271,498.8735346896407
272,498.87796508369587
273,498.88269553577373
274,498.8877400891452
275,498.8931141712656
276,498.89883442165717
277,498.9049185004263
278,498.91138488104053
279,498.91825263107114
280,498.9255411842713
281,498.93327010709345
282,498.94145886304653
283,498.9501265788693
284,498.95929181658244
285,498.96897235490064
286,498.97918498281956
287,498.98994530780556
288,499.0012675805983
289,499.0131645378229
290,499.02564726253615
291,499.0387250618331
292,499.052405359841
293,499.066693603958
294,499.0815931822034
295,499.09710535002984
296,499.1132291656346
297,499.12996143343247
298,499.14729665593035
299,499.1652269949373
300,499.18374224393665
301,499.20282981446644
302,499.2224747401637
303,499.24265970211457
304,499.263365077833
305,499.28456901379906
306,499.30624751897784
307,499.3283745748847
308,499.35092225665466
309,499.3738608590868
310,499.3971590217807
311,499.4207838481001
312,499.44470101337976
313,499.46887485838323
314,499.4932684648898
315,499.5178437118109
316,499.54256131222985
317,499.5673808334675
318,499.5922607030743
319,499.61715820362303
320,499.6420294588682
321,499.66682941389314
322,499.6915118125804
323,499.71602917689967
324,499.74033279347685
325,499.76437271305167
326,499.78809776769606
327,499.81145560967127
328,499.83439277527197
329,499.8568547772429
330,499.8787862301112
331,499.9001310132604
332,499.9208324759618
333,499.9408336868136
334,499.9600777276727
335,499.97850802967133
336,499.99606874672327
337,500.01270516056496
338,500.02836411117926
339,500.0429944469791
340,500.0565474894406
341,500.06897750632527
342,500.080242186516
343,500.09030310859436
344,500.0991261948928
345,500.1066821426325
346,500.11294682368657
347,500.11790164442704
348,500.1215338570229
349,500.1238368137381
350,500.1248101566378
351,500.12445993665665
352,500.1227986577769
353,500.1198452437745
354,500.1156249266074
355,500.1101690570777
356,500.10351483982004
357,500.0957049959284
358,500.0867873577783
359,500.076814401985
360,500.0658427278856
361,500.0539324902493
362,500.0411467959371
363,500.0275510748296
364,500.01321243543265
365,499.9981990151635
366,499.9825793345781
367,499.9664216639489
368,499.94979340988857
369,499.93276052937046
370,499.9153869785524
371,499.8977342038793
372,499.8798606825049
373,499.8618215179529
374,499.843668095292
375,499.8254477983504
376,499.8072037901833
377,499.78897485742
378,499.77079531891314
379,499.7526949985733
380,499.7346992609589
381,499.7168291063445
382,499.69910132029503
383,499.6815286717148
384,499.6641201530138
385,499.64688125618795
386,499.6298142786797
387,499.61291865241424
388,499.5961912885965
389,499.57962693041446
390,499.5632185060215
391,499.54695747488415
392,499.53083416158677
393,499.51483807240885
394,499.4989581912545
395,499.48318325277376
396,499.46750199206605
397,499.4519033722984
398,499.43637679336763
399,499.42091228576
400,499.4055006940871
401,499.3901338548867
402,499.37480477317314
403,499.359507801472
404,499.3442388235951
405,499.328995443727
406,499.31377717994843
407,499.29858566005805
408,499.283424816406
409,499.2683010757962
410,499.2532235406452
411,499.2382041579982
412,499.2232578727919
413,499.20840276070834
414,499.1936601348316
415,499.1790546198172
416,499.16461418732985
417,499.15037014678904
418,499.13635708609667
419,499.122612758066
420,499.1091779091448
421,499.09609604725017
422,499.0834131457629
423,499.0711772822279
424,499.05943821348995
425,499.04824689280747
426,499.03765493748955
427,499.0277140572544
428,499.0184754541171
429,499.00998920465287
430,499.0023036353296
431,498.9954647014588
432,498.9895153800955
433,498.9844950866917
434,498.9804391244205
435,498.97737817398604
436,498.9753378305271
437,498.97433819295605
438,498.9743935098472
439,498.97551188502297
440,498.97769504541105
441,498.9809381733073
442,498.9852298043813
443,498.990551791436
444,498.9968793324969
445,499.0041810607077
446,499.01241919288304
447,499.0215497333106
448,499.0315227293316
449,499.04228257519264
450,499.05376836064397
451,499.06591426069065
452,499.0786499625572
453,499.0919011253442
454,499.1055898675145
455,499.1196352774767
456,499.1339539428815
457,499.1484604944384
458,499.16306815992954
459,499.17768932382296
460,499.19223608792737
461,499.2066208292204
462,499.22075675219844
463,499.23455843437216
464,499.2479423644094
465,499.26082747269294
466,499.2731356536598
467,499.2847922782446
468,499.2957266933437
469,499.3058727040479
470,499.3151690339609
471,499.32355975912697
472,499.33099471134955
473,499.3374298464922
474,499.34282757277737
475,499.34715703366487
476,499.35039433993427
477,499.35252274584076
478,499.353532764378
479,499.35342221709084
480,499.3521962149757
481,499.3498670685828
482,499.34645412707374
483,499.3419835475307
484,499.3364879971447
485,499.3300062919001
486,499.32258297617886
487,499.3142678485819
488,499.30511544018924
489,499.29518445233464
490,499.2845371616627
491,499.273238800697
492,499.261356922492
493,499.24896075852445
494,499.2361205798823
495,499.2229070724493
496,499.20939073649976
497,499.195641319701
498,499.18172729011127
499,499.1677153527023
500,499.1536700097431
501,499.1396531626803
502,499.1257237515146
503,499.11193742737595
504,499.0983462549852
505,499.0849984436931
506,499.07193810818933
507,499.05920506170236
508,499.0468346446721
509,499.0348575905876
510,499.0232999287248
511,499.01218292148354
512,499.00152303237763
513,498.99133192020935
514,498.981616455847
515,498.9723787596085
516,498.96361625863557
517,498.9553217644782
518,498.94748357126394
519,498.94008557438
520,498.9331074089507
521,498.92652460686327
522,498.92030877062433
523,498.91442776187944
524,498.90884590225954
525,498.9035241847397
526,498.8984204949038
527,498.8934898427939
528,498.8886846066912
529,498.88395479019044
530,498.8792482936738
531,498.8745112008886
532,498.8696880805517
533,498.8647223015709
534,498.85955635880896
535,498.8541322049757
536,498.8483915838413
537,498.84227636056795
538,498.835728846135
539,498.82869211426487
540,498.8211103108589
541,498.8129289574097
542,498.8040952505281
543,498.7945583593068
544,498.78426972134446
545,498.77318333786474
546,498.76125606888513
547,498.74844793028996
548,498.7347223950276
549,498.72004670001473
550,498.70439215903895
551,498.68773448082396
552,498.67005409095566
553,498.6513364564229
554,498.6315724116942
555,498.610758485234
556,498.58889722495974
557,498.56599752009913
558,498.54207491529246
559,498.5171519112587
560,498.4912582453701
561,498.46443114472874
562,498.43671554352
563,498.40816425609034
564,498.3788380979169
565,498.3488059480123
566,498.31814474747466
567,498.2869394293925
568,498.25528277510887
569,498.2232751913556
570,498.1910244028193
571,498.1586450559446
572,498.1262582320346
573,498.0939908702153
574,498.06197510289445
575,498.0303475080838
576,497.9992482851655
577,497.9688203635432
578,497.9392084560427
579,497.91055806980836
580,497.88301448684484
581,497.8567217253113
582,497.8318214921643
583,497.8084521378197
584,497.7867476234385
585,497.76683651072653
586,497.7488409828627
587,497.7328759036385
588,497.71904792034013
589,497.70745461473234
590,497.69818370619186
591,497.6913123117779
592,497.6869062693131
593,497.68501953048616
594,497.6856936310693
595,497.68895724467757
596,497.6948258252663
597,497.7033013419442
598,497.71437210808296
599,497.7280127056302
600,497.7441840051206
601,497.7628332818645
602,497.78389442888056
603,497.8072882672036
604,497.8329229540816
605,497.860694489076
606,497.8904873172247
607,497.92217502725526
608,497.95562114112954
609,497.99067998901097
610,498.02719766178626
611,498.0650130321412
612,498.10395883465463
613,498.14386279494227
614,498.18454879747884
615,498.2258380814954
616,498.2675504542579
617,498.309505510884
618,498.3515238496687
619,498.39342827206195
620,498.43504495731617
621,498.47620460289835
622,498.5167435219503
623,498.55650468808807
624,498.595338716786
625,498.6331047726344
626,498.66967139270054
627,498.70491721715155
628,498.73873161894124
629,498.7710152251976
630,498.8016803245436
631,498.830651157014
632,498.857864085788
633,498.8832676518728
634,498.9068225141503
635,498.92850127842775
636,498.9482882206323
637,498.96617891088187
638,498.9821797465847
639,498.99630740374556
640,499.00858821613105
641,499.01905749190263
642,499.0277587770428
643,499.0347430747004
644,499.04006802968
645,499.0437970878086
646,499.0459986407749
647,499.0467451679433
648,499.0461123873149
649,499.04417842841656
650,499.04102304054
651,499.03672684991517
652,499.03137067849286
653,499.02503493512233
654,499.01779908758056
655,499.00974122138814
656,499.0009376885352
657,498.9914628461007
658,498.98138888151
659,498.97078571828024
660,498.959720994102
661,498.94826010215314
662,498.9364662860677
663,498.92440077841417
664,498.9121229721724
665,498.89969061519867
666,498.8871600189742
667,498.8745862742678
668,498.8620234672445
669,498.84952489025534
670,498.8371432423718
671,498.8249308154235
672,498.8129396613514
673,498.8012217360852
674,498.7898290146053
675,498.77881357209367
676,498.76822762714545
677,498.75812354419907
678,498.7485537930986
679,498.7395708642416
680,498.73122713871453
681,498.7235747143006
682,498.71666518987456
683,498.7105494121926
684,498.70527719031077
685,498.70089698346504
686,498.6974555679532
687,498.69499768770464
688,498.6935656924763
689,498.6931991673917
690,498.6939345579577
691,498.6958047955538
692,498.69883892916107
693,498.7030617693039
694,498.7084935498762
695,498.71514961318576
696,498.7230401234656
697,498.7321698141481
698,498.7425377741389
699,498.7541372781024
700,498.7669556653989
701,498.7809742718842
702,498.79616841848224
703,498.8125074601623
704,498.8299548982046
705,498.848468557074
706,498.86800082512656
707,498.88849895636264
708,498.9099054288046
709,498.93215835370984
710,498.9551919287487
711,498.9789369276176
712,499.00332121809276
713,499.0282702999356
714,499.0537078534544
715,499.0795562892068
716,499.1057372894072
717,499.13217233221235
718,499.15878319140796
719,499.18549240592466
720,499.21222371554876
721,499.23890246087234
722,499.2654559469802
723,499.2918137716831
724,499.317908120049
725,499.34367402704066
726,499.3690496089375
727,499.3939762623496
728,499.4183988281483
729,499.44226571748834
730,499.4655289985255
731,499.48814444502335
732,499.5100715509846
733,499.5312735177771
734,499.55171722123873
735,499.5713731657062
736,499.59021543030644
737,499.60822161103306
738,499.62537276055207
739,499.6416533263022
740,499.6570510863469
741,499.67155708183896
742,499.68516554489713
743,499.6978738210743
744,499.70968228643585
745,499.72059426017125
746,499.73061591395395
747,499.7397561787868
748,499.74802664946606
749,499.75544148656667
750,499.7620173157035
751,499.76777312313646
752,499.77273014531437
753,499.7769117480628
754,499.780343289688
755,499.78305196209794
756,499.78506660531764
757,499.78641749308196
758,499.7871360899455
759,499.78725478302744
760,499.7868065936346
761,499.7858248754358
762,499.7843430067903
763,499.7823940854803
764,499.7800106345286
765,499.77722432778984
766,499.7740657431441
767,499.7705641491469
768,499.7667473284129
769,499.7626414388384
770,499.7582709125904
771,499.7536583924577
772,499.74882470507976
773,499.7437888702305
774,499.73856814463716
775,499.7331780980217
776,499.72763271831434
777,499.72194454231965
778,499.71612480758665
779,499.7101836209096
780,499.70413013876924
781,499.6979727551716
782,499.6917192927075
783,499.6853771928045
784,499.6789537005721
785,499.67245603848426
786,499.6658915623064
787,499.65926789303467
788,499.6525930200657
789,499.645875372453
790,499.63912385643874
791,499.6323478587966
792,499.6255572171844
793,499.61876216026457
794,499.6119732212911
795,499.6052011293054
796,499.59845668249517
797,499.59175060878607
798,499.585093419088
799,499.5784952585021
800,499.571965760106
801,499.5655139046726
802,499.5591478879018
803,499.5528749948924
804,499.5467014805956
805,499.5406324556249
806,499.534671778653
807,499.5288219583807
808,499.5230840688731
809,499.5174576818486
810,499.5119408183007
811,499.50652991965495
812,499.50121983636296
813,499.49600383078047
814,499.4908735920575
815,499.485819262901
816,499.4808294800566
817,499.475891431119
818,499.47099092962003
819,499.46611250881233
820,499.46123953301367
821,499.4563543244653
822,499.45143830347666
823,499.44647213976583
824,499.4414359127358
825,499.43630927752673
826,499.4310716322724
827,499.4257022809176
828,499.4201805858847
829,499.41448610589237
830,499.40859871621524
831,499.40249871142265
832,499.39616689348486
833,499.3895846501624
834,499.3827340294261
835,499.3755978155937
836,499.3681596121765
837,499.36040393508796
838,499.35231631807966
839,499.3438834305523
840,499.33509320659965
841,499.3259349832744
842,499.31639964550527
843,499.30647977469766
844,499.29616979763847
845,499.28546613172307
846,499.2743673218543
847,499.2628741641922
848,499.25098981272856
849,499.2387198660279
850,499.22607243244516
851,499.2130581722932
852,499.19969031540825
853,499.18598465298413
854,499.17195950321656
855,499.1576356506433
856,499.1430362590206
857,499.1281867573947
858,499.1131146989
859,499.09784959210634
860,499.08242270582537
861,499.0668668498575
862,499.0512161353299
863,499.035505718739
864,499.0197715340785
865,499.00405001794616
866,498.9883778329639
867,498.97279159456554
868,498.9573276051255
869,498.9420215983618
870,498.9269084968444
871,498.9120221861301
872,498.89739530942865
873,498.88305908599824
874,498.8690431550354
875,498.85537544563005
876,498.84208207282654
877,498.8291872594704
878,498.8167132826524
879,498.8046804422224
880,498.7931070477659
881,498.78200942010193
882,498.7714019035753
883,498.76129688596694
884,498.7517048238612
885,498.74263427274036
886,498.73409192248687
887,498.72608264006243
888,498.7186095220077
889,498.7116739599473
890,498.7052757218612
891,498.6994130501506
892,498.6940827751935
893,498.68928044129376
894,498.68500044111283
895,498.6812361543715
896,498.67798008635145
897,498.6752240016166
898,498.6729590487125
