acceleration,velocity,displacement
-0.03244422101452834,0.0,0.0
-0.030460552452497153,-1.5726193366756375e-05,-3.931548341689094e-09
-0.02848261439379813,-3.0461985078330198e-05,-1.5478592952960735e-08
-0.02651610148020286,-4.421166404683044e-05,-3.414700523425089e-08
-0.02456663714671036,-5.698234870355875e-05,-5.944550842184819e-08
-0.022639739288128458,-6.878394281226845e-05,-9.0887081300805e-08
-0.020740787390403,-7.962907448190131e-05,-1.2799033562434742e-07
-0.01887499152174911,-8.953301920993934e-05,-1.702808590473076e-07
-0.017047363512644968,-9.851360796853786e-05,-2.172925158419269e-07
-0.015262690581692549,-0.00010659112149212224,-2.6856869820709195e-07
-0.013525511581518164,-0.00011378817203292492,-3.2366352158835373e-07
-0.011840095949411754,-0.0001201295739156574,-3.821429580754993e-07
-0.010210425370028081,-0.00012564220424551736,-4.4358590261579303e-07
-0.008640178105915958,-0.00013035485511450338,-5.075851674557983e-07
-0.00713271591993519,-0.00013429807862096616,-5.737484008896656e-07
-0.005691073488326014,-0.00013750402597303147,-6.41698927038165e-07
-0.004317950181086772,-0.00014000628189038465,-7.11076504004019e-07
-0.0030157040726734056,-0.0001418396954538247,-7.815379983400714e-07
-0.0017863480435545715,-0.0001430402084828817,-8.52757974324248e-07
-0.0006315478423481466,-0.00014364468245435736,-9.244291970585577e-07
0.0004473779983962153,-0.00014369072491534534,-9.962630489009833e-07
0.0014494564643055409,-0.0001432165162996699,-1.0679898592047371e-06
0.002374056615870291,-0.00014226063802962594,-1.139359147787061e-06
0.0032208844156816287,-0.00014086190277173797,-1.2101397829874021e-06
0.003989975840317064,-0.0001390591877077383,-1.2801200556072712e-06
0.0046816883058029566,-0.00013689127167120828,-1.349107670452008e-06
0.005296690458734774,-0.00013439667698007384,-1.4169296576148284e-06
0.005835950404327427,-0.00013161351676430828,-1.483432206050924e-06
0.006300722449859391,-0.00012857934855076158,-1.5484804223796914e-06
0.006692532440886318,-0.00012533103482807514,-1.6119580182244006e-06
0.0070131617715239415,-0.00012190461127497258,-1.6737669297501626e-06
0.007264630172182362,-0.000118335163289046,-1.7338268733911672e-06
0.007449177418954047,-0.0001146567113912619,-1.7920748420612443e-06
0.0075692441541830415,-0.00011090210599797764,-1.8484645464085542e-06
0.007627452043334392,-0.00010710293194859828,-1.9029658058951982e-06
0.007626583516999257,-0.00010328942305851486,-1.9555638946469765e-06
0.007569561361479522,-9.949038683889517e-05,-2.006258847121329e-06
0.007459428422943934,-9.57331393927893e-05,-2.05506472867925e-06
0.007299327672135858,-9.204345036901935e-05,-2.1020088761197022e-06
0.007092482843014049,-8.844549774023188e-05,-2.147131113147015e-06
0.006842179823925062,-8.49618320734971e-05,-2.190482945600447e-06
0.006551748955932489,-8.161334987853271e-05,-2.2321267410884545e-06
0.006224548377017477,-7.841927554529522e-05,-2.2721348974444116e-06
0.00586394852981366,-7.539715131858743e-05,-2.310589004160382e-06
0.0054733179145505,-7.256283470749639e-05,-2.347579000666903e-06
0.00505601011842453,-6.993050269925263e-05,-2.3832023350185903e-06
0.004615352097669719,-6.751266214522907e-05,-2.417563126229711e-06
0.004154633643752209,-6.532016570987359e-05,-2.4507713331934865e-06
0.0036770979378125783,-6.33622328144824e-05,-2.4829419328245756e-06
0.003185933078814534,-6.164647506032562e-05,-2.514194109793278e-06
0.0026842644447989724,-6.017892567942224e-05,-2.544650459978215e-06
0.0021751477086593084,-5.896407264105767e-05,-2.574436209558335e-06
0.0016615622947215847,-5.800489514021245e-05,-2.6036784515036526e-06
0.0011464050531282332,-5.730290330325e-05,-2.6325054011145182e-06
0.0006324839568324813,-5.685818105075982e-05,-2.6610456722030208e-06
0.0001225116786453153,-5.666943214189037e-05,-2.6894275755011833e-06
-0.0003809010424158672,-5.673402948283301e-05,-2.717778440907364e-06
-0.0008752522979923196,-5.704806781793505e-05,-2.746223965232556e-06
-0.00135815618750504,-5.760641993930939e-05,-2.774887587171867e-06
-0.0018273502472747369,-5.8402796548004335e-05,-2.8038898912936954e-06
-0.002280703054616807,-5.9429809873477224e-05,-2.833348042899066e-06
-0.002716221892445088,-6.06790411102427e-05,-2.863375255644996e-06
-0.0031320603386400924,-6.214111166801399e-05,-2.89408029383956e-06
-0.0035265256353337647,-6.380575816150745e-05,-2.9255670112969404e-06
-0.0038980856923222563,-6.566191099342147e-05,-2.957933928585673e-06
-0.004245375583536504,-6.769777631238616e-05,-2.9912738504121246e-06
-0.004567203401926589,-6.990092105875194e-05,-3.025673524754909e-06
-0.004862555344915125,-7.225836074546236e-05,-3.0612133452059625e-06
-0.0051305999144074885,-7.475664956029302e-05,-3.097967097782401e-06
-0.005370691134319211,-7.738197232247469e-05,-3.136001753253093e-06
-0.005582370704841277,-8.012023778226481e-05,-3.175377305779278e-06
-0.005765369011557094,-8.29571727113644e-05,-3.216146658402685e-06
-0.005919604889278442,-8.587841618657329e-05,-3.2583555556271693e-06
-0.006045184022684819,-8.88696134145641e-05,-3.3020425630274534e-06
-0.006142395869612704,-9.191650838763848e-05,-3.347239093478004e-06
-0.006211709027120252,-9.500503461182173e-05,-3.393969479227869e-06
-0.00625376501659529,-9.812140312275061e-05,-3.442251088661512e-06
-0.006269370525123373,-0.00010125218700818028,-3.4920944861942447e-06
-0.006259488195257447,-0.00010438440168827548,-3.5435036333683585e-06
-0.006225226100947386,-0.00010750558026232668,-3.596476128856009e-06
-0.006167826081203104,-0.0001106038433078643,-3.6510034847485567e-06
-0.006088651123826919,-0.00011366796260912182,-3.7070714362278034e-06
-0.005989172003781073,-0.00011668741839102381,-3.7646602814778396e-06
-0.005870953388411195,-0.00011965244973907188,-3.823745248510364e-06
-0.00573563961798888,-0.0001225540979906719,-3.8842968854428e-06
-0.005584940345018739,-0.0001253842429814238,-3.946281470685824e-06
-0.0054206161774683955,-0.0001281356321120456,-4.009661439459191e-06
-0.005244464441734819,-0.0001308019022668464,-4.074395823053915e-06
-0.005058305172332565,-0.00013337759467036325,-4.140440697288217e-06
-0.004863967438758958,-0.00013585816282313614,-4.2077496366615925e-06
-0.0046632761215115275,-0.00013823997371320378,-4.2762741707956775e-06
-0.00445803923971264,-0.00014052030255350982,-4.345964239862356e-06
-0.004250035913445132,-0.00014269732134179926,-4.416768645836183e-06
-0.004041005023866774,-0.00014477008157612724,-4.488635496565664e-06
-0.0038326346184740117,-0.00014673849148671243,-4.561512639831374e-06
-0.003626552093553226,-0.00014860328816471925,-4.635348084744232e-06
-0.0034243151699447803,-0.00015036600498059374,-4.71009040803056e-06
-0.0032274036663522123,-0.000152028934689668,-4.785689142948126e-06
-0.003037212068727699,-0.00015359508862343796,-4.8620951487764024e-06
-0.002855042896125873,-0.00015506815236465135,-4.9392609590234245e-06
-0.0026821008759029467,-0.00015645243830765855,-5.017141106691502e-06
-0.0025194879562491076,-0.00015775283551569655,-5.095692425147341e-06
-0.0023681991843504386,-0.00015897475730084645,-5.174874323351477e-06
-0.0022291194566914562,-0.00016012408696110692,-5.254649034416965e-06
-0.0021030211178800677,-0.0001612071221047498,-5.334981836683429e-06
-0.001990562366314607,-0.00016223051797579848,-5.415841246703566e-06
-0.001892286423980479,-0.00016320123017337225,-5.497199183740858e-06
-0.0018086214298287226,-0.00016412645713682455,-5.579031105568407e-06
-0.0017398810124814243,-0.00016501358274740208,-5.661316115539464e-06
-0.0016862654954442437,-0.0001658701193743835,-5.74403704106991e-06
-0.0016478636936561864,-0.0001667036516716586,-5.827180483831421e-06
-0.001624655267252888,-0.00016752178141188586,-5.910736842102307e-06
-0.0016165135989580877,-0.00016833207362843862,-5.994700305862388e-06
-0.0016232091599329116,-0.00016914200431816136,-6.079068825349038e-06
-0.0016444133317531666,-0.00016995890994108288,-6.163844053913849e-06
-0.0016797026543507372,-0.00017078993893760886,-6.249031266133522e-06
-0.0017285634633546732,-0.00017164200546703523,-6.334639252234683e-06
-0.0017903968710834518,-0.00017252174555064476,-6.4206801899891035e-06
-0.0018645240464049953,-0.0001734354757800169,-6.5071694953217685e-06
-0.001950191758077372,-0.0001743891547311375,-6.594125652949557e-06
-0.002046578148926493,-0.00017538834720788845,-6.681570028434314e-06
-0.002152798698083553,-0.00017643819141964097,-6.769526663091197e-06
-0.002267912316197673,-0.00017754336917321127,-6.85802205323941e-06
-0.0023909275185425563,-0.00017870807913189632,-6.947084915315687e-06
-0.0025208086392058834,-0.00017993601317133342,-7.036745938391495e-06
-0.0026564820788584544,-0.0001812303358508495,-7.12703752564704e-06
-0.00279684260208534,-0.00018259366702108544,-7.2179935263650235e-06
-0.0029407597049818236,-0.00018402806759785224,-7.309648960019758e-06
-0.0030870840610253817,-0.00018553502853935403,-7.402039734054059e-06
-0.0032346540350923496,-0.00018711546306338347,-7.495202356954744e-06
-0.0033823022447400227,-0.00018876970213334157,-7.589173648253925e-06
-0.0035288621507601633,-0.00019049749323221663,-7.683990447095313e-06
-0.0036731746724152177,-0.00019229800243801047,-7.77968932101287e-06
-0.003814094835376303,-0.00019416981981495835,-7.876306276576113e-06
-0.00395049845927841,-0.00019611096813862202,-7.973876473564507e-06
-0.00408128887396728,-0.00019811891497193345,-8.072433944342147e-06
-0.00420540363111403,-0.00020019058809820378,-8.172011320109681e-06
-0.004321821166884336,-0.00020232239429770338,-8.272639565708658e-06
-0.00442956737327369,-0.0002045102414327429,-8.37434772464127e-06
-0.00452772203552467,-0.00020674956378494247,-8.47716267594569e-06
-0.004615425078714282,-0.0002090353505635022,-8.581108904532802e-06
-0.004691882540980604,-0.00021136217746842593,-8.686208286540784e-06
-0.004756372165301781,-0.0002137242411449965,-8.79247989119414e-06
-0.004808248485309094,-0.00021611539630764923,-8.8999398005573e-06
-0.004846947279187167,-0.00021852919524877328,-9.008600948446407e-06
-0.004871989282065262,-0.00022095892938908638,-9.118472979605871e-06
-0.004882983080636493,-0.00022339767247976183,-9.229562130073083e-06
-0.004879627158117496,-0.00022583832503945034,-9.341871129452886e-06
-0.004861711103667638,-0.00022827365960489664,-9.455399125613973e-06
-0.004829116041280822,-0.00023069636639113376,-9.570141632112981e-06
-0.00478181436504369,-0.0002330990989927149,-9.686090498458943e-06
-0.004719868885798864,-0.00023547451980542554,-9.803233903158478e-06
-0.004643431492541684,-0.00023781534490001068,-9.921556369334837e-06
-0.00455274141154923,-0.0002401143881260334,-1.0041038802591348e-05
-0.004448123119900048,-0.00024236460425889573,-1.016165855068758e-05
-0.004329983953712193,-0.0002445591310272988,-1.0283389484509128e-05
-0.004198811450195199,-0.00024669132987827563,-1.0406202099735522e-05
-0.0040551704652230895,-0.0002487548253571302,-1.0530063638544373e-05
-0.003899700101083892,-0.0002507435429987069,-1.0654938230633332e-05
-0.003733110462768259,-0.00025265174563966997,-1.0780787052792926e-05
-0.0035561792457885853,-0.00025447406806680916,-1.0907568506219545e-05
-0.0033697481485763015,-0.0002562055499154004,-1.1035238410715098e-05
-0.003174719093287422,-0.00025784166672586633,-1.1163750214875414e-05
-0.002972050225597483,-0.00025937835905558756,-1.1293055221320777e-05
-0.0027627516461377942,-0.0002608120595235214,-1.1423102825965554e-05
-0.002547880808662063,-0.00026213971763722134,-1.1553840770255738e-05
-0.002328537514535625,-0.00026335882221802077,-1.168521540521955e-05
-0.0021058584497327896,-0.00026446742120908785,-1.1817171966076326e-05
-0.0018810112421918641,-0.000265464138632069,-1.1949654856036615e-05
-0.0016551880421885933,-0.0002663481884531641,-1.2082607937807924e-05
-0.0014295986343357367,-0.0002671193851222952,-1.221597483120179e-05
-0.0012054630909793308,-0.00026777815055362397,-1.234969921512077e-05
-0.0009840039958821406,-0.00026832551732533934,-1.2483725132090511e-05
-0.0007664383066026131,-0.00026876312790096054,-1.2617997293397087e-05
-0.0005539689641153884,-0.00026909322971864003,-1.2752461382801987e-05
-0.00034777638135618296,-0.0002693186660550079,-1.2887064356745399e-05
-0.00014900994828287597,-0.00026944286263741766,-1.3021754738918506e-05
4.1220311877486735e-05,-0.000269469810046519,-1.315648290708949e-05
0.0002218518121575439,-0.00026940404201551026,-1.3291201370104997e-05
0.0003918771006441208,-0.00026925060978730985,-1.3425865033055702e-05
0.0005503511286182771,-0.00026901505272999425,-1.3560431448685027e-05
0.0006963980540076491,-0.00026870336543433776,-1.369486105322611e-05
0.0008292175432392839,-0.00026832196153502605,-1.382911738496845e-05
0.0009480905042698083,-0.0002678776345231488,-1.3963167283982995e-05
0.0010523841468858463,-0.00026737751586035987,-1.4096981071578872e-05
0.0011415562503987308,-0.00026682903076103874,-1.4230532708234222e-05
0.001215158535908812,-0.00026623985206446183,-1.4363799928940596e-05
0.0012728390750237103,-0.0002656178526617287,-1.4496764355122144e-05
0.0013143436948492029,-0.0002649710569692605,-1.4629411582529892e-05
0.0013395163572475252,-0.00026430759195623634,-1.4761731244761266e-05
0.0013482985166635981,-0.00026363563823775856,-1.4893717052309764e-05
0.00134072750374328,-0.00026296338173265683,-1.5025366807302368e-05
0.0013169340255135007,-0.00026229896635034263,-1.5156682394323118e-05
0.001277138896013024,-0.000261650448119961,-1.5287669747940695e-05
0.0012216491088353073,-0.0002610257511187489,-1.5418338797750373e-05
0.0011508533481886106,-0.00026043262550449293,-1.5548703391906184e-05
0.0010652170210744731,-0.00025987860791217715,-1.5678781200260352e-05
0.0009652768799177597,-0.0002593709844369291,-1.580859359834763e-05
0.0008516352858682104,-0.0002589167563954826,-1.593816553355573e-05
0.0007249541422560198,-0.0002585226090384515,-1.6067525374914214e-05
0.0005859485189690147,-0.00025819488337314525,-1.6196704748017114e-05
0.00043537999745065756,-0.0002579395512440403,-1.632573835667141e-05
0.0002740497850386577,-0.000257762193798418,-1.6454663792932027e-05
0.00010279166545740068,-0.00025766798343579395,-1.658352133724058e-05
-7.753513840890854e-05,-0.0002576616693040318,-1.6712353750425537e-05
-0.0002660531151450652,-0.0002577475663674203,-1.68412060593434e-05
-0.00046187356131647915,-0.0002579295480365357,-1.6970125337944388e-05
-0.0006641035586979727,-0.0002582110423165393,-1.7099160485532656e-05
-0.0008718527631624652,-0.00025859503139700444,-1.7228362003961043e-05
-0.001084239932413486,-0.00025908405457089845,-1.735778177545302e-05
-0.0013003991216019417,-0.0002596802143344023,-1.7487472842679342e-05
-0.0015194854841803975,-0.0002603851854858479,-1.7617489192634403e-05
-0.0017406806277347226,-0.0002612002270138267,-1.7747885545759322e-05
-0.001963197483426639,-0.000262126196541617,-1.7878717151648183e-05
-0.0021862846461816726,-0.0002631635670740191,-1.8010039592552092e-05
-0.002409230135346721,-0.0002643124457694012,-1.8141908595762946e-05
-0.0026313645255492753,-0.0002655725944346252,-1.8274379855813953e-05
-0.0028520634095395773,-0.0002669434514183974,-1.840750886727721e-05
-0.003070749168395562,-0.0002684241545628812,-1.854135076877253e-05
-0.00328689202670111,-0.0002700135648616553,-1.8675960198628663e-05
-0.003500010363687579,-0.0002717102904592525,-1.881139116245889e-05
-0.003709670250703058,-0.00027351271061285015,-1.8947696912726916e-05
-0.003915484199563238,-0.0002754189992254167,-1.9084929840186482e-05
-0.004117109130463121,-0.0002774271475579233,-1.9223141376882317e-05
-0.00431424359753759,-0.0002795349857399235,-1.936238191020678e-05
-0.004506624346236244,-0.00028174020272586696,-1.9502700707323227e-05
-0.004694022318820704,-0.0002840403643921312,-1.9644145849102727e-05
-0.004876238264386781,-0.0002864329295379331,-1.9786764172585243e-05
-0.005053098139796836,-0.000288915263638979,-1.9930601220879472e-05
-0.005224448505758694,-0.0002914846503003679,-2.007570119936431e-05
-0.005390152129177268,-0.00029413830045910193,-2.0222106937054176e-05
-0.005550083996489963,-0.00029687335949051875,-2.0369859852041583e-05
-0.005704127918524761,-0.0002996869124692724,-2.051899992003153e-05
-0.005852173862262229,-0.00030257598791446917,-2.0669565645127466e-05
-0.00599411608006001,-0.0003055375604000497,-2.0821594032206094e-05
-0.006129852030168303,-0.00030856855242760676,-2.097512056041301e-05
-0.006259282010810967,-0.0003116658359378516,-2.1130179157504376e-05
-0.0063823093857457375,-0.0003148262337869908,-2.1286802174935587e-05
-0.006498841274234001,-0.0003180465214519857,-2.144502036374533e-05
-0.006608789602976357,-0.0003213234291712883,-2.1604862851401147e-05
-0.006712072448928139,-0.0003246536446842644,-2.1766357119865036e-05
-0.00680861562331227,-0.0003280338167023245,-2.1929528985211682e-05
-0.0068983544529452176,-0.00033146055922138887,-2.209440257919261e-05
-0.006981235704326562,-0.00033493045676070683,-2.2261000333188134e-05
-0.007057219571308025,-0.00033844007057961547,-2.2429342965023214e-05
-0.00712628161821476,-0.00034198594587699614,-2.2599449469137366e-05
-0.007188414551825235,-0.00034556461991950616,-2.277133711058649e-05
-0.007243629698932436,-0.0003491726309821956,-2.2945021423311917e-05
-0.00729195809028528,-0.0003528065279295,-2.3120516213039842e-05
-0.007333451080092552,-0.0003564628802220945,-2.3297833565077742e-05
-0.0073681804462806914,-0.0003601382881036878,-2.3476983857159188e-05
-0.007396237919880323,-0.00036382939269522804,-2.365797577735892e-05
-0.007417734096012458,-0.0003675328856992012,-2.3840816346957527e-05
-0.007432796691804442,-0.00037124551839615546,-2.4025510947981365e-05
-0.0074415681350031475,-0.00037496410960285737,-2.4212063354981117e-05
-0.007444202490874432,-0.0003786855522593268,-2.4400475770446664e-05
-0.007440861771250735,-0.0003824068183248581,-2.459074886309271e-05
-0.00743171171875082,-0.00038612496169735847,-2.4782881808098262e-05
-0.00741691720802712,-0.00038983711892905294,-2.4976872328254864e-05
-0.007396637436906811,-0.00039354050759028643,-2.5172716734884698e-05
-0.007371021086104499,-0.00039723242222103924,-2.537040996733753e-05
-0.0073402016126562835,-0.00040091022789572945,-2.556994562986672e-05
-0.007304292819757265,-0.0004045713515038328,-2.577131602471661e-05
-0.007263384820736003,-0.00040821327091395613,-2.5974512180321056e-05
-0.007217540487244369,-0.0004118335022409512,-2.6179523873609784e-05
-0.007166792441158408,-0.0004154295854730519,-2.6386339645538285e-05
-0.00711114062244185,-0.00041899906873895195,-2.6594946809091286e-05
-0.007050550449415828,-0.00042253949150691637,-2.6805331449152753e-05
-0.0069849515832350086,-0.0004260483670150791,-2.7017478413783252e-05
-0.0069142373088840825,-0.00042952316423810886,-2.7231371296596547e-05
-0.006838264544713734,-0.0004329612897015083,-2.7446992410081452e-05
-0.006756854487383499,-0.00043636006945953264,-2.766432274987171e-05
-0.006669793885580891,-0.00043971673155277375,-2.788334195012479e-05
-0.006576836916163063,-0.00044302838925320973,-2.8104028230326284e-05
-0.006477707618210096,-0.000446292025386803,-2.8326358333986286e-05
-0.006372102830529822,-0.000449504477998988,-2.8550307459832733e-05
-0.006259695573895971,-0.00045266242760009444,-2.8775849186232503e-05
-0.006140138813830304,-0.000455762386197026,-2.9002955389681783e-05
-0.0060130695326899046,-0.000458800688283656,-2.9231596158301952e-05
-0.005878113038245802,-0.00046177348392638997,-2.9461739701354464e-05
-0.005734887442514985,-0.00046467673404658016,-2.9693352255847706e-05
-0.005583008249874577,-0.0004675062079696776,-2.992639799135177e-05
-0.0054220929876181755,-0.00047025748327905075,-3.0160838914163952e-05
-0.00525176580083021,-0.00047292594797616286,-3.0396634771977757e-05
-0.005071661931731782,-0.0004755068049093034,-3.063374296019912e-05
-0.004881432015101954,-0.0004779950783960118,-3.087211843102545e-05
-0.00468074613444868,-0.0004803856229333995,-3.11117136063578e-05
-0.004469297591226063,-0.00048267313386481813,-3.1352478295557356e-05
-0.004246806347595797,-0.0004848521598495236,-3.159435961898594e-05
-0.0040130221192207095,-0.00048691711696622773,-3.183730193818988e-05
