acceleration,velocity,displacement
-0.20832563447762575,0.0,0.0
-0.2071455845581969,-0.0002077356095179113,-1.0386780475895566e-07
-0.2059647234057001,-0.0004142907634998598,-4.1488099126784126e-07
-0.20478027867206913,-0.0006196632645387444,-9.318580052871434e-07
-0.20358613668322292,-0.0008238464722163905,-1.653612873664711e-06
-0.20237233003369065,-0.0010268257055748473,-2.5789489625603296e-06
-0.20112534617528133,-0.0012285745436793334,-3.70664908718742e-06
-0.19982906275791606,-0.0014290517481459321,-5.035462233100052e-06
-0.19846612460741286,-0.0016281993418285966,-6.564087778087316e-06
-0.19701958431756764,-0.0018259421962910868,-8.291158547147158e-06
-0.19547460361989275,-0.002022189290259817,-1.021522429042261e-05
-0.19382005694261722,-0.002216836620541072,-1.2334737245823053e-05
-0.19205003891757952,-0.00240977166847117,-1.4648041390329174e-05
-0.19016544007219963,-0.0026008794079660598,-1.7153366928547787e-05
-0.18817569886432864,-0.0027900499774343238,-1.984883162124798e-05
-0.18610045721931495,-0.0029771880554761458,-2.2732450637703214e-05
-0.1839703782823504,-0.0031622234732269785,-2.5802156402054778e-05
-0.1818262913407238,-0.0033451218080385154,-2.9055829042687526e-05
-0.17971631559476417,-0.0035258931115062595,-3.2491336502459914e-05
-0.17769134379250823,-0.003704596941199896,-3.6106581528812995e-05
-0.17579970881544865,-0.0038813424675038745,-3.989955123316488e-05
-0.17408188056440138,-0.0040562832621938,-4.3868364098013716e-05
-0.17256591059161536,-0.004229607157771808,-4.801130930799652e-05
-0.17126419626463404,-0.004401522211199932,-5.232687399248239e-05
-0.1701718783376927,-0.0045722402485010956,-5.6813755222332906e-05
-0.16926684240513876,-0.004741959608872511,-6.14708551510197e-05
-0.168511070518517,-0.004910848565334339,-6.629725923812313e-05
-0.16785309958735845,-0.005079030650387277,-7.129219884598394e-05
-0.1672315301735893,-0.005246572965267751,-7.645500065381146e-05
-0.1665797165055825,-0.005413478588607337,-8.1785026430749e-05
-0.16583170314455045,-0.0055796842984324035,-8.728160787426887e-05
-0.1649290364183914,-0.005745064668213874,-9.294398235759201e-05
-0.16382748623770266,-0.005909442929541921,-9.87712361564699e-05
-0.16250232489977173,-0.006072607835110658,-0.00010476226153879619
-0.16095084478918706,-0.006234334419955138,-0.00011091573266632909
-0.15919135588981653,-0.0063944055202946395,-0.00011723010263645397
-0.15725890886906901,-0.006552630652674083,-0.00012370362072293832
-0.15519900481047705,-0.006708859609513855,-0.00013033436585403228
-0.15306105526487193,-0.00686298963955153,-0.00013712029047856496
-0.15089322421016102,-0.007014966779289047,-0.00014405926868798526
-0.1487397204413914,-0.007164783251614823,-0.0001511491437034372
-0.14664076531716094,-0.007312473494494099,-0.00015838777207649165
-0.14463448767777506,-0.007458111120991567,-0.0001657730643842345
-0.14275928076733616,-0.007601808005214123,-0.00017330302394733734
-0.14105511720710753,-0.007743715204201345,-0.00018097578555204507
-0.13956295881533584,-0.007884024242212566,-0.00018878965527525203
-0.13832222352013826,-0.008022966833380303,-0.00019674315081304845
-0.13736678481435965,-0.008160811337547553,-0.0002048350398985124
-0.1367201513007702,-0.008297854805605118,-0.00021306437297008874
-0.13639061465654015,-0.008434410188583773,-0.0002214305054671832
-0.13636743054962708,-0.008570789211186857,-0.0002299331051670685
-0.13661928776267107,-0.008707282570343006,-0.00023857214105783343
-0.1370960586937636,-0.008844140243571223,-0.0002473478524647905
-0.1377340707701968,-0.008981555308303203,-0.0002562607002407277
-0.13846425868161397,-0.009119654473029109,-0.0002653113051313939
-0.13922185436879517,-0.009258497529554313,-0.00027450038113268564
-0.13995575953124903,-0.009398086336504335,-0.00028382867306571495
-0.1406355143955465,-0.009538381973467732,-0.000293296907220701
-0.14125414857382124,-0.009679326804952416,-0.00030290576160991106
-0.14182628334193745,-0.009820867020910295,-0.0003126558585228424
-0.14238223091052235,-0.009962971278036525,-0.0003225477776723158
-0.1429598555662894,-0.010105642321274932,-0.00033258208447197157
-0.14359623918465483,-0.010248920368650404,-0.00034275936581693424
-0.144320794572141,-0.0103928788855288,-0.00035308026544402383
-0.14515071533284107,-0.010537614640481292,-0.00036354551220702886
-0.14608884923712845,-0.010683234422766277,-0.0003741559367386526
-0.14712346827500616,-0.010829840581522344,-0.0003849124742407969
-0.14822920493215483,-0.010977516918125926,-0.00039581615299062105
-0.14936873355224803,-0.011126315887368126,-0.00040686806939336807
-0.1504953264837317,-0.011276247917386116,-0.0004180693512957452
-0.151556657100335,-0.01142727390917815,-0.0004294211122090273
-0.15249990469911087,-0.011579302190077871,-0.0004409244002586553
-0.15327765748461397,-0.011732190971169733,-0.0004525801468392791
-0.15385373797435936,-0.01188575666889922,-0.00046438912065931354
-0.15420798588825235,-0.012039787530830525,-0.0004763518927591784
-0.15433908735552412,-0.012194061067452413,-0.0004884688170583199
-0.15426465913479626,-0.012348362940697574,-0.0005007400290623949
-0.15401811512857183,-0.012502504327829258,-0.0005131654626966583
-0.15364254096721053,-0.01265633465587715,-0.0005257448821885116
-0.1531827238468853,-0.012809747288284197,-0.0005384779231605922
-0.1526771150181044,-0.012962677207716692,-0.0005513641354085927
-0.15215150507110362,-0.013115091517761296,-0.0005644030197713317
-0.15161570257126736,-0.013266975121582482,-0.0005775940530910036
-0.15106379875501916,-0.013418314872245625,-0.0005909366980879176
-0.15047779743517997,-0.013569085670340725,-0.0006044303983592107
-0.14983359706235896,-0.013719241367589495,-0.0006180745618781759
-0.14910777465038302,-0.013868712053445866,-0.0006318685385886936
-0.14828358008507186,-0.014017407730813593,-0.0006458115984808233
-0.14735498014563234,-0.014165227010928944,-0.0006599029158516946
-0.14632817296880363,-0.014312068587486163,-0.0006741415636509022
-0.1452204578171445,-0.014457842902879136,-0.0006885265193960848
-0.14405678524391247,-0.014602481524409665,-0.0007030566816097292
-0.14286492706718706,-0.014745942380565214,-0.0007177308935622167
-0.14167081177129343,-0.014888210249984454,-0.0007325479698774915
-0.140495668480395,-0.015029293490110299,-0.0007475067217475389
-0.1393559512493302,-0.01516921929997516,-0.0007626059781425817
-0.13826585158472968,-0.01530803020139219,-0.0007778446028932653
-0.13724111954873336,-0.015445783686958921,-0.0007932215098374409
-0.13630237811397855,-0.015582555435790277,-0.0008087356793988155
-0.13547631149524944,-0.015718444780594892,-0.0008243861795070081
-0.13479390601210037,-0.015853579889348567,-0.0008401721918419798
-0.13428599740343775,-0.015988119841056334,-0.0008560930417071822
-0.13397735497051713,-0.01612225151724331,-0.0008721482273863321
-0.13388105140046794,-0.016256180720428805,-0.0008883374435051681
-0.13399469888840865,-0.016390118595573242,-0.0009046605931631691
-0.13429940585417427,-0.016524265647944535,-0.0009211177852849281
-0.1347615048959405,-0.016658796103319592,-0.0009377093161605601
-0.13533660317340823,-0.016793845157354267,-0.000954435636790897
-0.13597525027824678,-0.016929501084080093,-0.0009712973099116143
-0.13662929364477427,-0.017065803356041603,-0.0009882949621316751
-0.1372578567635647,-0.017202746931245773,-0.001005429237275319
-0.1378320234647502,-0.01734029187135993,-0.0010227007566766218
-0.1383376776574403,-0.017478376721921023,-0.0010401100909732622
-0.13877625009872788,-0.017616933685799106,-0.0010576577461771223
-0.13916325395736984,-0.017755903437827156,-0.0010753441647389354
-0.13952460892737867,-0.01789524736926953,-0.0010931697401424837
-0.13989099910675715,-0.0180349551732866,-0.0011111348414137617
-0.14029090589687526,-0.018175046125788415,-0.0011292398420632993
-0.14074349975272446,-0.018315563328613213,-0.0011474851467905
-0.14125308109739532,-0.018456561619038272,-0.0011658712092643259
-0.14180680765382744,-0.018598091563413882,-0.001184398535855552
-0.14237675391097865,-0.018740183344196287,-0.001203067673309357
-0.14292610737989206,-0.018882834774841723,-0.001221879182368876
-0.14341802384813523,-0.019026006840455738,-0.0012408336031765248
-0.1438248509497544,-0.01916962827785468,-0.00125993142073568
-0.14413542196721876,-0.019313608414313167,-0.0012791730390817639
-0.14435895048414715,-0.01945785560053885,-0.00129855877108919
-0.1445253362727772,-0.019602297743917314,-0.001318088847761418
-0.14468277407376343,-0.019746901799090586,-0.0013377634475329218
-0.14489394927239924,-0.019891690160763666,-0.001357582743512849
-0.14523179665984082,-0.020036753033729787,-0.0013775469651100957
-0.14577519448780107,-0.020182256529303607,-0.0013976564698916123
-0.14660452918785102,-0.020328446391141432,-0.0014179118213518349
-0.1477969941670146,-0.020475647152818865,-0.001438313868123815
-0.14942166654326391,-0.020624256483174005,-0.0014588638199418114
-0.1515346011185159,-0.020774734617004895,-0.0014795633154919008
-0.15417422544765147,-0.020927589030287977,-0.0015004144773155472
-0.15735721885544662,-0.021083354752439526,-0.001521419949206911
-0.16107498947484306,-0.02124257085660467,-0.001542582912011433
-0.1652910331612748,-0.02140575386792273,-0.0015639070743736967
-0.16993983884152428,-0.02157336930392413,-0.00158539663595962
-0.17492823737443175,-0.02174580334203211,-0.001607056222282598
-0.18013977105300963,-0.021923337346245828,-0.001628890792626737
-0.1854417836012161,-0.022106128123572943,-0.0016509055253616464
-0.1906940108351067,-0.022294196020791104,-0.0016731056874338284
-0.19575707356598865,-0.02248742156299165,-0.0016954964962257197
-0.2004995575887803,-0.022685549878569036,-0.0017180829819465001
-0.20480306247188032,-0.022888201188599366,-0.0017408698574800843
-0.20856543599303873,-0.023094885437831825,-0.0017638614007932998
-0.2117030240715611,-0.023305019667864125,-0.0017870613533461479
-0.21415277949615688,-0.023517947569647982,-0.0018104728369649039
-0.21587454142768403,-0.023732961230109904,-0.001834098291364783
-0.21685317820471312,-0.023949325089926102,-0.001857939434524801
-0.21709989917935352,-0.024166301628618134,-0.0018819972478840731
-0.21665192465601868,-0.02438317754053582,-0.00190627198746865
-0.2155698727576637,-0.02459928843924266,-0.0019307632204585393
-0.21393274453703062,-0.024814039747890006,-0.0019554698845521057
-0.21183116387045242,-0.02502692170209375,-0.0019803903652770975
-0.20936013862660308,-0.025237517353342277,-0.0020055225848048153
-0.20661258494506313,-0.02544550371512811,-0.0020308640953390503
-0.20367420103779824,-0.02565064710811954,-0.002056412170750674
-0.20061955970584763,-0.025852793988491364,-0.0020821638912989797
-0.1975090809202803,-0.026051858308804427,-0.0021081162174476278
-0.1943868848693365,-0.026247806291699236,-0.0021342660497478795
-0.19127998508661517,-0.026440639726677213,-0.0021606102727570677
-0.1881993901490227,-0.02663037941429503,-0.002187145782327554
-0.18514324962353987,-0.02681705073418131,-0.0022138694974017923
-0.18210143759013325,-0.027000673077788147,-0.0022407783593077772
-0.17906043919319858,-0.027181254016179813,-0.002267869322854761
-0.17600742283428686,-0.027358787947193555,-0.002295139343836448
-0.1729327438878445,-0.02753325803055462,-0.002322585366825322
-0.169830456136538,-0.02770463963056681,-0.0023502043156558828
-0.1666967089937474,-0.027872903213131954,-0.0023779930870777323
-0.1635264530051423,-0.0280380147941314,-0.002405948546081364
-0.1603095978199461,-0.028199932819543944,-0.0024340675198882018
-0.15702817842874803,-0.02835860170766829,-0.002462346787151808
-0.15365582180313309,-0.02851394370778423,-0.0024907830598595343
-0.15015999570283733,-0.028665851616537216,-0.002519372957521695
-0.14650661617279936,-0.028814184922475033,-0.0025481129757912013
-0.1426659666144168,-0.028958771213868643,-0.0025769994538593732
-0.13861865320740094,-0.029099413523779552,-0.0026060285462281975
-0.1343604721867752,-0.02923590308647664,-0.0026351962045333254
-0.12990553081821102,-0.02936803608797913,-0.0026644981741205534
-0.12528751945587424,-0.029495632613116173,-0.002693930008471101
-0.12055935420742155,-0.02961855604994782,-0.0027234871028026333
-0.11579138989130507,-0.029736731421997183,-0.002753164746538606
-0.11106825267122875,-0.02985016124327845,-0.0027829581928712436
-0.10648434324760524,-0.029958937541237865,-0.0028128627422635017
-0.10213827463007326,-0.030063248850176704,-0.002842873835459209
-0.09812673986513046,-0.030163381357424305,-0.0028729871505630096
-0.09453833860114562,-0.030259713896657443,-0.0029031986981900505
-0.09144773428922136,-0.030352706933102627,-0.0029335049086049304
-0.08891039266351786,-0.030442885996578996,-0.0029639027050697713
-0.08695822091360497,-0.030530820303367557,-0.0029943895582197444
-0.08559655415439735,-0.030617097690901558,-0.003024963517216879
-0.0848028806846115,-0.03070229740832106,-0.00305562321476649
-0.08452739847962547,-0.03078696254790318,-0.0030863678447446024
-0.08469512393700229,-0.030871573809111492,-0.0031171971129231096
-0.08520907666970155,-0.030956525909414844,-0.003148111162782373
-0.08595415130724471,-0.031042107523403317,-0.003179110479498782
-0.08680158522868642,-0.031128485391671283,-0.0032101957759563195
-0.08761428381079946,-0.031215693326191025,-0.0032413678653152506
-0.08825347013824242,-0.03130362720316555,-0.003272627525579929
-0.08858702837442156,-0.03139204745242188,-0.0033039753629077228
-0.08849953309321133,-0.03148059073315569,-0.0033354116820005116
-0.08790337378782989,-0.03156879218659621,-0.0033669363734603877
-0.08674961855930964,-0.03165611868276978,-0.0033985488288950706
-0.08503656771197385,-0.031742011775905424,-0.003430247894124408
-0.08281388292176135,-0.03182593700122229,-0.003462031868512972
-0.08018105348358304,-0.03190743446942496,-0.0034938985542482958
-0.0772803713689808,-0.031986165181851246,-0.003525845354073934
-0.07428568313036465,-0.03206194820910092,-0.00355786941076941
-0.07138843851605152,-0.032134785269924124,-0.0035899677775089226
-0.06878220512372382,-0.03220487059174401,-0.0036221376054397566
-0.06664654476774297,-0.03227258496668974,-0.0036543763332189737
-0.06513132659747244,-0.03233847390237235,-0.003686681862653505
-0.0643429892198666,-0.03240321106028102,-0.0037190527051348316
-0.06433454770142226,-0.032467549828741664,-0.003751488085579343
-0.06510096267227619,-0.03253226758392851,-0.003783987994285678
-0.0665806820864006,-0.03259810840630785,-0.0038165531822807962
-0.06866286412212619,-0.032665730179412114,-0.0038491851015736564
-0.07119859578980817,-0.03273566090936808,-0.0038818857971180463
-0.074014005489676,-0.032808267210007826,-0.003914657761177734
-0.07692358687572058,-0.032883736006190524,-0.003947503762785833
-0.07974275669516624,-0.03296206917797597,-0.003980426665377916
-0.08229912721375597,-0.03304309011993043,-0.004013429245026869
-0.0844420647525316,-0.033126460715913575,-0.004046514020444791
-0.08605004386921365,-0.03321170677022445,-0.00407968310418786
-0.08703537574672192,-0.03329824948003241,-0.004112938082312989
-0.08734619604504787,-0.033385440265928296,-0.00414627992718597
-0.0869659672170486,-0.03347259634755934,-0.0041797089454927135
-0.08591092361678414,-0.03355903479297626,-0.0042132247610629815
-0.08422586006247035,-0.033644103184815886,-0.004246826330051878
-0.08197866243521246,-0.03372720544606473,-0.004280511984367318
-0.07925405192616884,-0.03380782180324542,-0.004314279497991974
-0.07614695370946031,-0.03388552230606324,-0.004348126170046629
-0.07275565939384215,-0.03395997361261489,-0.004382048918005968
-0.06917478222483446,-0.03403093883342422,-0.004416044374228987
-0.06548809976222585,-0.03409827027441775,-0.004450108978782908
-0.06176172868745262,-0.03416189518864259,-0.004484239061514439
-0.05803855390120083,-0.03422179532993692,-0.0045184309067737285
-0.054335120867823015,-0.034277982167321426,-0.004552680795522358
-0.05064191235757867,-0.034330470683934126,-0.004586985021947986
-0.04692708660543078,-0.034379255183415634,-0.0046213398848816605
-0.04314281039896329,-0.034424290131917834,-0.004655741657539327
-0.03923271992547183,-0.03446547789708005,-0.004690186541553826
-0.03513899869778495,-0.03450266375639168,-0.0047246706123805614
-0.030808069263159304,-0.03453563729037215,-0.004759189762903944
-0.026194666461811796,-0.034564138658234635,-0.004793739650878247
-0.02126468374533322,-0.034587868333338205,-0.004828315654374034
-0.0159974415359837,-0.03460649939597887,-0.0048629128382386925
-0.010387908748670946,-0.03461969207112119,-0.004897525933972242
-0.004449005561932989,-0.034627110528276495,-0.004932149335271941
0.001786346301869399,-0.034628441857906526,-0.004966777111465032
0.008264018170498391,-0.03462341667567034,-0.0050014030407318204
0.014908902190014365,-0.03461183021549009,-0.005036020664177401
0.02162702443239117,-0.03459356225217888,-0.005070623360411235
0.028309828411713048,-0.03456859382575683,-0.0051052044384502036
0.03484067372648787,-0.03453701857468773,-0.005139757244650426
0.04110321986214182,-0.034499046627893416,-0.005174275277251716
0.046990960268703516,-0.03445499953782799,-0.005208752300334577
0.05241690604666368,-0.03440529560467031,-0.005243182447905826
0.05732229727101564,-0.03435042600301147,-0.005277560308709667
0.06168316858686471,-0.03429092327008253,-0.005311880983346214
0.06551367622225154,-0.034227324847677966,-0.0053461401074050945
0.06886546416043905,-0.03416013527748662,-0.005380333837467677
0.07182305460965632,-0.03408979101810157,-0.005414458800615471
0.07449609037730559,-0.03401663144560809,-0.005448512011847326
0.07700985684846773,-0.0339408784719952,-0.005482490766806128
0.07949557451293134,-0.033862625756314504,-0.005516392518920283
0.08208147565546753,-0.03378183723123031,-0.005550214750414055
0.08488495877478851,-0.03369835401401518,-0.005583954846036678
0.08800557871143334,-0.03361190874527207,-0.0056176099774163215
0.0915185564166506,-0.033522146677708024,-0.005651177005127812
0.09546884712208224,-0.03342865297593866,-0.005684652404954635
0.09986633451585111,-0.033330985385119694,-0.005718032224135164
0.10468311300507228,-0.03322871066135923,-0.005751312072158403
0.10985383635875964,-0.03312144218667731,-0.005784487148582421
0.11527967744401726,-0.03300887542977592,-0.005817552307390648
0.12083574155072968,-0.03289081772027855,-0.005850502153965675
0.12638112569816579,-0.0327672092866541,-0.005883331167469141
0.13177039983123204,-0.032638133523889404,-0.005916033838874413
0.13686508407018627,-0.03250381578193869,-0.005948604813527327
0.14154371435820937,-0.03236461138272449,-0.005981039027109659
0.14570943204832135,-0.03222098480952123,-0.0060133318252057815
0.14929469696642203,-0.03207348274501386,-0.006045479058983049
0.15226340921498518,-0.031922703691923154,-0.006077477152201517
0.15461098764383122,-0.03176926649349374,-0.006109323137294226
0.15636267741723217,-0.03161377966096321,-0.006141014660371455
0.15756997852897192,-0.03145681333299011,-0.006172549956868431
0.1583050873134586,-0.03129887580006889,-0.006203927801434961
0.15865358297407423,-0.031140396464925123,-0.006235147437567458
0.15870590468799306,-0.03098171672109409,-0.006266208494160467
0.15854837050480897,-0.03082308958349769,-0.006297110897312763
0.15825476722695656,-0.030664688014631805,-0.0063278547861118275
0.15787978767810423,-0.030506620737179274,-0.006358440440487733
0.15745541962442497,-0.03034895313352801,-0.006388868227423086
0.1569906983840271,-0.030191730074523783,-0.006419138569027112
0.1564744013485225,-0.03003499752465751,-0.006449251932826703
0.1558797458345257,-0.029878820451065984,-0.006479208841814564
0.15517008711689936,-0.02972329553459027,-0.006509009899807392
0.15430479051973317,-0.029568558095771955,-0.006538655826622573
0.15324462952572449,-0.029414783385749224,-0.0065681474973633336
0.15195624427203297,-0.029262182948850347,-0.006597485980530633
0.15041551886611007,-0.029110997067281274,-0.006626672570538699
0.14861019325543914,-0.0289614842112205,-0.00665570881117795
0.14654240369164817,-0.028813907912746954,-0.006684596507239934
