frame_number,force
0,804.9750975160053
1,804.9830835477103
2,804.9862710354014
3,804.9847203840058
4,804.9785888034512
5,804.968125847454
6,804.9536660434518
7,804.9356188575692
8,804.9144563890119
9,804.890699229779
10,804.8649009447436
11,804.8376316177049
12,804.8094608497039
13,804.7809405606214
14,804.7525880190461
15,804.7248696951551
16,804.69818672559
17,804.6728629279402
18,804.6491363221909
19,804.6271549301155
20,804.6069772346285
21,804.5885771939728
22,804.5718532558609
23,804.5566404922216
24,804.5427247990357
25,804.5298580634523
26,804.5177732602987
27,804.506198555847
28,804.4948696311059
29,804.4835396135837
30,804.4719862997515
31,804.4600167709946
32,804.4474699240072
33,804.4342176699689
34,804.4201655267093
35,804.4052531077881
36,804.3894547361984
37,804.3727801603156
38,804.3552751407753
39,804.3370215411751
40,804.3181365732141
41,804.2987710187014
42,804.2791064129225
43,804.2593511755955
44,804.2397355827744
45,804.2205054647989
46,804.2019146448083
47,804.1842163034793
48,804.1676535737447
49,804.1524497096549
50,804.1387981580418
51,804.1268528500146
52,804.1167190782478
53,804.1084454015183
54,804.1020170159813
55,804.0973509250872
56,804.0942931235718
57,804.0926179793701
58,804.092030043648
59,804.092168581981
60,804.0926151374426
61,804.0929043478965
62,804.0925380142359
63,804.0910020910565
64,804.0877859274007
65,804.0824028043857
66,804.0744106618153
67,804.0634318980624
68,804.0491712287186
69,804.031430740761
70,804.0101214530773
71,803.9852708920209
72,803.9570264092898
73,803.9256541939478
74,803.8915341291854
75,803.8551507688613
76,803.8170807379936
77,803.7779768429725
78,803.738549186047
79,803.6995436404885
80,803.6617181382007
81,803.6258173554775
82,803.5925465969077
83,803.5625459653186
84,803.536366159764
85,803.5144473300039
86,803.4971022671232
87,803.4845048487963
88,803.4766842019147
89,803.4735246593885
90,803.4747713516272
91,803.4800411259355
92,803.4888383326381
93,803.5005748312037
94,803.5145933852282
95,803.5301934409965
96,803.5466580938796
97,803.5632808616101
98,803.5793908151281
99,803.5943747614441
100,803.6076954974361
101,803.6189055440543
102,803.6276561331289
103,803.6337015151372
104,803.6368988855816
105,803.6372043927388
106,803.6346657623882
107,803.6294120353961
108,803.6216408341882
109,803.6116035869255
110,803.5995892815458
111,803.5859074891384
112,803.5708714738258
113,803.5547821892079
114,803.5379138957666
115,803.5205020252955
116,803.5027337698399
117,803.4847417501874
118,803.466601083569
119,803.4483301601339
120,803.429895303891
121,803.4112191572291
122,803.392192159624
123,803.3726860529462
124,803.352568089189
125,803.3317145952132
126,803.3100226999995
127,803.287419271931
128,803.263866441569
129,803.2393635105249
130,803.2139455032953
131,803.1876789926305
132,803.1606560317321
133,803.132987014726
134,803.1047930782976
135,803.0761983646452
136,803.0473222607183
137,803.0182717207545
138,802.9891339323557
139,802.9599697581688
140,802.9308084308274
141,802.9016438528604
142,802.8724326482934
143,802.8430939614901
144,802.8135109448311
145,802.7835338835971
146,802.7529849392487
147,802.7216645355458
148,802.6893594408562
149,802.6558525601495
150,802.6209342900817
151,802.584415045893
152,802.5461383459522
153,802.5059936732836
154,802.4639281805865
155,802.4199562127591
156,802.3741657307039
157,802.3267210702037
158,802.277861917154
159,802.2278987370112
160,802.1772050780864
161,802.1262072338534
162,802.0753718065246
163,802.025191778286
164,801.9761716878799
165,801.9288124077551
166,801.883595930333
167,801.8409706067241
168,801.8013374025132
169,801.7650378303096
170,801.7323442402117
171,801.7034531183002
172,801.6784819494394
173,801.6574699845357
174,801.6403829015424
175,801.6271209627005
176,801.6175299849433
177,801.6114143143127
178,801.6085509919013
179,801.6087043488793
180,801.6116403093653
181,801.6171396841452
182,801.6250097564043
183,801.635093599614
184,801.6472768612017
185,801.66149207558
186,801.6777207674858
187,801.6959936169325
188,801.7163888756293
189,801.7390291750776
190,801.7640768777683
191,801.7917281444783
192,801.8222058900609
193,801.8557517901138
194,801.8926174914512
195,801.9330551636547
196,801.9773075186775
197,802.0255974591526
198,802.0781176144046
199,802.1350201473997
200,802.1964072991981
201,802.2623231609466
202,802.3327471644662
203,802.4075897824939
204,802.4866908928074
205,802.569821135672
206,802.6566863762051
207,802.746935124842
208,802.840168544575
209,802.9359525400987
210,803.0338313885983
211,803.13334237284
212,803.2340308238427
213,803.3354648503471
214,803.4372489101929
215,803.5390353610973
216,803.6405332314399
217,803.7415136566727
218,803.8418117235566
219,803.9413247804638
220,804.0400074753701
221,804.1378638352019
222,804.2349367215727
223,804.3312951397489
224,804.4270201757255
225,804.522190674254
226,804.6168699517951
227,804.7110947386886
228,804.804867214855
229,804.8981505949573
230,804.990868362104
231,805.0829070270092
232,805.174122218353
233,805.2643478854184
234,805.3534082684766
235,805.4411320509482
236,805.5273678756516
237,805.6120002883521
238,805.6949651673268
239,805.7762637676531
240,805.8559746214517
241,805.934262672542
242,806.0113851779322
243,806.0876940606979
244,806.1636345185452
245,806.2397397831759
246,806.3166220380309
247,806.3949596702043
248,806.4754812279276
249,806.5589466245225
250,806.6461262563232
251,806.7377788017515
252,806.8346285318153
253,806.9373429569249
254,807.0465115745681
255,807.1626264239322
256,807.2860651244387
257,807.4170770431818
258,807.5557731543679
259,807.7021200281577
260,807.8559382707584
261,808.0169056366494
262,808.1845648689493
263,808.3583360324616
264,808.5375327189397
265,808.7213811394594
266,808.9090409191258
267,809.0996264597585
268,809.2922279641817
269,809.4859314338281
270,809.6798370351872
271,809.8730752315278
272,810.0648201526419
273,810.2542999257884
274,810.4408040625333
275,810.6236883573073
276,810.802378017708
277,810.9763698639692
278,811.1452343211299
279,811.3086175569349
280,811.4662436736508
281,811.6179166124887
282,811.7635214520109
283,811.9030249157279
284,812.0364749681191
285,812.1639993453605
286,812.2858028195827
287,812.4021629769329
288,812.5134242695519
289,812.6199900925332
290,812.7223127535964
291,812.8208815216509
292,812.9162093426334
293,813.0088190651506
294,813.0992300085796
295,813.1879455104887
296,813.2754418553452
297,813.3621588039084
298,813.4484918254901
299,813.5347860585941
300,813.6213319836932
301,813.7083627832774
302,813.7960533325896
303,813.8845206610374
304,813.9738256052416
305,814.0639753312961
306,814.1549264449169
307,814.2465884776772
308,814.3388275991239
309,814.4314704799641
310,814.524308356346
311,814.617101474725
312,814.7095841127514
313,814.8014702416325
314,814.8924597382324
315,814.9822449820572
316,815.0705176651306
317,815.1569756388378
318,815.2413296227071
319,815.3233096579271
320,815.4026713253121
321,815.4792018996673
322,815.5527266682933
323,815.6231155471446
324,815.6902899227356
325,815.7542294048048
326,815.8149779751917
327,815.8726489450935
328,815.9274281968544
329,815.9795752831499
330,816.0294219821313
331,816.0773678916786
332,816.123872694836
333,816.1694448977694
334,816.2146271349601
335,816.25997851616
336,816.3060548493493
337,816.3533878268281
338,816.402464435406
339,816.4537079644219
340,816.5074619149319
341,816.5639777517857
342,816.6234068972401
343,816.6857968743548
344,816.7510911960267
345,816.819132437367
346,816.8896678746115
347,816.9623571213873
348,817.0367813703456
349,817.1124541431379
350,817.1888337580165
351,817.2653378781579
352,817.341360403224
353,817.4162906422532
354,817.4895342690872
355,817.5605351102715
356,817.6287964213002
357,817.6939000761001
358,817.7555221523601
359,817.8134437647531
360,817.8675565662954
361,817.9178629753317
362,817.9644718055969
363,818.0075904689779
364,818.0475151473514
365,818.0846202357538
366,818.1193480269997
367,818.152199190572
368,818.1837242156411
369,818.2145156940236
370,818.2452011369136
371,818.276435938283
372,818.3088960547746
373,818.3432699126671
374,818.380249010495
375,818.4205167677073
376,818.4647354469986
377,818.5135313819917
378,818.5674791079529
379,818.6270852185905
380,818.692772865875
381,818.7648678092777
382,818.8435867939324
383,818.9290288050806
384,819.0211695107652
385,819.1198590887917
386,819.2248236372509
387,819.3356703570294
388,819.4518965491235
389,819.5729022066145
390,819.6980057282818
391,819.8264621331132
392,819.9574830911226
393,820.0902580355965
394,820.2239755598899
395,820.3578442444848
396,820.4911120335654
397,820.6230833325999
398,820.7531331760053
399,820.8807180904317
400,821.0053835548928
401,821.126768155206
402,821.244604641476
403,821.358718150401
404,821.469021876315
405,821.5755105033428
406,821.6782517756301
407,821.7773766780634
408,821.8730687981016
409,821.9655535034574
410,822.0550875440748
411,822.1419495260869
412,822.2264314636947
413,822.3088314279098
414,822.3894472463276
415,822.4685712085823
416,822.5464857406091
417,822.6234600426571
418,822.699747730851
419,822.7755854914085
420,822.8511926158069
421,822.9267711318357
422,823.00250617083
423,823.0785661893933
424,823.1551026350929
425,823.2322486156627
426,823.3101161581076
427,823.3887917946108
428,823.4683305288376
429,823.5487486710014
430,823.6300164105558
431,823.7120511453943
432,823.7947124876154
433,823.8777996301736
434,823.9610514873921
435,824.044149772747
436,824.1267249906712
437,824.2083651988336
438,824.28862730819
439,824.3670506026407
440,824.443172087374
441,824.5165432471105
442,824.5867478089198
443,824.6534200783977
444,824.716263270313
445,824.7750670134157
446,824.8297229952047
447,824.8802376240093
448,824.9267406529119
449,824.9694889521124
450,825.0088650433232
451,825.0453705386232
452,825.0796150866721
453,825.1123016923481
454,825.1442093305603
455,825.1761736859368
456,825.2090666974175
457,825.2437754383016
458,825.2811807469417
459,825.3221359308355
460,825.3674458029316
461,825.4178463201083
462,825.4739852019601
463,825.5364040573502
464,825.6055226642482
465,825.6816261288844
466,825.7648557132936
467,825.8552041228568
468,825.9525159170494
469,826.0564934602612
470,826.1667085446883
471,826.2826195075212
472,826.4035932631344
473,826.5289311804044
474,826.657897300893
475,826.7897471818674
476,826.9237557078146
477,827.0592424722396
478,827.1955936779744
479,827.3322798611473
480,827.4688690751502
481,827.6050354700683
482,827.7405634847203
483,827.8753481207021
484,828.0093919158763
485,828.1427992192254
486,828.2757682389027
487,828.4085812080532
488,828.5415929741474
489,828.6752183762093
490,828.8099188724404
491,828.9461889379975
492,829.084542717019
493,829.2255012841687
494,829.369580698353
495,829.5172808879518
496,829.669075348869
497,829.8254016796838
498,829.9866531049032
499,830.1531712996504
500,830.3252409361514
501,830.5030863428055
502,830.6868705160122
503,830.8766965340773
504,831.0726112479175
505,831.2746110055101
506,831.4826491357895
507,831.6966449311608
508,831.916493845695
509,832.1420785459278
510,832.3732803352245
511,832.6099903358003
512,832.8521196931842
513,833.0996080558626
514,833.3524297522894
515,833.6105974004073
516,833.8741629868034
517,834.1432165980855
518,834.4178829730035
519,834.6983159836141
520,834.9846911297836
521,835.2771961480407
522,835.5760198962889
523,835.8813397975141
524,836.1933082924058
525,836.5120389163922
526,836.8375927352141
527,837.1699659132474
528,837.5090791368262
529,837.8547694889902
530,838.206785237675
531,838.56478391688
532,838.9283340196822
533,839.2969204973331
534,839.6699540429877
535,840.0467838809616
536,840.4267135426865
537,840.80901891885
538,841.1929677324416
539,841.5778394751774
540,841.9629448061347
541,842.3476434345821
542,842.7313595824653
543,843.1135942521623
544,843.49393374029
545,843.8720541192279
546,844.2477217029489
547,844.6207898123843
548,844.991192451806
549,845.3589357214885
550,845.7240878213553
551,846.0867683451181
552,846.4471373527172
553,846.8053845847785
554,847.1617191678774
555,847.5163601527127
556,847.8695281431656
557,848.2214381335444
558,848.5722935482994
559,848.922281404511
560,849.2715684765234
561,849.6202983359553
562,849.9685891817318
563,850.3165324190624
564,850.6641919256888
565,851.0116038722305
566,851.3587769212924
567,851.7056926600101
568,852.0523062096485
569,852.398547083023
570,852.7443204998342
571,853.0895094629775
572,853.4339778850563
573,853.7775749393597
574,854.12014064549
575,854.4615124977045
576,854.8015327052036
577,855.1400554265443
578,855.4769533453918
579,855.8121230176281
580,856.1454885056655
581,856.4770028701306
582,856.8066471674556
583,857.1344267439299
584,857.4603648130154
585,857.7844935424389
586,858.1068431569778
587,858.4274298480253
588,858.7462435037244
589,859.063236358275
590,859.3783135623362
591,859.6913264408474
592,860.0020689395853
593,860.3102775243957
594,860.6156345579861
595,860.9177749299461
596,861.2162955102515
597,861.5107668629357
598,861.800746557951
599,862.0857933320227
600,862.3654813198965
601,862.6394136694655
602,862.9072350698565
603,863.168642982167
604,863.4233975452796
605,863.6713301429149
606,863.9123504854176
607,864.1464519103082
608,864.3737145630413
609,864.5943062019855
610,864.808480505876
611,865.016572870187
612,865.2189937298918
613,865.4162194535517
614,865.6087808784681
615,865.7972496711752
616,865.9822228912191
617,866.1643063032766
618,866.3440970492072
619,866.5221663069211
620,866.6990426072896
621,866.8751965160251
622,867.0510272973554
623,867.2268519491206
624,867.4028967748283
625,867.5792915590874
626,867.7560663960571
627,867.9331511528801
628,868.1103773937149
629,868.2874824506164
630,868.4641153216959
631,868.6398442011028
632,868.8141655810653
633,868.9865148984497
634,869.1562786293518
635,869.3228076699295
636,869.4854318630912
637,869.6434756275653
638,869.7962747518234
639,869.943194448254
640,870.0836486367983
641,870.2171201249696
642,870.3431809887767
643,870.4615121834212
644,870.5719212589714
645,870.6743569922127
646,870.7689197981364
647,870.8558670142295
648,870.9356125307023
649,871.0087206466678
650,871.0758943710738
651,871.1379586621023
652,871.1958393457975
653,871.250538663008
654,871.3031085177114
655,871.3546225059528
656,871.4061476899494
657,871.4587168895141
658,871.5133020836735
659,871.5707894152123
660,871.6319562517018
661,871.6974507418772
662,871.7677743277893
663,871.8432677361603
664,871.9241010186457
665,872.0102681667986
666,872.1015866776253
667,872.1977022331926
668,872.298098437813
669,872.4021113627555
670,872.5089484903029
671,872.6177115113991
672,872.7274222853487
673,872.8370511141221
674,872.9455463534267
675,873.0518642945013
676,873.1549981842853
677,873.2540052077467
678,873.3480302793081
679,873.4363256223173
680,873.518265354459
681,873.593354617662
682,873.6612331796695
683,873.7216738591098
684,873.7745765002883
685,873.8199584528837
686,873.8579425598195
687,873.8887435724781
688,873.9126538083709
689,873.9300288230608
690,873.9412738330817
691,873.9468314814781
692,873.947171275529
693,873.9427807632759
694,873.9341583328454
695,873.921807409669
696,873.9062317794168
697,873.8879317813327
698,873.8674011747755
699,873.8451245489433
700,873.821575218434
701,873.7972136406916
702,873.7724864820203
703,873.7478264410254
704,873.7236527235112
705,873.7003717573809
706,873.6783775811879
707,873.6580514229282
708,873.6397601620134
709,873.6238535016465
710,873.6106597911743
711,873.6004805811064
712,873.5935841500888
713,873.5901983839778
714,873.5905035072168
715,873.5946252438428
716,873.6026289723193
717,873.6145152975795
718,873.6302172187999
719,873.6495988419582
720,873.6724555110411
721,873.6985153241606
722,873.727442124049
723,873.7588400578153
724,873.7922596773692
725,873.8272054256981
726,873.8631443314424
727,873.8995157723018
728,873.9357421311435
729,873.9712399927209
730,874.0054313055509
731,874.037753826672
732,874.0676702435505
733,874.0946755489811
734,874.1183024358713
735,874.1381246606965
736,874.1537584954415
737,874.1648625075959
738,874.1711359508794
739,874.1723160547891
740,874.1681745427086
741,874.1585138331225
742,874.1431635493553
743,874.1219780633588
744,874.0948357227206
745,874.0616401393481
746,874.0223235329277
747,873.9768517788641
748,873.9252306503369
749,873.8675127581084
750,873.8038047341971
751,873.7342741788606
752,873.6591558490836
753,873.5787566127427
754,873.4934588253083
755,873.4037218968443
756,873.3100818070171
757,873.2131482013044
758,873.1135985817601
759,873.0121691483096
760,872.9096421109818
761,872.8068296588848
762,872.7045550485519
763,872.6036313889857
764,872.5048387178928
765,872.408899979845
766,872.3164566053607
767,872.2280445789039
768,872.1440721005503
769,872.0648000379549
770,871.9903262545512
771,871.9205746556587
772,871.855289524475
773,871.7940354745788
774,871.7362031208147
775,871.6810203395503
776,871.6275687411869
777,871.5748047309512
778,871.5215843036101
779,871.4666905289291
780,871.4088626047586
781,871.3468254227724
782,871.2793187576102
783,871.2051253858692
784,871.1230976385874
785,871.0321820461369
786,870.9314417742888
787,870.8200764673952
788,870.6974390265167
789,870.5630488976593
790,870.4166016458054
791,870.257974823945
792,870.0872302637359
793,869.9046128576833
794,869.710545752475
795,869.5056217828624
796,869.2905910388488
797,869.0663446317021
798,868.8338948882124
799,868.5943523086197
800,868.3488997302471
801,868.0987643088375
802,867.8451881497194
803,867.5893986165598
804,867.3325794337642
805,867.0758436415979
806,866.8202092766248
807,866.5665783805684
808,866.315719667697
809,866.0682549903546
810,865.8246496435412
811,865.5852064760103
812,865.3500637000907
813,865.1191962646141
814,864.8924206999022
815,864.6694034016421
816,864.449672304431
817,864.2326317612346
818,864.0175802274074
819,863.8037301424328
820,863.5902292684369
821,863.3761826617514
822,863.1606744117598
823,862.942788339431
824,862.721627053856
825,862.4963290706534
826,862.2660840007068
827,862.0301460408878
828,861.7878460812689
829,861.5386026520105
830,861.2819316991906
831,861.0174549022062
832,860.7449060533264
833,860.4641350044903
834,860.1751088332193
835,859.8779100827747
836,859.5727321119244
837,859.2598717540283
838,858.939719655411
839,858.6127488030833
840,858.2795017992922
841,857.940577381305
842,857.5966165718635
843,857.2482887436882
844,856.8962778104418
845,856.5412686893999
846,856.183934092596
847,855.8249216281974
848,855.4648412108025
849,855.1042529122956
850,854.7436555522029
851,854.3834764110069
852,854.0240624153151
853,853.6656730746109
854,853.3084754520851
855,852.952541514906
856,852.5978482051609
857,852.244280416728
858,851.8916368195661
859,851.5396382733533
860,851.1879384624373
861,850.8361363012913
862,850.4837895577657
863,850.1304290591814
864,849.7755728376912
865,849.4187396493777
866,849.0594614613142
867,848.6972947063185
868,848.3318302619055
869,847.9627021393202
870,847.589594787601
871,847.2122487987573
872,846.8304647029227
873,846.4441045034235
874,846.0530906404064
875,845.6574022036407
876,845.2570684683184
877,844.8521601962502
878,844.442779526587
879,844.0290495192845
880,843.6111044132227
881,843.1890814334131
882,842.7631146396899
883,842.3333310078726
884,841.8998487719473
885,841.4627779900703
886,841.0222231931356
887,840.5782877739005
888,840.1310795795054
889,839.680717092544
890,839.2273355912338
891,838.7710926899513
892,838.3121727090195
893,837.8507894838687
894,837.3871874874079
895,836.9216413982791
896,836.4544543759982
897,835.9859552528002
898,835.5164947037749
899,835.0464403546742
900,834.5761707848428
901,834.1060684164257
902,833.636511292813
903,833.167863767385
904,832.7004662058467
905,832.234623984288
906,831.7705963429614
907,831.3085859665717
908,830.8487303479749
909,830.3910959141083
910,829.9356755690318
911,829.4823898977362
912,829.0310919343714
913,828.5815751866289
914,828.1335844822038
915,827.6868290873512
916,827.2409973882651
917,826.7957722223614
