frame_number,force
0,804.8193798180007
1,804.8247898198451
2,804.8288872139511
3,804.8316164208701
4,804.8329366990113
5,804.832822324106
6,804.8312624791959
7,804.8282608676705
8,804.8238350715854
9,804.8180156818378
10,804.8108452298347
11,804.8023769517413
12,804.7926734151691
13,804.7818050377861
14,804.7698485318009
15,804.7568853169789
16,804.7429999543837
17,804.7282786601016
18,804.7128079588722
19,804.6966735281482
20,804.6799592638788
21,804.662746575219
22,804.645113892912
23,804.6271363594797
24,804.6088856597213
25,804.590429946727
26,804.5718338201725
27,804.5531583179319
28,804.5344608872643
29,804.5157953091541
30,804.4972115623558
31,804.4787556328365
32,804.4604692934572
33,804.4423898892381
34,804.4245501616577
35,804.4069781346291
36,804.3896970714273
37,804.3727254997999
38,804.356077292472
39,804.3397617837538
40,804.3237839037776
41,804.3081443200289
42,804.2928395835058
43,804.277862276849
44,804.2632011572648
45,804.2488412864914
46,804.2347641459475
47,804.2209477430032
48,804.2073667194975
49,804.1939924750498
50,804.1807933163977
51,804.167734642801
52,804.1547791791814
53,804.141887271541
54,804.1290172583765
55,804.1161259260044
56,804.1031690495246
57,804.0901020190868
58,804.0768805528713
59,804.0634615008767
60,804.0498037443115
61,804.0358691912585
62,804.0216238588494
63,804.0070390172657
64,803.9920923553203
65,803.9767691150482
66,803.9610631366427
67,803.944977756182
68,803.9285265050747
69,803.9117335691936
70,803.8946339759149
71,803.8772734887397
72,803.8597082016694
73,803.8420038382494
74,803.8242347716442
75,803.8064827898977
76,803.788835633603
77,803.7713853337804
78,803.7542263793456
79,803.737453747325
80,803.7211608339907
81,803.7054373315524
82,803.6903671049463
83,803.676026136263
84,803.662480615389
85,803.6497852581513
86,803.6379819244813
87,803.627098589986
88,803.6171487004686
89,803.6081309182582
90,803.6000292555271
91,803.5928135803024
92,803.5864404710891
93,803.5808543848691
94,803.5759890922917
95,803.5717693236335
96,803.5681125583471
97,803.5649308808169
98,803.5621328206055
99,803.5596251015719
100,803.5573142392576
101,803.555107944443
102,803.5529163082837
103,803.5506527590968
104,803.5482347926167
105,803.5455844864834
106,803.5426288144729
107,803.5392997755318
108,803.5355343504283
109,803.5312743010296
110,803.5264658356336
111,803.5210591733027
112,803.5150080453458
113,803.5082691726976
114,803.5008017561115
115,803.4925670120881
116,803.483527781395
117,803.4736482320508
118,803.4628936776332
119,803.4512305318003
120,803.4386264139094
121,803.4250504048433
122,803.410473429981
123,803.394868725406
124,803.3782123311064
125,803.3604835536862
126,803.3416653479488
127,803.3217445778224
128,803.3007121322205
129,803.278562891113
130,803.2552955581867
131,803.2309123936158
132,803.2054188894294
133,803.1788234287105
134,803.1511369592148
135,803.1223726973268
136,803.0925458677389
137,803.0616734830419
138,803.0297741738837
139,802.9968680876989
140,802.9629768753808
141,802.9281237785268
142,802.8923338194437
143,802.8556340882775
144,802.8180541185078
145,802.7796263419126
146,802.740386615324
147,802.7003748133395
148,802.6596354824505
149,802.618218550232
150,802.5761800758568
151,802.5335830169585
152,802.4904979777981
153,802.447003896443
154,802.4031886221934
155,802.3591493309846
156,802.3149927326726
157,802.2708350417685
158,802.2268017054903
159,802.1830269010001
160,802.1396528233536
161,802.096828789777
162,802.0547101894862
163,802.0134573120935
164,801.9732340878865
165,801.9342067689216
166,801.896542576115
167,801.860408339383
168,801.8259691637082
169,801.793387158434
170,801.762820267899
171,801.7344212397231
172,801.7083367621873
173,801.6847067914033
174,801.6636640717899
175,801.6453338344741
176,801.6298336441671
177,801.6172733586143
178,801.6077551641589
179,801.6013736530291
180,801.5982159097005
181,801.5983615737897
182,801.6018828478082
183,801.608844424827
184,801.6193033252762
185,801.6333086480819
186,801.6509012511171
187,801.67211337688
188,801.6969682359122
189,801.725479558595
190,801.7576511269447
191,801.7934762994496
192,801.8329375422899
193,801.8760059800251
194,801.9226409784799
195,801.9727897717696
196,802.0263871447199
197,802.0833551831639
198,802.1436031087347
199,802.2070272199709
200,802.2735109646393
201,802.3429251682803
202,802.4151284428765
203,802.4899677982831
204,802.5672794759628
205,802.6468900172179
206,802.7286175663338
207,802.812273395327
208,802.8976636249171
209,802.9845911086504
210,803.0728574441583
211,803.1622650744325
212,803.2526194384537
213,803.3437311234709
214,803.4354179647441
215,803.5275070372144
216,803.6198364881243
217,803.7122571692023
218,803.8046340411337
219,803.8968473382494
220,803.9887934913814
221,804.0803858098182
222,804.1715549249641
223,804.2622490058279
224,804.3524337715268
225,804.4420923430673
226,804.5312249863971
227,804.6198487952186
228,804.7079973477228
229,804.7957203534323
230,804.8830832909341
231,804.9701670283581
232,805.0570674168157
233,805.1438948476643
234,805.230773760426
235,805.3178420787183
236,805.405250542638
237,805.4931619025093
238,805.581749940864
239,805.6711982950204
240,805.7616990601181
241,805.8534511610676
242,805.9466584911706
243,806.0415278242215
244,806.1382665142313
245,806.237080002627
246,806.3381691592352
247,806.4417274921357
248,806.5479382711776
249,806.6569716180293
250,806.768981621233
251,806.8841035386351
252,807.0024511512561
253,807.1241143306729
254,807.2491568769445
255,807.3776146787519
256,807.5094942430798
257,807.644771636964
258,807.7833918763773
259,807.92526878757
260,808.07028535678
261,808.218294575425
262,808.3691207760671
263,808.5225614366814
264,808.6783894087107
265,808.8363555035356
266,808.9961913592634
267,809.157612509253
268,809.3203215821397
269,809.4840115714646
270,809.6483691154508
271,809.8130777264952
272,809.977820913059
273,810.1422851485709
274,810.3061626601398
275,810.4691540280747
276,810.6309706012782
277,810.791336741117
278,810.9499919033287
279,811.1066925526358
280,811.2612138866184
281,811.4133513368056
282,811.5629218194468
283,811.7097647183323
284,811.8537425886806
285,811.9947415731441
286,812.1326715222581
287,812.2674658141792
288,812.399080870822
289,812.5274953700539
290,812.6527091618461
291,812.7747419137823
292,812.8936315324482
293,813.0094324209309
294,813.1222136334259
295,813.2320569794696
296,813.3390551195773
297,813.4433096853911
298,813.5449294514905
299,813.6440285816171
300,813.7407249689746
301,813.8351386884457
302,813.9273905753789
303,814.0176009387795
304,814.1058884089946
305,814.1923689157077
306,814.2771547917055
307,814.3603539988516
308,814.442069473312
309,814.5223985884018
310,814.6014327372059
311,814.6792570412778
312,814.75595019066
313,814.831584412697
314,814.9062255582849
315,814.9799332896339
316,815.0527613524574
317,815.1247579147768
318,815.1959659543257
319,815.2664236793104
320,815.3361649740862
321,815.4052198690978
322,815.4736150378583
323,815.541374320255
324,815.6085192628636
325,815.6750696566902
326,815.7410440446539
327,815.8064601690598
328,815.8713353337663
329,815.9356866617159
330,815.9995312309978
331,816.0628860730168
332,816.1257680196388
333,816.1881933949768
334,816.2501775619157
335,816.3117343517688
336,816.3728754224886
337,816.4336096025412
338,816.4939422851733
339,816.5538749422589
340,816.6134048224017
341,816.6725248793937
342,816.7312239497502
343,816.7894871730073
344,816.8472966317898
345,816.9046321792664
346,816.9614724171445
347,817.0177957878315
348,817.0735817511361
349,817.1288120284092
350,817.1834719103434
351,817.2375516309988
352,817.2910478052203
353,817.343964910931
354,817.3963167771497
355,817.4481280176391
356,817.4994353322774
357,817.5502885885418
358,817.600751599875
359,817.6509025372226
360,817.7008339392839
361,817.7506523198009
362,817.8004774023578
363,817.8504410393932
364,817.9006858858061
365,817.9513638959993
366,818.0026347002971
367,818.0546638996058
368,818.1076213015652
369,818.161679109812
370,818.2170100713661
371,818.2737855850212
372,818.3321737728958
373,818.392337515415
374,818.4544324484841
375,818.5186049255424
376,818.5849899599388
377,818.653709181394
378,818.7248688563893
379,818.7985580313049
380,818.8748468594749
381,818.9537851703687
382,819.0354013303149
383,819.1197014301586
384,819.2066688208629
385,819.2962640092566
386,819.3884249229172
387,819.4830675493283
388,819.5800869442774
389,819.6793585888871
390,819.7807400597891
391,819.8840729673511
392,819.9891851115893
393,820.095892801136
394,820.2040032762344
395,820.3133171729869
396,820.4236309642635
397,820.5347393150506
398,820.6464372987897
399,820.758522435155
400,820.8707965239864
401,820.9830672609504
402,821.0951496276422
403,821.2068670534949
404,821.3180523502635
405,821.428548423717
406,821.5382087728505
407,821.6468977941252
408,821.7544909155541
409,821.8608745910728
410,821.9659461868478
411,822.069613785832
412,822.1717959274811
413,822.2724212925074
414,822.3714283410454
415,822.4687649139038
416,822.5643878079491
417,822.6582623388265
418,822.7503619066786
419,822.8406675790701
420,822.9291676983354
421,823.0158575126765
422,823.1007388259115
423,823.1838196585937
424,823.26511391049
425,823.3446410114225
426,823.4224255470364
427,823.4984968513596
428,823.5728885711346
429,823.6456382255855
430,823.7167868013898
431,823.7863784278287
432,823.8544601705725
433,823.9210819696747
434,823.9862967329385
435,824.0501605826843
436,824.1127332440424
437,824.1740785564348
438,824.2342650852438
439,824.2933668065128
440,824.3514638343268
441,824.4086431598016
442,824.4649993722151
443,824.5206353328741
444,824.5756627669108
445,824.6302027286174
446,824.6843858879103
447,824.7383525836232
448,824.7922525949759
449,824.846244596588
450,824.9004952852199
451,824.9551781940058
452,825.0104722341516
453,825.0665600187124
454,825.1236260275451
455,825.1818546698603
456,825.2414282947444
457,825.3025251937611
458,825.3653176346079
459,825.4299699603071
460,825.4966367847952
461,825.5654613152772
462,825.6365738353676
463,825.7100903882497
464,825.7861117024258
465,825.8647224038814
466,825.9459905586305
467,826.0299675867058
468,826.1166885793943
469,826.2061730366329
470,826.2984260247761
471,826.393439737189
472,826.4911954181757
473,826.5916655848381
474,826.6948164585273
475,826.8006105055425
476,826.9090089880365
477,827.0199744372346
478,827.1334729768766
479,827.2494764415372
480,827.3679642504569
481,827.4889250123924
482,827.6123578514508
483,827.738273457287
484,827.86669487183
485,827.9976580259874
486,828.1312120358414
487,828.267419264192
488,828.4063551539696
489,828.5481078453538
490,828.6927775956424
491,828.8404760261088
492,828.9913252207792
493,829.1454566981796
494,829.3030102709768
495,829.4641328035033
496,829.6289768760569
497,829.7976993683294
498,829.9704599815376
499,830.1474197274877
500,830.3287394186237
501,830.5145781922128
502,830.705092094977
503,830.9004327455423
504,831.100746083739
505,831.306171210013
506,831.5168393164204
507,831.7328727109082
508,831.9543839350528
509,832.1814749710653
510,832.4142365277685
511,832.6527473881049
512,832.8970737943966
513,833.147268846299
514,833.4033718936989
515,833.6654079209027
516,833.9333869319845
517,834.207303353215
518,834.487135466899
519,834.7728448871006
520,835.0643760855277
521,835.361655975483
522,835.6645935634341
523,835.9730796821864
524,836.2869868261546
525,836.6061691155863
526,836.930462420663
527,837.2596846766803
528,837.5936364174006
529,837.9321015460349
530,838.274848355297
531,838.6216308024924
532,838.9721900412402
533,839.3262562041622
534,839.6835504194445
535,840.0437870309556
536,840.4066759794601
537,840.7719252928571
538,841.1392436262756
539,841.5083427880573
540,841.878940185948
541,842.2507611295712
542,842.6235409296983
543,842.9970267422246
544,843.3709791164652
545,843.7451732224138
546,844.1193997475125
547,844.4934654697032
548,844.8671935297658
549,845.2404234383207
550,845.6130108565284
551,845.9848271843845
552,846.3557589826343
553,846.7257072505269
554,847.0945865828701
555,847.4623242313395
556,847.8288590926037
557,848.194140640564
558,848.5581278153531
559,848.9207878791866
560,849.2820952479442
561,849.6420303075604
562,850.0005782265271
563,850.3577277779617
564,850.7134701835321
565,851.0677979877664
566,851.4207039687201
567,851.7721800916794
568,852.122216515945
569,852.4708006697891
570,852.8179164142142
571,853.1635433193844
572,853.5076560757151
573,853.8502240548657
574,854.1912110267912
575,854.5305750280958
576,854.8682683642821
577,855.2042377183171
578,855.5384243350081
579,855.87076425339
580,856.2011885622054
581,856.5296236549958
582,856.8559914639466
583,857.180209657328
584,857.5021917936994
585,857.8218474364865
586,858.1390822449421
587,858.4537980702279
588,858.7658930951894
589,859.0752620597742
590,859.3817966088832
591,859.6853857877992
592,859.9859166974194
593,860.2832753100361
594,860.5773474350186
595,860.8680198120278
596,861.1551812999395
597,861.438724123804
598,861.7185451381645
599,861.9945470618087
600,862.2666396387143
601,862.5347406855992
602,862.7987769981771
603,863.058685102205
604,863.3144118458238
605,863.5659148321846
606,863.8131626869515
607,864.0561351500957
608,864.2948229812805
609,864.5292276738945
610,864.7593609808957
611,864.9852442623408
612,865.2069076682628
613,865.4243891720466
614,865.6377334714693
615,865.8469907805544
616,866.0522155447825
617,866.2534651199834
618,866.450798457872
619,866.6442748410434
620,866.8339527111115
621,867.0198886338039
622,867.202136438675
623,867.3807465581697
624,867.555765577771
625,867.7272360017214
626,867.8951962353722
627,868.0596807793171
628,868.2207206203735
629,868.3783437952744
630,868.5325761002371
631,868.6834419232705
632,868.8309651806068
633,868.9751703386021
634,869.1160834979933
635,869.2537335135538
636,869.3881531229248
637,869.519380063224
638,869.6474581597807
639,869.7724383741303
640,869.8943797941342
641,870.0133505369104
642,870.1294285206618
643,870.2427020513968
644,870.3532701665488
645,870.4612426780325
646,870.5667398634937
647,870.6698917692407
648,870.7708371102087
649,870.8697217753551
650,870.966696966497
651,871.0619170148972
652,871.1555369345042
653,871.2477097830711
654,871.3385839101488
655,871.4283001725695
656,871.5169891932698
657,871.604768730207
658,871.6917412129749
659,871.7779914986636
660,871.8635848947032
661,871.9485654931693
662,872.0329548589228
663,872.1167511133146
664,872.1999284533314
665,872.2824371395706
666,872.364203974673
667,872.4451332789611
668,872.5251083547568
669,872.6039934168938
670,872.6816359548283
671,872.7578694808825
672,872.8325166082514
673,872.9053923914613
674,872.9763078527426
675,873.0450736111238
676,873.1115035260605
677,873.175418264116
678,873.2366486977634
679,873.2950390517492
680,873.3504497245644
681,873.402759729161
682,873.4518687174482
683,873.4976985757479
684,873.5401945990964
685,873.5793262665034
686,873.6150876452327
687,873.6474974521058
688,873.6765987990107
689,873.7024586519747
690,873.7251670357747
691,873.7448360134194
692,873.7615984615543
693,873.7756066543726
694,873.7870306637649
695,873.7960565818377
696,873.8028845729734
697,873.8077267663679
698,873.810805005349
699,873.8123484752033
700,873.8125912365258
701,873.8117696969721
702,873.8101200595992
703,873.8078757857319
704,873.8052651002431
705,873.8025085523827
706,873.7998166372694
707,873.7973874860381
708,873.7954046395728
709,873.7940349253205
710,873.7934264598755
711,873.7937068043531
712,873.7949813042551
713,873.7973316492098
714,873.800814690436
715,873.8054615540302
716,873.8112770839879
717,873.8182396385254
718,873.8263012479167
719,873.8353881274422
720,873.8454015317878
721,873.8562189380222
722,873.8676955466722
723,873.8796660873916
724,873.8919469068054
725,873.9043383073283
726,873.9166271022071
727,873.9285893517095
728,873.9399932418863
729,873.9506020576101
730,873.9601771900473
731,873.9684811131282
732,873.9752802671474
733,873.9803477966077
734,873.9834660993002
735,873.9844291534704
736,873.9830445996795
737,873.9791355616773
738,873.9725421950308
739,873.9631229552332
740,873.9507555820114
741,873.9353378057641
742,873.9167877936925
743,873.8950443616388
744,873.8700669778722
745,873.841835576147
746,873.8103501810672
747,873.7756303364889
748,873.7377143240634
749,873.6966581635711
750,873.6525343924569
751,873.6054306242573
752,873.5554478869556
753,873.5026987474866
754,873.4473052375788
755,873.3893966036352
756,873.329106904701
757,873.2665724779639
758,873.2019292863353
759,873.135310164918
760,873.0668419953644
761,872.9966428535149
762,872.9248191872824
763,872.8514630849992
764,872.7766496924744
765,872.7004348344228
766,872.6228528962271
767,872.5439150266018
768,872.4636077272299
769,872.3818918946805
770,872.2987023692666
771,872.2139480283577
772,872.1275124432356
773,872.039255101372
774,871.9490131799187
775,871.8566038400995
776,871.7618269956421
777,871.6644684923641
778,871.5643036213721
779,871.4611008762857
780,871.354625858766
781,871.2446452382949
782,871.1309306792846
783,871.0132626579975
784,870.8914341020809
785,870.7652537946899
786,870.6345494896739
787,870.4991706837393
788,870.3589909913759
789,870.2139100752709
790,870.0638550996614
791,869.9087816907971
792,869.7486744001943
793,869.5835466697972
794,869.4134402972034
795,869.2384244009512
796,869.0585938948151
797,868.8740674938898
798,868.6849852882366
799,868.4915059295917
800,868.2938034857721
801,868.0920640288587
802,867.8864820363107
803,867.6772566952666
804,867.4645882054572
805,867.2486741735727
806,867.0297061823595
807,866.807866603393
808,866.5833257071987
809,866.3562391123367
810,866.1267456067025
811,865.8949653665983
812,865.6609985908648
813,865.424924561001
814,865.1868011350261
815,864.9466646801544
816,864.7045304431451
817,864.460393345437
818,864.2142291746704
819,863.9659961295812
820,863.7156366643969
821,863.463079570939
822,863.2082422311636
823,862.9510329727863
824,862.6913534682005
825,862.4291011298669
826,862.1641714689681
827,861.8964603945615
828,861.6258664349142
829,861.3522928595255
830,861.0756496710081
831,860.7958554251901
832,860.5128388315069
833,860.2265400882762
834,859.9369119180244
835,859.6439202815694
836,859.3475447621893
837,859.0477786231768
838,858.7446285543423
839,858.4381141337873
840,858.1282670374777
841,857.8151300300643
842,857.4987557684658
843,857.1792054479497
844,856.8565473197459
845,856.5308551082493
846,856.2022063533913
847,855.8706807014299
848,855.5363581689179
849,855.1993174111252
850,854.8596340338294
851,854.5173789906135
852,854.172617104929
853,853.8254057512436
854,853.4757937276968
855,853.123820353343
856,852.7695148202598
857,852.4128958206018
858,852.0539714541698
859,851.6927394095898
860,851.329187403957
861,850.963293858911
862,850.595028783418
863,850.2243548269341
864,849.8512284637256
865,849.4756012705892
866,849.0974212658334
867,848.7166342854802
868,848.3331853787456
869,847.9470202052449
870,847.5580864118288
871,847.1663349609631
872,846.7717213779033
873,846.3742068823244
874,845.9737593724478
875,845.5703542367637
876,845.163974981497
877,844.7546136806938
878,844.3422712753181
879,843.9269577606367
880,843.5086923027443
881,843.0875033159969
882,842.663428518647
883,842.23651497147
884,841.8068190982616
885,841.3744066857688
886,840.939352857435
887,840.5017420075235
888,840.0616676745695
889,839.6192323309781
890,839.1745470673158
891,838.7277311517095
892,838.2789114482505
893,837.8282216870493
894,837.3758015920447
895,836.9217958857253
896,836.4663531966032
897,836.0096248932409
898,835.5517638617933
899,835.0929232391642
900,834.6332551135723
901,834.1729092055044
902,833.7120315419647
903,833.2507631369731
904,832.7892386941627
905,832.3275853546406
906,831.8659215251502
907,831.4043558348711
908,830.9429862764806
909,830.481899581753
910,830.0211708649216
911,829.5608635458143
912,829.1010295469791
913,828.6417097473502
914,828.1829346675385
915,827.7247253549427
916,827.2670944280846
917,826.81004722884
