frame_number,force
0,804.8193798187598
1,804.8247898206041
2,804.8288872147185
3,804.8316164216546
4,804.8329366998217
5,804.8328223249513
6,804.8312624800847
7,804.8282608686116
8,804.8238350725877
9,804.8180156829096
10,804.8108452309841
11,804.8023769529757
12,804.7926734164952
13,804.7818050392092
14,804.7698485333253
15,804.7568853186075
16,804.7429999561173
17,804.7282786619397
18,804.7128079608129
19,804.6966735301891
20,804.6799592660168
21,804.6627465774508
22,804.6451138952335
23,804.627136361886
24,804.6088856622073
25,804.5904299492876
26,804.5718338228023
27,804.5531583206252
28,804.5344608900149
29,804.5157953119545
30,804.4972115651979
31,804.4787556357117
32,804.4604692963571
33,804.4423898921541
34,804.4245501645804
35,804.4069781375482
36,804.3896970743322
37,804.3727255026799
38,804.356077295317
39,804.3397617865544
40,804.3237839065249
41,804.3081443227159
42,804.292839586127
43,804.277862279401
44,804.2632011597464
45,804.2488412889023
46,804.2347641482888
47,804.2209477452765
48,804.2073667217044
49,804.1939924771922
50,804.1807933184783
51,804.1677346448229
52,804.1547791811481
53,804.1418872734561
54,804.1290172602438
55,804.1161259278286
56,804.1031690513115
57,804.0901020208433
58,804.0768805546055
59,804.0634615025966
60,804.0498037460258
61,804.0358691929754
62,804.0216238605763
63,804.0070390190092
64,803.9920923570859
65,803.9767691168398
66,803.961063138463
67,803.9449777580312
68,803.9285265069509
69,803.9117335710938
70,803.8946339778344
71,803.8772734906728
72,803.8597082036098
73,803.8420038401899
74,803.8242347735779
75,803.8064827918182
76,803.7888356355052
77,803.7713853356607
78,803.7542263812021
79,803.7374537491575
80,803.7211608358004
81,803.7054373333425
82,803.690367106721
83,803.676026138027
84,803.662480617147
85,803.6497852599082
86,803.6379819262427
87,803.6270985917585
88,803.6171487022598
89,803.6081309200762
90,803.6000292573804
91,803.5928135821989
92,803.586440473036
93,803.5808543868723
94,803.5759890943563
95,803.5717693257639
96,803.5681125605471
97,803.5649308830893
98,803.5621328229535
99,803.5596251039989
100,803.5573142417675
101,803.5551079470388
102,803.5529163109669
103,803.5506527618669
104,803.5482347954719
105,803.5455844894212
106,803.5426288174903
107,803.5392997786249
108,803.5355343535924
109,803.5312743042588
110,803.5264658389211
111,803.5210591766412
112,803.5150080487275
113,803.5082691761147
114,803.5008017595567
115,803.4925670155541
116,803.4835277848738
117,803.4736482355333
118,803.4628936811092
119,803.4512305352584
120,803.4386264173372
121,803.4250504082269
122,803.4104734333057
123,803.3948687286565
124,803.378212334268
125,803.3604835567451
126,803.341665350892
127,803.321744580638
128,803.3007121348983
129,803.2785628936448
130,803.2552955605665
131,803.2309123958389
132,803.2054188914931
133,803.1788234306141
134,803.1511369609592
135,803.1223726989149
136,803.0925458691746
137,803.0616734843301
138,803.0297741750306
139,802.9968680887123
140,802.9629768762693
141,802.9281237793003
142,802.892333820114
143,802.855634088858
144,802.8180541190129
145,802.7796263423572
146,802.7403866157233
147,802.700374813709
148,802.6596354828063
149,802.6182185505902
150,802.5761800762339
151,802.5335830173703
152,802.4904979782591
153,802.447003896966
154,802.4031886227899
155,802.3591493316649
156,802.3149927334464
157,802.2708350426445
158,802.2268017064765
159,802.1830269021032
160,802.1396528245789
161,802.0968287911288
162,802.0547101909679
163,802.0134573137066
164,801.9732340896315
165,801.9342067707973
166,801.8965425781175
167,801.860408341507
168,801.8259691659468
169,801.7933871607796
170,801.7628202703431
171,801.7344212422568
172,801.7083367648013
173,801.6847067940881
174,801.6636640745356
175,801.6453338372708
176,801.6298336470052
177,801.6172733614844
178,801.607755167052
179,801.6013736559363
180,801.598215912613
181,801.5983615766991
182,801.6018828507061
183,801.6088444277065
184,801.6193033281305
185,801.6333086509046
186,801.6509012539025
187,801.6721133796226
188,801.6969682386069
189,801.7254795612375
190,801.7576511295314
191,801.7934763019776
192,801.8329375447573
193,801.8760059824308
194,801.9226409808235
195,801.9727897740522
196,802.026387146944
197,802.0833551853332
198,802.1436031108544
199,802.2070272220469
200,802.2735109666776
201,802.3429251702864
202,802.415128444855
203,802.4899678002384
204,802.567279477899
205,802.6468900191388
206,802.728617568243
207,802.8122733972272
208,802.8976636268101
209,802.9845911105369
210,803.0728574460384
211,803.162265076306
212,803.2526194403201
213,803.3437311253291
214,803.4354179665927
215,803.5275070390517
216,803.6198364899484
217,803.7122571710112
218,803.8046340429256
219,803.8968473400226
220,803.988793493134
221,804.080385811548
222,804.1715549266693
223,804.2622490075069
224,804.3524337731783
225,804.4420923446904
226,804.5312249879905
227,804.6198487967815
228,804.707997349255
229,804.7957203549347
230,804.8830832924076
231,804.9701670298037
232,805.0570674182347
233,805.1438948490588
234,805.2307737617978
235,805.317842080069
236,805.4052505439687
237,805.4931619038204
238,805.5817499421555
239,805.6711982962925
240,805.7616990613708
241,805.8534511623011
242,805.9466584923842
243,806.041527825414
244,806.1382665154011
245,806.2370800037725
246,806.3381691603548
247,806.4417274932281
248,806.5479382722424
249,806.6569716190664
250,806.768981622243
251,806.884103539619
252,807.0024511522154
253,807.12411433161
254,807.2491568778632
255,807.3776146796563
256,807.5094942439739
257,807.6447716378527
258,807.7833918772654
259,807.9252687884627
260,808.0702853576825
261,808.2182945763418
262,808.369120777003
263,808.5225614376413
264,808.6783894097002
265,808.8363555045601
266,808.996191360328
267,809.1576125103627
268,809.3203215833
269,809.484011572681
270,809.6483691167284
271,809.813077727838
272,809.97782091447
273,810.1422851500525
274,810.3061626616936
275,810.4691540297018
276,810.6309706029788
277,810.79133674289
278,810.9499919051724
279,811.106692554547
280,811.2612138885934
281,811.4133513388404
282,811.562921821537
283,811.7097647204735
284,811.8537425908685
285,811.9947415753747
286,812.1326715245275
287,812.2674658164837
288,812.3990808731583
289,812.5274953724188
290,812.6527091642367
291,812.7747419161963
292,812.8936315348836
293,813.0094324233872
294,813.1222136359029
295,813.2320569819675
296,813.3390551220966
297,813.4433096879321
298,813.5449294540535
299,813.6440285842019
300,813.7407249715801
301,813.83513869107
302,813.9273905780198
303,814.0176009414339
304,814.1058884116596
305,814.1923689183801
306,814.2771547943819
307,814.3603540015291
308,814.4420694759887
309,814.5223985910759
310,814.6014327398758
311,814.6792570439421
312,814.7559501933177
313,814.8315844153475
314,814.9062255609282
315,814.9799332922711
316,815.0527613550902
317,815.1247579174074
318,815.1959659569563
319,815.2664236819422
320,815.3361649767196
321,815.4052198717325
322,815.4736150404937
323,815.5413743228905
324,815.6085192654988
325,815.675069659324
326,815.741044047285
327,815.8064601716867
328,815.8713353363875
329,815.9356866643302
330,815.999531233604
331,816.0628860756136
332,816.125768022226
333,816.1881933975543
334,816.2501775644844
335,816.3117343543303
336,816.3728754250457
337,816.4336096050969
338,816.4939422877299
339,816.5538749448177
340,816.6134048249628
341,816.672524881956
342,816.7312239523118
343,816.7894871755656
344,816.8472966343411
345,816.9046321818056
346,816.9614724196663
347,817.0177957903317
348,817.0735817536104
349,817.1288120308529
350,817.1834719127515
351,817.2375516333664
352,817.2910478075421
353,817.3439649132021
354,817.3963167793645
355,817.4481280197925
356,817.4994353343651
357,817.55028859056
358,817.6007516018202
359,817.6509025390919
360,817.7008339410754
361,817.7506523215133
362,817.8004774039912
363,817.8504410409487
364,817.9006858872857
365,817.9513638974057
366,818.0026347016335
367,818.054663900875
368,818.1076213027701
369,818.1616791109557
370,818.2170100724526
371,818.273785586055
372,818.3321737738821
373,818.3923375163589
374,818.4544324493908
375,818.5186049264178
376,818.5849899607898
377,818.6537091822277
378,818.7248688572124
379,818.7985580321238
380,818.8748468602959
381,818.9537851711978
382,819.035401331158
383,819.1197014310206
384,819.2066688217478
385,819.2962640101672
386,819.3884249238558
387,819.483067550297
388,819.5800869452785
389,819.6793585899222
390,819.7807400608581
391,819.8840729684521
392,819.9891851127187
393,820.0958928022889
394,820.2040032774049
395,820.313317174169
396,820.423630965452
397,820.5347393162414
398,820.6464372999792
399,820.7585224363406
400,820.8707965251672
401,820.9830672621268
402,821.0951496288163
403,821.2068670546703
404,821.318052351445
405,821.4285484249103
406,821.538208774062
407,821.6468977953613
408,821.7544909168206
409,821.8608745923754
410,821.9659461881924
411,822.0696137872251
412,822.171795928929
413,822.2724212940163
414,822.3714283426215
415,822.4687649155529
416,822.5643878096771
417,822.6582623406387
418,822.7503619085793
419,822.8406675810633
420,822.9291677004246
421,823.0158575148648
422,823.1007388282017
423,823.1838196609882
424,823.2651139129911
425,823.3446410140322
426,823.4224255497564
427,823.4984968541916
428,823.5728885740793
429,823.6456382286433
430,823.7167868045595
431,823.7863784311078
432,823.8544601739579
433,823.9210819731625
434,823.9862967365232
435,824.0501605863589
436,824.1127332477986
437,824.1740785602631
438,824.2342650891328
439,824.2933668104503
440,824.3514638382999
441,824.408643163798
442,824.4649993762234
443,824.5206353368839
444,824.5756627709111
445,824.6302027325976
446,824.6843858918598
447,824.738352587531
448,824.7922525988308
449,824.8462446003799
450,824.9004952889405
451,824.9551781976481
452,825.0104722377092
453,825.0665600221802
454,825.1236260309189
455,825.1818546731363
456,825.2414282979196
457,825.3025251968335
458,825.3653176375769
459,825.4299699631732
460,825.4966367875599
461,825.5654613179421
462,825.6365738379351
463,825.7100903907228
464,825.7861117048092
465,825.8647224061802
466,825.9459905608509
467,826.0299675888533
468,826.1166885814745
469,826.2061730386508
470,826.2984260267363
471,826.3934397390946
472,826.4911954200285
473,826.5916655866395
474,826.6948164602774
475,826.8006105072403
476,826.9090089896797
477,827.0199744388196
478,827.1334729783994
479,827.2494764429937
480,827.3679642518429
481,827.4889250137036
482,827.6123578526834
483,827.7382734584377
484,827.8666948728957
485,827.9976580269665
486,828.1312120367329
487,828.2674192649965
488,828.4063551546889
489,828.5481078459906
490,828.6927775962
491,828.8404760265915
492,828.9913252211924
493,829.1454566985293
494,829.30301027127
495,829.4641328037471
496,829.628976876258
497,829.7976993684944
498,829.9704599816729
499,830.1474197276001
500,830.3287394187197
501,830.5145781922984
502,830.705092095058
503,830.9004327456242
504,831.1007460838266
505,831.3061712101106
506,831.5168393165318
507,831.7328727110374
508,831.9543839352042
509,832.1814749712432
510,832.4142365279771
511,832.6527473883477
512,832.8970737946772
513,833.1472688466208
514,833.4033718940652
515,833.665407921316
516,833.9333869324461
517,834.2073033537245
518,834.4871354674549
519,834.7728448877014
520,835.0643760861709
521,835.3616559761668
522,835.6645935641573
523,835.9730796829484
524,836.2869868269559
525,836.6061691164278
526,836.9304624215459
527,837.2596846776063
528,837.5936364183714
529,837.9321015470514
530,838.2748483563595
531,838.6216308035999
532,838.9721900423912
533,839.3262562053546
534,839.6835504206769
535,840.043787032227
536,840.4066759807694
537,840.7719252942034
538,841.1392436276581
539,841.508342789475
540,841.8789401874
541,842.2507611310567
542,842.6235409312162
543,842.9970267437744
544,843.3709791180472
545,843.7451732240288
546,844.1193997491613
547,844.4934654713879
548,844.8671935314899
549,845.2404234400883
550,845.613010858344
551,845.984827186252
552,846.3557589845574
553,846.725707252508
554,847.0945865849105
555,847.4623242334395
556,847.8288590947627
557,848.1941406427808
558,848.558127817626
559,848.9207878815137
560,849.2820952503232
561,849.6420303099875
562,850.0005782289976
563,850.3577277804692
564,850.713470186068
565,851.0677979903202
566,851.4207039712794
567,851.772180094231
568,852.1222165184747
569,852.4708006722822
570,852.8179164166556
571,853.16354332176
572,853.5076560780117
573,853.8502240570716
574,854.191211028897
575,854.5305750300944
576,854.8682683661689
577,855.2042377200903
578,855.5384243366694
579,855.8707642549446
580,856.201188563661
581,856.5296236563626
582,856.855991465237
583,857.1802096585569
584,857.5021917948828
585,857.8218474376416
586,858.1390822460874
587,858.4537980713816
588,858.7658930963694
589,859.0752620609967
590,859.3817966101624
591,859.6853857891484
592,859.9859166988501
593,860.2832753115579
594,860.5773474366387
595,860.8680198137503
596,861.1551813017662
597,861.4387241257348
598,861.7185451401975
599,861.9945470639401
600,862.2666396409381
601,862.5347406879076
602,862.7987770005609
603,863.0586851046534
604,863.3144118483249
605,863.565914834726
606,863.8131626895203
607,864.0561351526787
608,864.2948229838647
609,864.5292276764667
610,864.7593609834432
611,864.9852442648518
612,865.2069076707267
613,865.4243891744538
614,865.6377334738114
615,865.8469907828245
616,866.0522155469755
617,866.253465122095
618,866.4507984598988
619,866.6442748429836
620,866.8339527129643
621,867.0198886355697
622,867.2021364403546
623,867.3807465597646
624,867.5557655792836
625,867.7272360031554
626,867.8951962367327
627,868.0596807806106
628,868.2207206216079
629,868.3783437964587
630,868.5325761013814
631,868.6834419243861
632,868.8309651817051
633,868.9751703396945
634,869.116083499091
635,869.2537335146679
636,869.3881531240668
637,869.5193800644056
638,869.6474581610127
639,869.7724383754228
640,869.894379795497
641,870.013350538353
642,870.1294285221941
643,870.2427020530279
644,870.3532701682868
645,870.4612426798849
646,870.5667398654668
647,870.6698917713396
648,870.7708371124373
649,870.869721777717
650,870.9666969689949
651,871.0619170175318
652,871.1555369372749
653,871.2477097859755
654,871.3385839131837
655,871.4283001757301
656,871.5169891965501
657,871.604768733601
658,871.6917412164755
659,871.7779915022626
660,871.8635848983907
661,871.9485654969344
662,872.0329548627527
663,872.1167511171956
664,872.1999284572486
665,872.2824371435088
666,872.3642039786166
667,872.4451332828943
668,872.5251083586642
669,872.6039934207611
670,872.6816359586427
671,872.7578694846325
672,872.8325166119267
673,872.9053923950538
674,872.9763078562455
675,873.0450736145323
676,873.1115035293715
677,873.175418267329
678,873.2366487008791
679,873.2950390547693
680,873.350449727492
681,873.4027597320002
682,873.4518687202049
683,873.4976985784288
684,873.5401946017088
685,873.5793262690548
686,873.6150876477304
687,873.6474974545567
688,873.6765988014209
689,873.7024586543494
690,873.7251670381187
691,873.7448360157376
692,873.7615984638505
693,873.7756066566496
694,873.7870306660244
695,873.7960565840805
696,873.8028845751996
697,873.8077267685769
698,873.8108050075391
699,873.8123484773722
700,873.8125912386715
701,873.8117696990927
702,873.8101200616936
703,873.8078757877993
704,873.8052651022828
705,873.8025085543944
706,873.7998166392534
707,873.7973874879959
708,873.7954046415064
709,873.7940349272324
710,873.7934264617692
711,873.7937068062331
712,873.794981306127
713,873.7973316510801
714,873.8008146923117
715,873.8054615559189
716,873.8112770858977
717,873.8182396404645
718,873.8263012498932
719,873.8353881294634
720,873.8454015338604
721,873.8562189401517
722,873.8676955488628
723,873.8796660896462
724,873.8919469091255
725,873.9043383097143
726,873.9166271046576
727,873.928589354222
728,873.9399932444572
729,873.9506020602347
730,873.9601771927194
731,873.9684811158406
732,873.9752802698921
733,873.9803477993765
734,873.9834661020857
735,873.9844291562653
736,873.9830446024774
737,873.9791355644725
738,873.972542197818
739,873.9631229580077
740,873.950755584769
741,873.9353378085011
742,873.9167877964057
743,873.8950443643256
744,873.8700669805297
745,873.8418355787728
746,873.8103501836598
747,873.7756303390477
748,873.7377143265876
749,873.6966581660595
750,873.6525343949073
751,873.6054306266668
752,873.5554478893202
753,873.5026987498022
754,873.4473052398403
755,873.389396605838
756,873.3291069068409
757,873.2665724800365
758,873.2019292883366
759,873.1353101668444
760,873.0668419972124
761,872.996642855281
762,872.9248191889634
763,872.8514630865914
764,872.7766496939736
765,872.7004348358249
766,872.6228528975282
767,872.5439150277979
768,872.4636077283166
769,872.3818918956526
770,872.2987023701193
771,872.2139480290864
772,872.1275124438364
773,872.0392551018416
774,871.9490131802543
775,871.8566038402996
776,871.761826995706
777,871.6644684922924
778,871.564303621166
779,871.4611008759473
780,871.3546258582976
781,871.2446452376995
782,871.1309306785656
783,871.0132626571591
784,870.8914341011279
785,870.7652537936275
786,870.6345494885086
787,870.4991706824791
788,870.358990990031
789,870.2139100738535
790,870.0638550981855
791,869.9087816892775
792,869.7486743986468
793,869.5835466682386
794,869.4134402956504
795,869.2384243994206
796,869.0585938933239
797,868.8740674924543
798,868.6849852868725
799,868.4915059283143
800,868.2938034845963
801,868.0920640277986
802,867.886482035379
803,867.6772566944747
804,867.4645882048151
805,867.2486741730884
806,867.0297061820402
807,866.8078666032447
808,866.5833257072275
809,866.3562391125475
810,866.1267456070999
811,865.8949653671865
812,865.6609985916475
813,865.4249245619809
814,865.186801136204
815,864.9466646815295
816,864.7045304447153
817,864.4603933471989
818,864.2142291766195
819,863.9659961317111
820,863.715636666701
821,863.4630795734098
822,863.2082422337921
823,862.9510329755624
824,862.6913534711127
825,862.4291011329025
826,862.1641714721128
827,861.8964603978008
828,861.6258664382335
829,861.3522928629106
830,861.0756496744453
831,860.7958554286657
832,860.5128388350081
833,860.2265400917906
834,859.9369119215401
835,859.6439202850744
836,859.3475447656722
837,859.0477786266265
838,858.7446285577475
839,858.4381141371374
840,858.1282670407626
841,857.8151300332746
842,857.4987557715926
843,857.1792054509857
844,856.8565473226859
845,856.5308551110899
846,856.2022063561311
847,855.8706807040691
848,855.5363581714578
849,855.1993174135687
850,854.85963403618
851,854.5173789928754
852,854.1726171071067
853,853.825405753341
854,853.4757937297181
855,853.1238203552923
856,852.7695148221412
857,852.4128958224198
858,852.0539714559296
859,851.692739411297
860,851.3291874056171
861,850.9632938605293
862,850.5950287850003
863,850.2243548284861
864,849.8512284652531
865,849.4756012720982
866,849.0974212673297
867,848.716634286969
868,848.333185380233
869,847.9470202067367
870,847.5580864133309
871,847.1663349624811
872,846.771721379442
873,846.3742068838886
874,845.9737593740418
875,845.5703542383907
876,845.1639749831595
877,844.7546136823933
878,844.3422712770546
879,843.926957762409
880,843.5086923045504
881,843.087503317834
882,842.6634285205117
883,842.2365149733583
884,841.8068191001698
885,841.374406687693
886,840.9393528593703
887,840.5017420094658
888,840.0616676765152
889,839.619232332924
890,839.1745470692598
891,838.7277311536504
892,838.2789114501875
893,837.8282216889824
894,837.3758015939751
895,836.9217958876559
896,836.4663531985377
897,836.0096248951835
898,835.5517638637481
899,835.0929232411347
900,834.633255115562
901,834.1729092075158
902,833.7120315439998
903,833.250763139034
904,832.7892386962511
905,832.327585356758
906,831.8659215272975
907,831.4043558370495
908,830.9429862786914
909,830.481899583997
910,830.0211708671986
911,829.5608635481236
912,829.101029549319
913,828.6417097497183
914,828.1829346699311
915,827.7247253573548
916,827.267094430509
917,826.8100472312675
918,826.3535830245876
