frame_number,force
0,804.8180238634764
1,804.8233067106946
2,804.8273014036191
3,804.8299533969798
4,804.8312225075754
5,804.8310830957437
6,804.8295239685442
7,804.8265480165138
8,804.8221716051399
9,804.8164237463759
10,804.8093450784726
11,804.8009866838038
12,804.791408773232
13,804.7806792652208
14,804.7688722921914
15,804.7560666749503
16,804.742344415135
17,804.727789262385
18,804.7124854135901
19,804.6965163926219
20,804.6799641406136
21,804.6629083238814
22,804.6454258451572
23,804.6275905279588
24,804.6094729347299
25,804.5911402762381
26,804.5726563712028
27,804.5540816191892
28,804.5354729547763
29,804.5168837579821
30,804.4983637082895
31,804.4799585878669
32,804.461710057824
33,804.4436554413514
34,804.4258275457648
35,804.4082545451391
36,804.3909599324485
37,804.3739625386108
38,804.3572766062584
39,804.3409118998287
40,804.3248738343271
41,804.30916361286
42,804.2937783703286
43,804.2787113206715
44,804.2639519007006
45,804.2494859030217
46,804.2352955961319
47,804.2213598372099
48,804.2076541880535
49,804.1941510459637
50,804.1808198001098
51,804.1676270227657
52,804.1545367063616
53,804.1415105600269
54,804.1285083785223
55,804.1154884909123
56,804.1024082904383
57,804.0892248450903
58,804.0758955900485
59,804.0623791057353
60,804.0486359859046
61,804.0346297962687
62,804.0203281142307
63,804.0057036260692
64,803.9907352430988
65,803.9754091865841
66,803.959719985404
67,803.9436713315333
68,803.9272767446257
69,803.910560005625
70,803.8935553291332
71,803.876307255222
72,803.8588702533109
73,803.841308042916
74,803.8236926470158
75,803.806103201227
76,803.7886245449241
77,803.7713456210043
78,803.7543577125128
79,803.7377525479537
80,803.7216203118966
81,803.7060476036663
82,803.6911153963387
83,803.6768970606715
84,803.663456529119
85,803.6508466776529
86,803.639107994735
87,803.6282675885185
88,803.61833856059
89,803.6093197548116
90,803.6011958767566
91,803.5939379701682
92,803.5875042275179
93,803.581841101072
94,803.5768846704166
95,803.5725622125981
96,803.5687939107596
97,803.5654946274024
98,803.5625756642501
99,803.5599464364979
100,803.5575160035415
101,803.5551944159299
102,803.5528938549836
103,803.550529555495
104,803.5480205131416
105,803.5452899867648
106,803.5422658102042
107,803.5388805279506
108,803.5350713667327
109,803.5307800572621
110,803.5259525283918
111,803.5205385050366
112,803.5144910461697
113,803.5077660597943
114,803.5003218300475
115,803.4921185877927
116,803.4831181502782
117,803.4732836506943
118,803.4625793774997
119,803.4509707434255
120,803.4384243983467
121,803.4249084851591
122,803.4103930166585
123,803.3948503315278
124,803.3782555757798
125,803.3605871548182
126,803.341827107811
127,803.3219613666761
128,803.3009798763944
129,803.2788765721513
130,803.2556492289365
131,803.2312992155855
132,803.2058311937939
133,803.1792528014317
134,803.1515743493303
135,803.122808546705
136,803.092970260319
137,803.0620763113546
138,803.0301453201112
139,802.9971976156563
140,802.9632552288546
141,802.9283419807601
142,802.8924836683885
143,802.8557083424137
144,802.8180466683517
145,802.7795323626649
146,802.7402026963675
147,802.7000990604829
148,802.6592675889291
149,802.6177598326844
150,802.5756334720452
151,802.5329530430677
152,802.4897906446881
153,802.4462265861071
154,802.4023499278568
155,802.3582588666342
156,802.3140609198956
157,802.2698728830603
158,802.225820553474
159,802.1820382324602
160,802.1386680260249
161,802.0958589686971
162,802.0537659984344
163,802.012548814197
164,801.9723706480403
165,801.9333969794435
166,801.895794216029
167,801.8597283666206
168,801.8253637381584
169,801.7928616922308
170,801.7623794977624
171,801.7340693146988
172,801.7080773388835
173,801.6845431280872
174,801.6635991127595
175,801.6453702770564
176,801.629973982273
177,801.6175198986604
178,801.6081100110737
179,801.6018386658724
180,801.5987926281532
181,801.5990511184917
182,801.6026857991956
183,801.6097606864777
184,801.6203319784661
185,801.6344478042079
186,801.65214790813
187,801.6734632853002
188,801.6984157795679
189,801.72701765486
190,801.7592711508175
191,801.7951680353008
192,801.8346891665421
193,801.8778040774597
194,801.9244705942795
195,801.9746345008322
196,802.0282292592044
197,802.0851757985646
198,802.145382387901
199,802.2087446133372
200,802.2751454836052
201,802.3444556873204
202,802.416534024622
203,802.4912280345048
204,802.5683748361871
205,802.6478021958281
206,802.7293298186376
207,802.8127708533168
208,802.8979335842263
209,802.9846232793246
210,803.0726441591015
211,803.1618014506673
212,803.2519034877749
213,803.3427638108361
214,803.4342032148111
215,803.5260516915647
216,803.6181502176549
217,803.7103523476759
218,803.802525586767
219,803.8945525304288
220,803.9863317693763
221,804.0777785600412
222,804.168825262958
223,804.2594215584903
224,804.3495344637608
225,804.4391481909845
226,804.5282638967377
227,804.616899368401
228,804.7050886803828
229,804.7928818356474
230,804.8803443934098
231,804.9675570754029
232,805.0546153415987
233,805.1416289269407
234,805.2287213268314
235,805.3160292101375
236,805.4037017299985
237,805.4918996994055
238,805.5807946004096
239,805.6705674010991
240,805.7614071616595
241,805.8535094190566
242,805.9470743487698
243,806.0423047106488
244,806.1394035929709
245,806.2385719742203
246,806.340006128263
247,806.4438949069546
248,806.5504169434618
249,806.6597378272488
250,806.7720073070095
251,806.8873565814943
252,807.0058957397625
253,807.1277114104442
254,807.2528646747272
255,807.3813892926264
256,807.5132902878848
257,807.6485429322115
258,807.7870921623897
259,807.928852454422
260,808.0737081698352
261,808.2215143808178
262,808.372098169514
263,808.5252603797948
264,808.6807777787338
265,808.8384055650653
266,808.997880149712
267,809.1589221329587
268,809.3212394107704
269,809.4845303506772
270,809.648486979949
271,809.8127981278252
272,809.9771524665293
273,810.1412414071615
274,810.3047618239173
275,810.4674185974459
276,810.6289269815959
277,810.7890148050072
278,810.9474245161218
279,811.1039150660145
280,811.2582636061939
281,811.4102669703595
282,811.5597429134425
283,811.7065310907598
284,811.8504937665004
285,811.991516242755
286,812.1295070015689
287,812.2643975549629
288,812.3961420000742
289,812.524716279059
290,812.6501171513165
291,812.7723609023361
292,812.8914818336824
293,813.007530591747
294,813.1205723936764
295,813.2306852008393
296,813.3379578799796
297,813.442488383964
298,813.5443819783799
299,813.6437495360623
300,813.7407059187012
301,813.8353684629557
302,813.9278555854717
303,814.0182855146987
304,814.1067751500115
305,814.1934390445599
306,814.2783885079311
307,814.361730825617
308,814.4435685928522
309,814.5239991616323
310,814.6031142033112
311,814.6809993931122
312,814.7577342218545
313,814.8333919327475
314,814.9080395726633
315,814.9817381429032
316,815.0545428333403
317,815.126503323094
318,815.1976641306674
319,815.2680649990963
320,815.3377413081159
321,815.406724512749
322,815.4750426109679
323,815.5427206397233
324,815.6097811903919
325,815.6762449248872
326,815.7421310659103
327,815.8074578328315
328,815.8722427989202
329,815.9365031513111
330,816.0002558374601
331,816.0635175822191
332,816.1263047627785
333,816.1886331371089
334,816.2505174352945
335,816.3119708405839
336,816.3730044032361
337,816.4336264413704
338,816.4938419903024
339,816.5536523660925
340,816.6130549047247
341,816.672042920618
342,816.7306059020453
343,816.788729937156
344,816.8463983483956
345,816.9035925041596
346,816.9602927722736
347,817.0164795803533
348,817.0721345545509
349,817.1272417201695
350,817.1817887603479
351,817.2357683350974
352,817.289179457848
353,817.342028911722
354,817.3943326680942
355,817.4461172500546
356,817.4974209664111
357,817.5482949326589
358,817.5988037995493
359,817.6490261285505
360,817.6990543814317
361,817.7489945225126
362,817.7989652628366
363,817.8490970005661
364,817.89953052499
365,817.950415550093
366,818.0019091313407
367,818.0541740030824
368,818.1073768590863
369,818.1616865876373
370,818.2172724663451
371,818.2743023197793
372,818.3329406423638
373,818.3933466871595
374,818.4556725197219
375,818.5200610399625
376,818.5866439870871
377,818.6555399601625
378,818.7268525021673
379,818.8006683039354
380,818.8770555866075
381,818.9560627183507
382,819.0377171126879
383,819.1220244423571
384,819.2089681888708
385,819.298509539493
386,819.3905876402573
387,819.4851202099286
388,819.5820045100741
389,819.681118651503
390,819.7823232031122
391,819.8854630599703
392,819.9903695224084
393,820.0968625337918
394,820.20475302042
395,820.3138452734081
396,820.4239393106463
397,820.5348331591788
398,820.6463250067031
399,820.7582151841417
400,820.870307954839
401,820.9824130962985
402,821.0943472671876
403,821.2059351567799
404,821.317010417263
405,821.4274163830319
406,821.5370065865271
407,821.6456450870513
408,821.7532066359927
409,821.8595767072658
410,821.9646514229597
411,822.0683373991016
412,822.1705515275057
413,822.271220702987
414,822.3702815037996
415,822.4676798344323
416,822.5633705412143
417,822.6573170132697
418,822.7494907837197
419,822.8398711446688
420,822.9284447828442
421,823.0152054352649
422,823.1001535600973
423,823.1832960157896
424,823.2646457389815
425,823.3442214088561
426,823.4220470851826
427,823.4981518123711
428,823.5725691943804
429,823.6453369631513
430,823.7164965786098
431,823.786092903262
432,823.8541739881808
433,823.9207909949037
434,823.9859982640212
435,824.0498535287028
436,824.1124182619637
437,824.1737581403186
438,824.2339436020216
439,824.2930504741367
440,824.3511606396313
441,824.4083627150139
442,824.4647527105656
443,824.5204346452817
444,824.5755210834922
445,824.6301335509917
446,824.6844027808586
447,824.7384687373459
448,824.7924803716172
449,824.8465950764777
450,824.9009778290138
451,824.9558000363724
452,825.011238123003
453,825.0674719116474
454,825.1246828546269
455,825.1830521694218
456,825.2427589267463
457,825.303978133334
458,825.3668788467304
459,825.4316223550821
460,825.4983604514414
461,825.5672338315992
462,825.6383706479305
463,825.7118852566667
464,825.7878771991808
465,825.8664304590238
466,825.947613036567
467,826.0314768802931
468,826.1180582049265
469,826.2073782123479
470,826.2994442152856
471,826.3942511468003
472,826.4917834176285
473,826.5920170586984
474,826.6949220642373
475,826.8004648394243
476,826.9086106577693
477,827.0193260440334
478,827.1325810135831
479,827.2483511150463
480,827.3666192383865
481,827.4873771647256
482,827.6106268480372
483,827.7363814316662
484,827.8646660110222
485,827.995518155056
486,828.1289881953929
487,828.2651392885508
488,828.4040472573238
489,828.5458002225386
490,828.6904980432884
491,828.8382515887538
492,828.9891818654121
493,829.1434190197791
494,829.3011012310182
495,829.4623735030805
496,829.6273863650298
497,829.7962944915461
498,829.9692552625143
499,830.1464272889025
500,830.3279689377105
501,830.5140368879324
502,830.7047847429778
503,830.9003617164727
504,831.100911400431
505,831.3065706192829
506,831.5174683715446
507,831.7337248611371
508,831.9554506188977
509,832.1827457106598
510,832.4156990224428
511,832.6543876064591
512,832.8988760655819
513,833.149215952674
514,833.4054451681275
515,833.6675873523862
516,833.9356512830923
517,834.209630292239
518,834.4895017171581
519,834.775226395461
520,835.066748211905
521,835.3639937047775
522,835.6668717409117
523,835.9752732726392
524,836.289071196158
525,836.6081203368173
526,836.9322575906731
527,837.2613022518917
528,837.5950565516177
529,837.9333064266134
530,838.2758225283
531,838.6223614775658
532,838.9726673665299
533,839.3264735014882
534,839.6835043703595
535,840.0434778053141
536,840.4061072996744
537,840.7711044290104
538,841.1381813195716
539,841.5070531026334
540,841.8774402917043
541,842.2490710212315
542,842.6216830896972
543,842.9950257570739
544,843.3688612577969
545,843.7429660047844
546,844.1171314752394
547,844.4911647844776
548,844.8648889695518
549,845.2381430162815
550,845.6107816668286
551,845.9826750400955
552,846.3537080897477
553,846.7237799210737
554,847.0928029891188
555,847.4607022019821
556,847.8274139509288
557,848.1928850839716
558,848.5570718351751
559,848.9199387195184
560,849.2814574020266
561,849.6416055500869
562,850.0003656800128
563,850.3577240109764
564,850.7136693383399
565,851.06819193483
566,851.4212824855643
567,851.772931063613
568,852.1231261559858
569,852.4718537547499
570,852.8190965332498
571,853.1648331304839
572,853.5090375648755
573,853.8516787922326
574,854.1927204139955
575,854.5321205314365
576,854.869831729391
577,855.2058011633612
578,855.5399707210222
579,855.8722772317063
580,856.2026527001788
581,856.531024542351
582,856.8573158030605
583,857.1814453414536
584,857.5033279774303
585,857.8228746025496
586,858.1399922705992
587,858.4545842951559
588,858.7665503908283
589,859.0757868980812
590,859.382187126594
591,859.685641840992
592,859.9860399004435
593,860.2832690526614
594,860.5772168719651
595,860.8677718198782
596,861.154824397706
597,861.4382683549622
598,861.7180019136965
599,861.993928965673
600,862.2659601990646
601,862.5340141167206
602,862.7980179192314
603,863.0579082393623
604,863.3136317243826
605,863.5651454652009
606,863.8124172670283
607,864.0554257513762
608,864.2941602790863
609,864.5286206896059
610,864.7588168594626
611,864.9847680893064
612,865.2065023325174
613,865.4240552798037
614,865.6374693161499
615,865.8467923721876
616,866.052076701031
617,866.2533776190544
618,866.4507522516072
619,866.6442583245204
620,866.8339530430945
621,867.0198921003858
622,867.2021288507366
623,867.3807136721612
624,867.5556935287944
625,867.7271117377023
626,867.8950079410771
627,868.0594182792124
628,868.2203757500209
629,868.3779107320916
630,868.532051645705
631,868.6828257297589
632,868.8302599168802
633,868.9743817889649
634,869.1152205911459
635,869.2528082785288
636,869.3871805707516
637,869.5183779940352
638,869.6464468958933
639,869.7714404203492
640,869.8934194274362
641,870.0124533291648
642,870.1286208002276
643,870.2420103120978
644,870.3527204353918
645,870.4608598558854
646,870.5665470555184
647,870.6699096237926
648,870.7710831858352
649,870.8702099553933
650,870.9674369397374
651,871.0629138390038
652,871.1567906964303
653,871.2492153676754
654,871.3403308848266
655,871.4302727922162
656,871.5191665266098
657,871.6071249056176
658,871.6942457794266
659,871.780609895136
660,871.8662790193102
661,871.9512943612095
662,872.0356753371075
663,872.1194187154576
664,872.2024981808429
665,872.2848643484161
666,872.3664452492671
667,872.4471472929158
668,872.526856698513
669,872.6054413729692
670,872.6827532026444
671,872.7586307148233
672,872.8329020547694
673,872.9053882136892
674,872.9759064341134
675,873.0442737128466
676,873.1103103168565
677,873.1738432243365
678,873.2347094037041
679,873.2927588493974
680,873.3478573048889
681,873.3998886192054
682,873.4487567027294
683,873.4943870696977
684,873.5367279746237
685,873.5757511634763
686,873.6114522661892
687,873.6438508570669
688,873.6729902089337
689,873.698936769005
690,873.7217793870167
691,873.741628323692
692,873.7586140597856
693,873.7728859179241
694,873.7846105048885
695,873.793969980513
696,873.8011601604165
697,873.8063884634216
698,873.8098717196755
699,873.8118338606987
700,873.812503517665
701,873.8121115598224
702,873.810888610057
703,873.8090625743636
704,873.8068562124048
705,873.8044847622592
706,873.8021536247921
707,873.8000561158077
708,873.7983713007354
709,873.7972619309265
710,873.796872503643
711,873.7973274719054
712,873.7987296347861
713,873.801158742195
714,873.804670350494
715,873.8092949654556
716,873.8150375050258
717,873.8218771044111
718,873.8297672713036
719,873.8386363850417
720,873.8483885265206
721,873.8589046263555
722,873.8700439210241
723,873.8816457037775
724,873.8935313485506
725,873.9055065766815
726,873.9173639328194
727,873.9288854360603
728,873.9398453689823
729,873.950013157961
730,873.9591562871121
731,873.9670431828729
732,873.9734460096358
733,873.9781433254283
734,873.9809225560746
735,873.9815822557073
736,873.9799341308328
737,873.97580481255
738,873.9690373657883
739,873.9594925273185
740,873.9470496691139
741,873.9316074924773
742,873.9130844695093
743,873.891419056622
744,873.8665697050735
745,873.8385146850593
746,873.8072517263198
747,873.7727974665531
748,873.7351866955167
749,873.6944713870942
750,873.6507195171538
751,873.6040136672458
752,873.554449415513
753,873.5021335211775
754,873.4471819175405
755,873.3897175356403
756,873.329867981997
757,873.2677630895078
758,873.2035323558778
759,873.1373022861188
760,873.0691936672754
761,872.9993188191543
762,872.927778875843
763,872.8546611558802
764,872.7800366770151
765,872.7039578689871
766,872.6264565379877
767,872.54754214081
768,872.4672004318876
769,872.385392545631
770,872.3020545662592
771,872.2170976208913
772,872.1304085140379
773,872.0418509051433
774,871.951267015429
775,871.8584798348743
776,871.7632957843233
777,871.6655077723888
778,871.5648985727873
779,871.4612444362318
780,871.3543188451147
781,871.2438963208015
782,871.1297562001447
783,871.0116863067936
784,870.8894864527317
785,870.7629717142347
786,870.6319754307576
787,870.496351874745
788,870.3559785402759
789,870.2107580051104
790,870.0606193347949
791,869.905519013489
792,869.7454413972073
793,869.5803986884921
794,869.4104304306819
795,869.2356025217479
796,869.056005756258
797,868.8717539172869
798,868.6829814525349
799,868.4898407782449
800,868.2924992632635
801,868.0911359565562
802,867.8859381339912
803,867.677097750823
804,867.4648078912637
805,867.2492593040853
806,867.030637104073
807,866.8091177054803
808,866.5848660390666
809,866.3580330927762
810,866.1287538081343
811,865.8971453570614
812,865.6633058159011
813,865.4273132473542
814,865.1892251979483
815,864.9490786160865
816,864.7068901897424
817,864.462657091623
818,864.2163581047873
819,863.967955087716
820,863.7173947274387
821,863.4646105217149
822,863.2095249260215
823,862.9520516009757
824,862.692097703009
825,862.4295661734574
826,862.1643579942005
827,861.8963743879294
828,861.6255189453482
829,861.351699658584
830,861.0748308311638
831,860.7948348246074
832,860.5116435956886
833,860.2251999808312
834,859.9354586942152
835,859.6423870190946
836,859.3459651838967
837,859.0461864261142
838,858.7430567587262
839,858.4365944641736
840,858.1268293468664
841,857.813801776097
842,857.497561549421
843,857.1781666048965
844,856.8556816099236
845,856.5301764535138
846,856.2017246664817
847,855.8704017918427
848,855.5362837291543
849,855.1994450827705
850,854.8599575512687
851,854.5178883983978
852,854.1732990431404
853,853.8262438017769
854,853.4767688130164
855,853.1249111778833
856,852.7706983433592
857,852.4141477490413
858,852.0552667422163
859,851.6940527548239
860,851.3304937279088
861,850.964568762567
862,850.5962489690279
863,850.225498479198
864,849.8522755852011
865,849.4765339678323
866,849.09822398418
867,848.7172939913795
868,848.3336916892617
869,847.9473654650106
870,847.5582657186069
871,847.1663461420997
872,846.7715649212935
873,846.373885826916
874,845.9732791645966
875,845.5697225597263
876,845.1632015657138
877,844.7537101020296
878,844.3412507470575
879,843.9258349230786
880,843.507483012224
881,843.0862244335851
882,842.6620976978786
883,842.2351504441472
884,841.805439457364
885,841.3730306645689
886,840.9379991041576
887,840.5004288555051
888,840.0604129088638
889,839.6180529534673
890,839.1734590634449
891,838.7267492629516
892,838.2780489552665
893,837.8274902089762
894,837.3752109072186
895,836.9213537784352
896,836.4660653334661
897,836.009494731895
898,835.5517925940312
899,835.0931097702864
900,834.6335960794179
901,834.1733990282358
902,833.7126625253171
903,833.2515256012953
904,832.7901211510616
905,832.3285747201836
906,831.8670033691559
907,831.4055146617849
908,830.9442058309363
909,830.4831631697654
910,830.022461680255
911,829.5621649906338
912,829.1023255362422
913,828.6429849872712
914,828.1841748996444
915,827.7259175587251
916,827.2682269771211
917,826.8111099975972
