acceleration,velocity,displacement
0.008658408702719804,0.0,0.0
0.00837522941551046,4.258409529557566e-06,1.0646023823893915e-09
0.008094697773699172,8.375891326859975e-06,4.223177596493777e-09
0.00781694367449552,1.2353801688908648e-05,9.405600850435932e-09
0.007542094621455092,1.61935612628963e-05,1.654244158838717e-08
0.007270274537848348,1.989665355272216e-05,2.5564995292291786e-08
0.007001602615655046,2.346462284109801e-05,3.640531439074683e-08
0.006736192235971191,2.689907155400457e-05,4.8996237989522474e-08
0.006474149988333023,3.0201657110080624e-05,6.327142015554377e-08
0.006215574821225496,3.3374088312470254e-05,7.916535651118149e-08
0.005960557367976728,3.6418121359770814e-05,9.661340892924176e-08
0.005709179500248829,3.93355555768272e-05,1.1555182816339127e-07
0.0054615141596940295,4.212822899181292e-05,1.359177743055513e-07
0.005217625509440182,4.479801390909647e-05,1.5764933503077864e-07
0.004977569433566472,4.734681264484813e-05,1.806855416692648e-07
0.0047413943938384,4.977655360169935e-05,2.0496638323090168e-07
0.004509142628581946,5.208918785730444e-05,2.3043281859565264e-07
0.004280851654398115,5.428668642804946e-05,2.5702678716699113e-07
0.004056556014952644,5.637103834538715e-05,2.846912183603503e-07
0.0038362892142886264,5.8344249652697464e-05,3.133700403598714e-07
0.0036200857713644344,6.020834339911073e-05,3.430081886228235e-07
0.00340798333293428,6.196536067518542e-05,3.735516146413975e-07
0.0032000247816797163,6.361736270383891e-05,4.049472954861536e-07
0.0029962602761115713,6.516643396828673e-05,4.37143244654185e-07
0.002796749158263826,6.661468632688058e-05,4.7008852472797684e-07
0.0026015616631230557,6.79642640322273e-05,5.037332623177538e-07
0.0024107803601084144,6.921734953803516e-05,5.380286657103195e-07
0.002224501256575929,7.037616994220625e-05,5.729270455803798e-07
0.002042834500770298,7.14430038815428e-05,6.08381839036317e-07
0.0018659046351245277,7.24201886655165e-05,6.443476371730819e-07
0.001693850364967308,7.331012741553946e-05,6.807802161933459e-07
0.001526823821639319,7.411529596219112e-05,7.176365720377785e-07
0.0013649893159748687,7.483824924659467e-05,7.54874958339975e-07
0.0012085215991347823,7.548162697537208e-05,7.924549273954667e-07
0.0010576036693178,7.604815829248523e-05,8.30337373712431e-07
0.0009124241794302553,7.654066525467224e-05,8.684845795992203e-07
0.000773174510145904,7.696206492706629e-05,9.068602621446549e-07
0.0006400455774768827,7.731536994897198e-05,9.454296208636645e-07
0.0005132244485736757,7.760368745548462e-05,9.841593852147787e-07
0.00039289084514162716,7.783021627891344e-05,1.0230178611483782e-06
0.0002792136178421347,7.799824239465938e-05,1.0619749758167713e-06
0.0001723472750051597,7.81111326178712e-05,1.101002319569904e-06
7.242864413996499e-05,7.817232659765748e-05,1.1400731843737861e-06
-2.042626586907895e-05,7.81853271922252e-05,1.1791625978212567e-06
-0.00010612514942688819,7.815368933840122e-05,1.2182473519539132e-06
-0.00018460199791200412,7.80810075515665e-05,1.257306026176405e-06
-0.00025581937276616235,7.797090220889695e-05,1.296319003616521e-06
-0.00031977033119460644,7.782700478290675e-05,1.3352684803644719e-06
-0.0003764799807211318,7.765294220492782e-05,1.3741384671114306e-06
-0.0004260066451600819,7.745232054845752e-05,1.4129147827997769e-06
-0.0004684426309625995,7.722870822942685e-05,1.451585039994248e-06
-0.0005039145839456823,7.698561892569978e-05,1.4901386217830296e-06
-0.0005325834223413192,7.672649442412802e-05,1.5285666501204866e-06
-0.0005546438279087553,7.64546876115655e-05,1.56686194562941e-06
-0.0005703232761059956,7.617344583556182e-05,1.6050189789911917e-06
-0.0005798805891768489,7.588589486924111e-05,1.6430338141673924e-06
-0.0005836040022711799,7.55950237213791e-05,1.6809040438150475e-06
-0.0005818087457843854,7.530367053436521e-05,1.7186287173789835e-06
-0.0005748341696332029,7.50145098055108e-05,1.7562082624639525e-06
-0.0005630404621900098,7.4730041147555e-05,1.793644400202219e-06
-0.0005468050370202184,7.445257977275246e-05,1.8309400554322958e-06
-0.0005265186683856403,7.418424884640098e-05,1.868099262587084e-06
-0.0005025814590771413,7.392697381453529e-05,1.9051270682523181e-06
-0.0004753987345355658,7.36824787661321e-05,1.942029431397485e-06
-0.0004453769763943972,7.345228483839961e-05,1.978813122298618e-06
-0.0004129199233042899,7.323771061347494e-05,2.0154856211615866e-06
-0.00037842496460500225,7.303987439149762e-05,2.05205501741283e-06
-0.00034227993097805216,7.285969816760186e-05,2.0885299105526046e-06
-0.0003048603531114555,7.269791309657948e-05,2.1249193133686498e-06
-0.00026652722592940053,7.255506620181927e-05,2.1612325581932496e-06
-0.00022762528983683673,7.24315280728777e-05,2.197479206761924e-06
-0.00018848182166943407,7.232750129500113e-05,2.2336689641038936e-06
-0.0001494059124704751,7.224302936146615e-05,2.2698115967680103e-06
-0.00011068819207662164,7.217800583532937e-05,2.3059168555672093e-06
-7.260093795879192e-05,7.213218355282052e-05,2.3419944029142467e-06
-3.5398479349514084e-05,7.210518369849344e-05,2.3780537447270754e-06
6.82212001228371e-07,7.209650463165638e-05,2.4141041668096127e-06
3.542085375744143e-05,7.210553039809604e-05,2.4501546755670507e-06
6.86131982597209e-05,7.213153891110033e-05,2.48621394289435e-06
0.00010007045662517693,7.217370982482156e-05,2.5222902550783305e-06
0.00012961884681142786,7.223113215068072e-05,2.558391465572206e-06
0.00015709929486900276,7.230281168610082e-05,2.5945249515314017e-06
0.00018236730320819318,7.238767833562012e-05,2.630697574036832e-06
0.00020529298576354912,7.248459340786306e-05,2.6669156419727027e-06
0.00022576126116038495,7.259235696959403e-05,2.703184879567067e-06
0.00024367218984208794,7.270971533234465e-05,2.7395103976425517e-06
0.0002589414319339856,7.283536873778866e-05,2.775896668660085e-06
0.00027150078745944963,7.296797929263702e-05,2.8123475056676915e-06
0.00028129877124251704,7.310617918231252e-05,2.8488660452864288e-06
0.0002883011839497938,7.32485791711106e-05,2.8854547348747844e-06
0.0002924916633507927,7.339377738293574e-05,2.922115324013296e-06
0.00029387221805135175,7.354036835328627e-05,2.9588488604473513e-06
0.0002924637496356796,7.368695234520804e-05,2.995655690621975e-06
0.0002883065637149857,7.38321449235457e-05,3.0325354649391635e-06
0.00028146086515977176,7.397458678076439e-05,3.0694871478652413e-06
0.0002720072294423982,7.411295380441494e-05,3.106509033011536e-06
0.00026004703480074547,7.424596737047572e-05,3.1435987633052585e-06
0.00024570282691002026,7.43724048359034e-05,3.180753356356853e-06
0.00022911857538377624,7.449111018647686e-05,3.217969235112448e-06
0.00021045977525606748,7.460100477413683e-05,3.2552422638526016e-06
0.0001899133426037572,7.470109805360178e-05,3.2925677895595364e-06
0.00016768724717589856,7.47904982010467e-05,3.3299406886231984e-06
0.00014400982249183932,7.486842246846363e-05,3.367355418790576e-06
0.00011912870304812696,7.493420709984862e-05,3.404806076182654e-06
9.330935770697943e-05,7.49873166150374e-05,3.442286457111376e-06
6.683321171702017e-05,7.50273522573934e-05,3.4797901243294834e-06
3.99953737312929e-05,7.505405940375548e-05,3.5173104772447705e-06
1.310200453779417e-05,7.506733374832275e-05,3.55484082553279e-06
-1.3532624465972164e-05,7.506722609334071e-05,3.592374465493206e-06
-3.958933379031197e-05,7.505394560377664e-05,3.629904758417485e-06
-6.474745510413864e-05,7.502786140655302e-05,3.6674252101700673e-06
-8.868843024581287e-05,7.498950243521553e-05,3.7049295511305096e-06
-0.00011109955812927393,7.493955543812176e-05,3.742411815598844e-06
-0.0001316778583123819,7.487886108401134e-05,3.7798664197293774e-06
-0.00015013401828380948,7.480840811486229e-05,3.817288237029096e-06
-0.00016619639198435832,7.472932551229526e-05,3.8546726704358856e-06
-0.00017961501908116836,7.464287265952888e-05,3.8920157199788416e-06
-0.0001901656321556683,7.455042749671966e-05,3.9293140450179036e-06
-0.00019765360906841758,7.445347268641364e-05,3.966565020063687e-06
-0.0002019178143944106,7.435357983054793e-05,4.003766783192927e-06
-0.00020283426639760405,7.425239181034992e-05,4.040918276103151e-06
-0.00020031956991410456,7.4151603351272e-05,4.078019274893557e-06
-0.00019433406277688935,7.405293994309924e-05,4.1150704107171496e-06
-0.0001848846175869713,7.395813527300828e-05,4.152073179521177e-06
-0.0001720270147958552,7.386890736491257e-05,4.189029940180657e-06
-0.00015586777235821148,7.378693366812404e-05,4.225943900438916e-06
-0.0001365653086623277,7.371382539786891e-05,4.262819090205414e-06
-0.00011433034365895128,7.36511014847886e-05,4.299660321926078e-06
-8.942549359815954e-05,7.360016252547432e-05,4.336473137928644e-06
-6.216405804636715e-05,7.356226513756319e-05,4.373263744844404e-06
-3.290801833951473e-05,7.353849711846671e-05,4.410038935408411e-06
-2.0652702463674804e-06,7.352975379632024e-05,4.446805998137108e-06
2.991388893541715e-05,7.35367159509925e-05,4.483572615573936e-06
6.254099957606711e-05,7.355982967312037e-05,4.520346751979964e-06
9.529437769263358e-05,7.359928851743755e-05,4.557136531527604e-06
0.00012762470123950885,7.365501828717058e-05,4.593950108228756e-06
0.00015896116355400278,7.372666475336896e-05,4.630795528988891e-06
0.00018871809305885098,7.381358456752218e-05,4.6676805913191135e-06
0.00021630194490303804,7.391483957701265e-05,4.704612697355247e-06
0.00024111859924686057,7.402919471305012e-05,4.741598705927762e-06
0.00026258093019833995,7.415511959541143e-05,4.7786447845048775e-06
0.0002801166181254469,7.429079398249238e-05,4.815756262899354e-06
0.0002931761658978112,7.443411717849819e-05,4.852937490689602e-06
0.0003012410620308793,7.458272148548035e-05,4.8901917003555965e-06
0.000303832020692467,7.473398975616119e-05,4.927520878166007e-06
0.00030051721297351684,7.488507706457769e-05,4.964925644871192e-06
0.0002909203771579486,7.503293646211056e-05,5.002405148252864e-06
0.00027472866513276415,7.517434872268324e-05,5.039956969549063e-06
0.00025170006484773633,7.530595590517836e-05,5.077577045706028e-06
0.0002216702414189929,7.542429848174505e-05,5.115259609302759e-06
0.00018455865194129192,7.552585570508511e-05,5.152997147849466e-06
0.00014037379770968133,7.560708881749785e-05,5.190780383980112e-06
8.921747937708484e-05,7.566448663676955e-05,5.2285982778436785e-06
3.12879219360573e-05,7.569461298709783e-05,5.266438052749645e-06
-3.311835661716048e-05,7.569415537842756e-05,5.304285244841026e-06
-0.00010360604451593794,7.565997427814429e-05,5.342123777255169e-06
-0.0001796819932293122,7.558915226870798e-05,5.379936058891882e-06
-0.0002607576937371777,7.547904234696635e-05,5.4177031075458e-06
-0.00034615329861857743,7.53273145988774e-05,5.455404696782262e-06
-0.0004351031756306327,7.51320004803151e-05,5.49301952555206e-06
-0.0005267629351209416,7.48915339526272e-05,5.530525409160295e-06
-0.0006202178325838579,7.4604788760701e-05,5.567899489838627e-06
-0.0007144924120531787,7.427111119954174e-05,5.605118464828688e-06
-0.0008085612275786418,7.389034778963379e-05,5.642158829575982e-06
-0.000901360461137329,7.346286736745479e-05,5.678997133365254e-06
-0.0009918002474559463,7.298957719030647e-05,5.715610244504695e-06
-0.0010787775167778472,7.247193274924802e-05,5.751975621989583e-06
-0.0011611891704540185,7.191194107744005e-05,5.788071590446255e-06
-0.0012379454072634181,7.131215743301069e-05,5.823877615073868e-06
-0.0013079830223348226,7.067567532561113e-05,5.859374573263524e-06
-0.0013702785101034566,7.000610994250156e-05,5.894545019580552e-06
-0.0014238608173101897,6.930757511064816e-05,5.929373440843839e-06
-0.0014678236036378526,6.858465400541114e-05,5.963846498122854e-06
-0.0015013368714676054,6.784236388663478e-05,5.997953252595865e-06
-0.001523657827209613,6.708611521196547e-05,6.031685372370515e-06
-0.0015341408427069587,6.632166554448633e-05,6.065037317559628e-06
-0.0015322463987273,6.555506873412777e-05,6.0980065011292814e-06
-0.0015175489114377173,6.479261990658651e-05,6.13059342328946e-06
-0.0014897433665664692,6.404079683708547e-05,6.1628017774753774e-06
-0.0014486507148892347,6.330619831672154e-05,6.194638526263829e-06
-0.0013942220120631357,6.259548013498345e-05,6.226113945876755e-06
-0.0013265413076344393,6.191528930505905e-05,6.257241638236766e-06
-0.0012458273003856815,6.127219715305402e-05,6.288038509851294e-06
-0.0011524337860805212,6.067263188143747e-05,6.318524717109916e-06
-0.0010468489323758312,6.0122811201823384e-05,6.3487235778807315e-06
-0.0009296934195220353,5.9628675613848916e-05,6.37866144958465e-06
-0.0008017174803102156,5.9195822888890856e-05,6.408367574210335e-06
-0.0006637968611577327,5.882944430352387e-05,6.437873891008439e-06
-0.0005169277134339403,5.8534263159875956e-05,6.467214817874289e-06
-0.0003622204134414377,5.8314476128157115e-05,6.496427002696297e-06
-0.0002008923033821465,5.817369794895122e-05,6.525549046215574e-06
-3.4259348652908646e-05,5.8114910035942456e-05,6.554621198211797e-06
0.00013627327667366967,5.814041351794765e-05,6.58368502910027e-06
0.0003092216343392237,5.8251787245700874e-05,6.6127830792911826e-06
0.0004830344185390587,5.8449851258920445e-05,6.641958488917338e-06
0.0006561051965540479,5.873463616269372e-05,6.671254610772742e-06
0.0008267853665399856,5.910535880346723e-05,6.700714609514282e-06
0.0009933976960198568,5.956040456910719e-05,6.7303810503574255e-06
0.0011542503005393865,6.0097316568247e-05,6.760295480641764e-06
0.00130765092267318,6.071279187405014e-05,6.790498007752338e-06
0.0014519213742768145,6.140268494828764e-05,6.821026876957922e-06
0.0015854120053197794,6.21620182931868e-05,6.851918052768291e-06
0.001706516061861119,6.298500030998201e-05,6.883204807419084e-06
0.001813683799693303,6.386505027537062e-05,6.914917320065422e-06
0.0019054362316836316,6.479483028321485e-05,6.947082290205068e-06
0.0019803784037884407,6.576628394208287e-05,6.979722568761393e-06
0.0020372121106700444,6.677068157069749e-05,7.012856810139588e-06
0.002074747967405342,6.779867159021633e-05,7.046499148429816e-06
0.0020919167443676015,6.884033776815956e-05,7.08065890076941e-06
0.002087779853091611,6.988526191752437e-05,7.115340300690831e-06
0.002061538854811756,7.092259159450022e-05,7.150542264068837e-06
0.0020125438634424854,7.194111227406378e-05,7.186258190035978e-06
0.0019403007353283432,7.292932342375649e-05,7.222475798960433e-06
0.0018444769704565203,7.387551785020271e-05,7.259177009278923e-06
0.0017249062800389992,7.476786366282658e-05,7.29633785465718e-06
0.001581591795878341,7.559448818180591e-05,7.333928442618338e-06
0.0014147079097689777,7.634356310821774e-05,7.371912955440844e-06
0.0012246007411957655,7.700339027095892e-05,7.410249693785639e-06
0.0010117872413709093,7.756248726660059e-05,7.4488911631700285e-06
0.000776952951718669,7.800967231487298e-05,7.487784203065397e-06
0.0005209484437298947,7.833414766373512e-05,7.526870158060049e-06
0.00024478447006545266,7.852558089218396e-05,7.566085090199028e-06
-5.037415111210783e-05,7.85741834719223e-05,7.605360031290055e-06
-0.00036321591281984934,7.847078595593931e-05,7.64462127364702e-06
-0.0006922912654247577,7.820690916137816e-05,7.68379069742635e-06
-0.0010360225422407301,7.777483070946178e-05,7.72278613239406e-06
-0.0013927151569137976,7.716764628467315e-05,7.761521751642593e-06
-0.0017605700279007088,7.637932498846952e-05,7.799908494460878e-06
-0.002137697136217143,7.540475819744005e-05,7.837854515257356e-06
-0.0025221300756561745,7.423980139447172e-05,7.875265655155334e-06
-0.0029118414236166622,7.28813085196535e-05,7.912045932633866e-06
-0.0033047587504838397,7.132715847612838e-05,7.94809804938281e-06
-0.003698781089612549,6.957627351610428e-05,7.983323907380868e-06
-0.004091795695759236,6.762862931976134e-05,8.017625133089834e-06
-0.004481694918648473,6.548525666615941e-05,8.050903604586315e-06
-0.004866393012370418,6.314823468340468e-05,8.083061977423706e-06
-0.005243842700168327,6.062067575526999e-05,8.114004205033374e-06
-0.005612051325157985,5.7906702248938414e-05,8.143636049534427e-06
-0.005969096439109873,5.501141530787145e-05,8.17186557892363e-06
-0.006313140704398666,5.194085602199432e-05,8.198603646756096e-06
-0.0066424459990311845,4.870195934613685e-05,8.223764350598129e-06
-0.006955386618696816,4.530250119170485e-05,8.24726546573259e-06
-0.007250461467142467,4.175103917024503e-05,8.269028850823077e-06
-0.0075263051210807735,3.805684752318922e-05,8.288980822496436e-06
-0.007781697650952931,3.4229846830180794e-05,8.307052496084779e-06
-0.008015573077613407,3.028052914803921e-05,8.323180090079334e-06
-0.008227026349457715,2.6219879291271427e-05,8.337305192189161e-06
-0.008415318735239052,2.2059293020097234e-05,8.349374985267004e-06
-0.008579881546537563,1.781049294965308e-05,8.35934243175944e-06
-0.008720318133204084,1.3485443029717667e-05,8.367166415754283e-06
-0.008836404131690945,9.09626246349391e-06,8.372811842127585e-06
-0.008928085983627713,4.655139934664246e-06,8.376249692727124e-06
-0.008995477779056134,1.7424899399328432e-07,8.377457039959289e-06
-0.009038856517319645,-4.33433458010066e-06,8.376417018562762e-06
-0.009058655913857934,-8.858712687895055e-06,8.373118756745763e-06
-0.00905545890433061,-1.338724139244219e-05,8.367557268225678e-06
-0.009029989007709845,-1.7908603370452304e-05,8.359733307034955e-06
-0.008983100714551112,-2.2411875801017543e-05,8.349653187242087e-06
-0.0089157690699078,-2.6886593247132273e-05,8.33732856998005e-06
-0.008829078618558937,-3.132280516924896e-05,8.322776220375954e-06
-0.008724211869406988,-3.571112779124044e-05,8.306017737135831e-06
-0.008602437419359456,-4.0042790113432045e-05,8.287079257659664e-06
-0.008465097860374039,-4.430967393336542e-05,8.265991141647965e-06
-0.00831359757666698,-4.8504347792625674e-05,8.242787636216467e-06
-0.008149390520232565,-5.262009481685056e-05,8.217506525564098e-06
-0.007973968034395635,-5.665093445550761e-05,8.190188768246009e-06
-0.007788846783933455,-6.0591638160089886e-05,8.160878125092109e-06
-0.007595556850269349,-6.443773906864059e-05,8.129620780784927e-06
-0.007395630059376009,-6.818553579605193e-05,8.096464962068754e-06
-0.007190588620784691,-7.183209046609211e-05,8.061460555503217e-06
-0.00698193416155563,-7.537522116167719e-05,8.024658727596275e-06
-0.006771137237173084,-7.881348901135937e-05,7.986111550053016e-06
-0.0065596273947058446,-8.21461801693291e-05,7.945871632757844e-06
-0.00634878385627992,-8.537328298207554e-05,7.903991766969993e-06
-0.006139926884893035,-8.849546066736878e-05,7.860524581057632e-06
-0.005934309888305487,-9.151401986066841e-05,7.815522210925622e-06
-0.005733112310007069,-9.443087541024655e-05,7.769035987107894e-06
-0.005537433353322822,-9.724851182607903e-05,7.721116140298812e-06
-0.005348286588033897,-9.99699418114182e-05,7.671811526889438e-06
-0.005166595494561023,-0.00010259866233206694,7.621169375853567e-06
-0.004993190000901028,-0.00010513860870593246,7.5692350580940675e-06
-0.004828804057267931,-0.0001075941072204747,7.516051879112466e-06
-0.004674074273622417,-0.00010996982680319728,7.461660895606548e-06
-0.004529539621912476,-0.000112270730277081,7.406100756336478e-06
-0.004395642183755421,-0.00011450202572849798,7.349407567335083e-06
-0.00427272890729022,-0.00011666911850125939,7.291614781277644e-06
-0.0041610543224636694,-0.00011877756430869787,7.232753110575155e-06
-0.004060784148415861,-0.00012083302392641775,7.172850463516376e-06
-0.003971999706987115,-0.00012284121989026848,7.111931902562204e-06
-0.003894703035970725,-0.00012480789557600794,7.050019623695635e-06
-0.0038288225831669726,-0.00012673877698079236,6.987132955556435e-06
-0.0037742193594260402,-0.0001286395374664406,6.923288376944627e-06
-0.0037306934296466154,-0.00013051576566370878,6.858499551162089e-06
-0.003697990620607882,-0.0001323729366762724,6.792777375577094e-06
-0.003675809327228285,-0.00013421638666323143,6.726130044742218e-06
-0.0036638073087175774,-0.00013605129082221789,6.658563125370856e-06
-0.003661608379103203,-0.00013788264474417307,6.590079641479258e-06
-0.003668808902132659,-0.00013971524906448204,6.520680168027094e-06
-0.0036849839945472225,-0.000141553697288652,6.450362931438811e-06
