acceleration,velocity,displacement
0.008661479848941469,0.0,0.0
0.008378428426851395,4.259977068948216e-06,1.064994267237054e-09
0.00809801964336245,8.379089086501677e-06,4.224760806099527e-09
0.00782038417019959,1.2358690039892187e-05,9.409205587697992e-09
0.00754565014683676,1.6200198619151275e-05,1.6548927752458858e-08
0.007273941934521024,1.990509663949072e-05,2.5575251567119355e-08
0.0070053789090652714,2.3474926850387295e-05,3.642025743958886e-08
0.006740074329873177,2.6911290160121906e-05,4.901681169221616e-08
0.006478134314064192,3.0215842321106248e-05,6.32985948125232e-08
0.0062196569494506705,3.3390290136984964e-05,7.9200127927046e-08
0.005964731592683409,3.6436387272518485e-05,9.665679727942187e-08
0.005713438407199695,3.9355929772489264e-05,1.156048765406738e-07
0.005465848193895807,4.215075142276314e-05,1.3598154683948692e-07
0.0052220225581230215,4.4822719110767846e-05,1.5772491447286967e-07
0.004982014442452788,4.73737283609118e-05,1.807740263407896e-07
0.004745869034872082,4.980569923024302e-05,2.0506888323857828e-07
0.004513625036557249,5.212057274810035e-05,2.3055045123316414e-07
0.004285316248052533,5.43203080692528e-05,2.571606714375024e-07
0.004060973415381539,5.640688048511132e-05,2.848424685760935e-07
0.003840626270585481,5.838228040660308e-05,3.1353975879902207e-07
0.003624305700339802,6.02485133993344e-05,3.4319745725050644e-07
0.003412045976726507,6.200760131860098e-05,3.7376148592999026e-07
0.0032038869840489413,6.366158455879484e-05,4.051787823993392e-07
0.002999876375107036,6.521252539858384e-05,4.3739730988868385e-07
0.0028000715898484126,6.66625123898227e-05,4.703660693357855e-07
0.0026045416671206995,6.801366570406498e-05,5.040351138592574e-07
0.002413368776455742,6.926814331495909e-05,5.383555661140135e-07
0.0022266493964291116,7.04281478581803e-05,5.732796389072983e-07
0.0020444950739381173,7.149593397577211e-05,6.087606593657864e-07
0.0018670327128211752,7.247381592246193e-05,6.447530968403449e-07
0.0016944043550894535,7.336417518943959e-05,6.812125946183204e-07
0.0015267664326208588,7.416946788636717e-05,7.180960053872721e-07
0.0013642884848716129,7.489223161574029e-05,7.55361430262799e-07
0.001207151360219949,7.553509157701317e-05,7.929682610609874e-07
0.001055544941036827,7.610076565232737e-05,8.308772253683225e-07
0.0009096654499902244,7.659206825008413e-05,8.690504338439253e-07
0.0007697124047920642,7.70119127137797e-05,9.074514290848913e-07
0.0006358852935472398,7.736331213836452e-05,9.460452352979273e-07
0.000508380047722353,7.764937847368192e-05,9.84798407950939e-07
0.00038738539560281084,7.787331983451321e-05,1.0236790825279878e-06
0.00027307918335800946,7.803843597925342e-05,1.0626570214814294e-06
0.00016562475076825384,7.814811196278499e-05,1.101703658466939e-06
6.516744361677021e-05,7.820581001138124e-05,1.1407921389604807e-06
-2.8168666315578147e-05,7.821505970570653e-05,1.1798973563897527e-06
-0.00011428379887279641,7.817944658940944e-05,1.2189959829635317e-06
-0.0001931051812341643,7.81025993443827e-05,1.2580664944469798e-06
-0.0002645894308083606,7.798817569137207e-05,1.2970891882059186e-06
-0.00032872457731188305,7.7839847189342e-05,1.336046193926097e-06
-0.0003855316992060602,7.766128312021252e-05,1.3749214765034856e-06
-0.0004350661562418498,7.745613365635055e-05,1.4137008306976265e-06
-0.00047741840653334715,7.722801251565675e-05,1.4523718672406283e-06
-0.0005127143976874983,7.698047931460154e-05,1.4909239901981928e-06
-0.0005411155172157054,7.671702183587574e-05,1.529348365485812e-06
-0.0005628180829806016,7.644103843582666e-05,1.5676378805537376e-06
-0.0005780523537534983,7.615582082664314e-05,1.605787095369355e-06
-0.0005870810428320245,7.586453747749676e-05,1.64379218494539e-06
-0.0005901973242224056,7.557021788573315e-05,1.6816508737861975e-06
-0.0005877223345600959,7.527573797103752e-05,1.7193623627503901e-06
-0.0005800021974817966,7.498380683802705e-05,1.7569272489526563e-06
-0.0005674046254149017,7.469695513230287e-05,1.7943474394452388e-06
-0.0005503151751411236,7.441752518216386e-05,1.8316260595238555e-06
-0.0005291332416151577,7.414766307797479e-05,1.86876735658889e-06
-0.0005042678772165195,7.388931279826687e-05,1.9057766005579504e-06
-0.0004761335345508789,7.364421244532502e-05,1.9426599818688483e-06
-0.00044514585090164855,7.341389259896189e-05,1.97942450812992e-06
-0.0004117176078846806,7.319967673426531e-05,2.016077900463227e-06
-0.0003762549974259929,7.300268358293764e-05,2.052628490542528e-06
-0.00033915430278352605,7.282383125788526e-05,2.0890851192527334e-06
-0.0003007990686320432,7.266384291503136e-05,2.1254570377959625e-06
-0.0002615577992563672,7.252325369805926e-05,2.161753811949235e-06
-0.00022178219654730058,7.240241869910835e-05,2.197985230048527e-06
-0.00018180592988514466,7.230152166750024e-05,2.234161215140179e-06
-0.00014194391369065418,7.222058420660629e-05,2.2702917416087055e-06
-0.00010249205053056342,7.215947521555099e-05,2.3063867564642447e-06
-6.372737403636587e-05,7.211792035940926e-05,2.342456105357985e-06
-2.590849833823813e-05,7.209551139131561e-05,2.378509463295666e-06
1.0723739949290993e-05,7.209171520171838e-05,2.4145562699439244e-06
4.5945561732740606e-05,7.210588252713888e-05,2.4506056693761385e-06
7.954954251399797e-05,7.213725630320056e-05,2.486666454083723e-06
0.00011134399520115232,7.218497968762935e-05,2.5227470130814305e-06
0.00014115248600034887,7.224810380792972e-05,2.5588552839553205e-06
0.00016881351406077187,7.2325595307945e-05,2.594998708734289e-06
0.00019418036941499739,7.241634377881393e-05,2.631184193505979e-06
0.0002171211690886892,7.251916916343986e-05,2.6674180717415423e-06
0.00023751906209516568,7.263282922123583e-05,2.7037060713377113e-06
0.0002552725885973894,7.275602713390896e-05,2.7400532854264977e-06
0.0002702961688589157,7.288741932327304e-05,2.776464147040793e-06
0.00028252068173213334,7.30256235359208e-05,2.8129424077555915e-06
0.00029189408266352973,7.316922722701972e-05,2.8494911204463266e-06
0.00029838202072762885,7.33167962528675e-05,2.8861126263162982e-06
0.0003019684378865681,7.346688386752105e-05,2.9228085463463955e-06
0.0003026561526008587,7.36180400151429e-05,2.9595797773170616e-06
0.00030046743379296364,7.376882091174136e-05,2.9964264925487827e-06
0.0002954445654249674,7.391779891154585e-05,3.0333481475046043e-06
0.0002876503964725285,7.406357265202023e-05,3.070343490395496e-06
0.00027716886756239394,7.420477746802896e-05,3.1074105779255083e-06
0.0002641054979330497,7.434009605940282e-05,3.1445467963073663e-06
0.0002485878027641356,7.446826938457711e-05,3.1817488876683615e-06
0.00023076559793182782,7.45881077347511e-05,3.2190129819481937e-06
0.00021081114284462565,7.469850191994522e-05,3.256334634361868e-06
0.00018891906772753762,7.479843447258826e-05,3.293708868460001e-06
0.0001653060252030916,7.488699074582092e-05,3.331130224764603e-06
0.00014021000346171162,7.496336975298712e-05,3.368592814889305e-06
0.00011388924794581773,7.5026894565839e-05,3.4060903809690118e-06
8.662075879456498e-05,7.50770220675241e-05,3.4436163601273527e-06
5.869835575759202e-05,7.511335184616215e-05,3.481163953605774e-06
3.0430327373130532e-05,7.513563401694483e-05,3.5187262000715506e-06
2.1367024766571268e-06,7.514377577440727e-05,3.5562960525193886e-06
-2.5853806039544746e-05,7.513784649851656e-05,3.5938664580876193e-06
-5.3207133938454085e-05,7.511808126352206e-05,3.631430440028129e-06
-7.958742882076547e-05,7.508488262283226e-05,3.6689811809997177e-06
-0.00010466080528735677,7.503882056430523e-05,3.706512106796502e-06
-0.00012809925901515704,7.49806305482296e-05,3.7440169695746357e-06
-0.00014958470721771852,7.491120955667139e-05,3.781489929600861e-06
-0.00016881312117129665,7.483161009957413e-05,3.818925634514922e-06
-0.00018549871692679864,7.474303214004961e-05,3.856319295074828e-06
-0.00019937817236129212,7.464681291772759e-05,3.893666756339272e-06
-0.0002102148362498781,7.45444146655748e-05,3.930964563235098e-06
-0.0002178028845862087,7.443741023536577e-05,3.968210019460333e-06
-0.00022197136535562816,7.43274666728803e-05,4.005401238687395e-06
-0.00022258806515741336,7.421632681525205e-05,4.042537187059428e-06
-0.0002195631350946841,7.410578901518902e-05,4.079617716017038e-06
-0.00021285242090753758,7.399768512618846e-05,4.116643584552383e-06
-0.00020246043613736397,7.389385691192725e-05,4.1536164700619115e-06
-0.00018844289008527676,7.379613108037158e-05,4.190538967059986e-06
-0.00017090865008629832,7.37062931953287e-05,4.227414573128911e-06
-0.00015002100861926044,7.362606078065231e-05,4.264247661622907e-06
-0.00012599815531178564,7.355705598966955e-05,4.301043440815488e-06
-9.911280665875526e-05,7.350077824917692e-05,4.337807899375199e-06
-6.969099149931479e-05,7.34585772996374e-05,4.374547738262403e-06
-3.811001175272844e-05,7.343162704882439e-05,4.4112702893495185e-06
-4.795601611199394e-06,7.34209006454834e-05,4.447983421273096e-06
2.9781694240343563e-05,7.342714716864069e-05,4.4846954332266265e-06
6.5110903897161e-05,7.345087031817507e-05,4.52141493759833e-06
0.00010064574481646748,7.349230948035347e-05,4.558150732547963e-06
0.000135810421614488,7.355142352196121e-05,4.594911665798541e-06
0.00017000602077930327,7.362787763255966e-05,4.6317064910871715e-06
0.0002026173973669671,7.372103348709623e-05,4.6685437188670854e-06
0.00023302045561836505,7.382994295034257e-05,4.705431462976445e-06
0.00026058975578517997,7.395334550319345e-05,4.742377285089829e-06
0.00028470641011314204,7.408966954466803e-05,4.7793880388517945e-06
0.00030476623999697275,7.423703770719556e-05,4.816469715664761e-06
0.00032018815353280616,7.4393276305578e-05,4.8536272941679545e-06
0.00033042268428322706,7.455592901503201e-05,4.890864595498107e-06
0.0003349606183454626,7.472227484068918e-05,4.9281841464620365e-06
0.00033334162054199736,7.488935040041105e-05,4.9655870527723115e-06
0.00032516274249813425,7.505397649117107e-05,5.003072884495207e-06
0.00031008666329571105,7.521278884261953e-05,5.040639575828655e-06
0.0002878494953150536,7.536227288227223e-05,5.078283341259878e-06
0.00025826799058527907,7.549880225374731e-05,5.115998610043883e-06
0.00022124599589923364,7.561868075036844e-05,5.1537779807949115e-06
0.00017678001395717688,7.571818725283254e-05,5.191612197795712e-06
0.00012496372958767778,7.579362318871875e-05,5.2294901504060995e-06
6.599136140978205e-05,7.584136196146812e-05,5.267398896693646e-06
1.597065455028304e-07,7.585789972845694e-05,5.305323712116128e-06
-7.213123886514033e-05,7.583990684537703e-05,5.343248163759586e-06
-0.0001503791779986616,7.578427924116108e-05,5.381154210281221e-06
-0.00023398199554966042,7.5688188947774e-05,5.419022327328454e-06
-0.0003222418522967664,7.554913298581239e-05,5.4568316578118505e-06
-0.0004143708778980177,7.536497980326369e-05,5.494560186009119e-06
-0.0005094984024357268,7.513401248318025e-05,5.532184934080731e-06
-0.000606679624377231,7.485496797647701e-05,5.569682179195645e-06
-0.0007049055754078015,7.452707167653075e-05,5.607027689108897e-06
-0.0008031142128620029,7.415006672946329e-05,5.6441969737103955e-06
-0.0009002024507474072,7.372423756356093e-05,5.681165549783651e-06
-0.000995038932142861,7.325042721783837e-05,5.7179092159790015e-06
-0.0010864773463974669,7.273004814820328e-05,5.754404334820512e-06
-0.0011733700985155206,7.216508628697504e-05,5.790628118429307e-06
-0.001254582141338619,7.155809822701151e-05,5.8265589145578035e-06
-0.0013290047852888849,7.091220149535464e-05,5.862176489488395e-06
-0.001395569310393358,7.023105797143408e-05,5.897462304355093e-06
-0.0014532602205357596,6.95188505887018e-05,5.9323997814951264e-06
-0.0015011279919911612,6.878025353557008e-05,5.966974557526194e-06
-0.0015383011722750666,6.802039624450352e-05,6.001174719971213e-06
-0.0015639976863281856,6.724482152985271e-05,6.034991024414802e-06
-0.0015775352132826694,6.645943830495e-05,6.068417089373502e-06
-0.001578340511135198,6.567046937384554e-05,6.1014495662932015e-06
-0.0015659575863216945,6.488439484948131e-05,6.134088282349033e-06
-0.001540054629988003,6.41078917954039e-05,6.166336354010254e-06
-0.0015004296729357908,6.334777071967295e-05,6.198200269639023e-06
-0.0014470149418627563,6.261090956597332e-05,6.229689939710434e-06
-0.0013798799221871882,6.190418584996084e-05,6.260818713564418e-06
-0.0012992331455708962,6.123440758302132e-05,6.2916033619226635e-06
-0.0012054227294437138,6.060824361426767e-05,6.322064024721985e-06
-0.0010989357047345581,6.00321540057231e-05,6.352224124126983e-06
-0.0009803961720053866,5.9512321036538115e-05,6.382110242887548e-06
-0.0008505623206069432,5.9054581413385035e-05,6.4117519685000285e-06
-0.0007103223332060375,5.866436024993179e-05,6.441181703915857e-06
-0.0005606891845692299,5.834660737048797e-05,6.470434445820962e-06
-0.00040279433216692373,5.810573649130393e-05,6.499547531786411e-06
-0.00023788028961923617,5.794556783585739e-05,6.528560357868201e-06
-6.729207708652379e-05,5.786927474418095e-05,6.557514068513211e-06
0.00010753244010068536,5.787933483493449e-05,6.58645122090799e-06
0.00028507328204452266,5.797748626547079e-05,6.615415426183091e-06
0.0004637400740131708,5.816468960448522e-05,6.64445097015058e-06
0.0006418846435161442,5.8441095783867544e-05,6.6736024164976685e-06
0.000817814363470899,5.8806020535614305e-05,6.702914195577539e-06
0.0009898061001957052,5.9257925651530956e-05,6.7324301821243255e-06
0.0011561206207495126,5.979440733176726e-05,6.76219326537015e-06
0.0013150173149233597,6.041219181568548e-05,6.792244915157013e-06
0.0014647690900649764,6.110713841693256e-05,6.8226247477151675e-06
0.0016036772973547083,6.187425001378749e-05,6.853370094822847e-06
0.0017300865473762904,6.270769097497024e-05,6.884515580070037e-06
0.0018423992769172521,6.360081243104362e-05,6.91609270592154e-06
0.0019390899409631288,6.454618473551371e-05,6.94812945521318e-06
0.0020187187215640738,6.553563690114551e-05,6.9806499106223445e-06
0.002079944661812675,6.65603027469897e-05,7.013673895534378e-06
0.0021215381390120303,6.761067344719588e-05,7.047216639582925e-06
0.002142392581137057,6.867665612723314e-05,7.081288471976532e-06
0.00214153531042171,6.974763810012284e-05,7.1158945455333715e-06
0.0021181373809234672,7.081255627295913e-05,7.151034594126642e-06
0.002071522276913354,7.185997118741833e-05,7.1867027259917364e-06
0.0020011733602966976,7.287814509672084e-05,7.222887255062771e-06
0.0019067399890157182,7.385512343404894e-05,7.259570572195463e-06
0.0017880422599024718,7.477881899627849e-05,7.2967290578030455e-06
0.001645074350701519,7.563709814892949e-05,7.334333037089347e-06
0.001478006449297477,7.641786834892924e-05,7.372346778713812e-06
0.0012871852685137166,7.710916627838204e-05,7.41072853737064e-06
0.001073133154921379,7.769924588424081e-05,7.449430640411296e-06
0.000836545810456656,7.817666562558532e-05,7.488399618288752e-06
0.0005782886547274108,7.853037424188134e-05,7.527576378255619e-06
0.0002993918588195765,7.874979437026808e-05,7.566896420408656e-06
1.0440730022499272e-06,7.882490335322354e-05,7.6062900948395284e-06
-0.0003154151464215062,7.874631058486873e-05,7.645682898324051e-06
-0.0006485042208836775,7.850533074304243e-05,7.684995808656029e-06
-0.0009966097553947189,7.809405224897284e-05,7.724145654404032e-06
-0.0013579980596159843,7.750540029522016e-05,7.76304551754008e-06
-0.001730827938705523,7.673319379563979e-05,7.801605166062795e-06
-0.0021131646571073094,7.577219564668657e-05,7.839731513423377e-06
-0.0025029949294450068,7.46181557500485e-05,7.877329101272561e-06
-0.002898242760260231,7.326784632762219e-05,7.914300601791979e-06
-0.003296785943675301,7.171908915163831e-05,7.950547335661794e-06
-0.0036964730384744437,6.997077440610087e-05,7.98596980155123e-06
-0.004095140640205115,6.802287098643099e-05,8.020468212899363e-06
-0.004490630770693085,6.587642813370644e-05,8.053943037679397e-06
-0.004880808199140437,6.353356839124807e-05,8.086295536810636e-06
-0.0052635775078045425,6.0997471964511823e-05,8.117428296899576e-06
-0.005636899726721361,5.827235265588035e-05,8.147245753054674e-06
-0.005998808384495238,5.53634256280762e-05,8.175654697625664e-06
-0.006347424846211535,5.2276867320399507e-05,8.202564770862783e-06
-0.006680972824965138,4.901976790260534e-05,8.227888929668533e-06
-0.006997791957635302,4.560007670695523e-05,8.251543890820923e-06
-0.007296350332756951,4.2026541134357166e-05,8.273450545281252e-06
-0.007575255852836475,3.830863958795881e-05,8.293534340461831e-06
-0.007833266308329825,3.445650904766723e-05,8.311725627620738e-06
-0.00806929803902068,3.0480867960829602e-05,8.327959971872863e-06
-0.008282433063137955,2.6392935185289943e-05,8.342178422659393e-06
-0.008471924565585421,2.22043457781091e-05,8.354327742900243e-06
-0.008637200656170291,1.7927064472670173e-05,8.364360595462937e-06
-0.00877786633927303,1.3573297723809343e-05,8.372235686012057e-06
-0.00889370367460658,9.15540522033944e-06,8.377917861748095e-06
-0.008984670147690827,4.6858117647650884e-06,8.38137816599437e-06
-0.009050895307375203,1.7692040099858095e-07,8.382593849035812e-06
-0.00909267576793249,-4.358972367828343e-06,8.381548336044105e-06
-0.009110468710032826,-8.909758487319673e-06,8.378231153330318e-06
-0.009104884038973412,-1.3463596674571232e-05,8.372637814539845e-06
-0.009076675369128708,-1.8008986526596763e-05,8.364769668739553e-06
-0.009026730008222749,-2.2534837870934626e-05,8.35463371264017e-06
-0.008956058118297333,-2.7030534902564645e-05,8.342242369446796e-06
-0.008865781228267172,-3.1485994739205775e-05,8.327613237036353e-06
-0.008757120261477038,-3.5891720111641824e-05,8.31076880832364e-06
-0.008631383224282677,-4.0238845983081754e-05,8.29173616679996e-06
-0.008489952684171924,-4.4519179960195405e-05,8.27054666031414e-06
-0.0083342731483586,-4.8725236418328035e-05,8.24723555621951e-06
-0.008165838433980268,-5.2850264313912754e-05,8.22184168103645e-06
-0.00798617910170583,-5.6888268697834275e-05,8.194407047783514e-06
-0.0077968500127415935,-6.083402597644613e-05,8.164976474114944e-06
-0.007599418069170709,-6.468309299692421e-05,8.133597194371601e-06
-0.0073954502070696995,-6.843181006598431e-05,8.100318468605874e-06
-0.007186501723065251,-7.207729804851804e-05,8.065191191577249e-06
-0.006974105020673339,-7.561744973445269e-05,8.028267504631507e-06
-0.006759758860818522,-7.905091570482566e-05,7.989600413271687e-06
-0.006544918193961424,-8.237708496852064e-05,7.94924341310335e-06
-0.0063309846436484995,-8.559606067792312e-05,7.907250126691739e-06
-0.006119297705039929,-8.870863126509523e-05,7.863673953705985e-06
-0.005911126715365833,-9.171623737019667e-05,7.818567736547162e-06
-0.005707663646289572,-9.462093496061052e-05,7.77198344346446e-06
-0.005510016765092315,-9.7425355063456e-05,7.723971870958443e-06
-0.005319205215178648,-0.00010013266055852374,7.674582367052947e-06
-0.005136154572284756,-0.0001027465005053896,7.623862576786969e-06
-0.0049616934331027035,-0.00010527096250673646,7.571858211033937e-06
-0.004796551082309752,-0.00010771052363558957,7.518612839498355e-06
-0.004641356263406296,-0.00011007000047201858,7.464167708471453e-06
-0.004496637054359882,-0.00011235449880146013,7.408561583653083e-06
-0.0043628218271010745,-0.00011456936352182536,7.351830618072262e-06
-0.004240241252182538,-0.00011672012929164626,7.294008244868894e-06
-0.004129131294854072,-0.00011881247242840541,7.235125094438881e-06
-0.004029637132587298,-0.00012085216453526576,7.175208935197963e-06
-0.003941817903518349,-0.00012284502829429216,7.114284636990573e-06
-0.003865652174153583,-0.00012479689581371015,7.052374155963573e-06
-0.0038010440014705584,-0.00012671356985761618,6.989496539545742e-06
-0.00374782946172011,-0.00012860078822341385,6.925667950025484e-06
-0.0037057835190837545,-0.0001304641914686148,6.860901705102477e-06
-0.0036746271073191364,-0.00013230929412521553,6.795208333704019e-06
-0.003654034300446336,-0.0001341414594771569,6.728595645303426e-06
-0.003643639458943523,-0.00013596587791700436,6.661068810954886e-06
-0.0036430442515605014,-0.00013778754884463036,6.5926304542644775e-06
-0.0036518244587511977,-0.0001396112660222083,6.5232807505477674e-06
-0.0036695364574371296,-0.00014144160625125538,6.4530175324794015e-06
