acceleration,velocity,displacement
0.008643550739684907,0.0,0.0
0.008359789482749218,4.250835055608531e-06,1.0627087639021327e-09
0.008078717872591032,8.360461894443593e-06,4.215533001415164e-09
0.007800463059820897,1.2330257127546575e-05,9.388212756912707e-09
0.007525150198213305,1.6161660442055127e-05,1.651119214931313e-08
0.007252901485092539,1.9856173362881587e-05,2.551565060054731e-08
0.006983835225955615,2.3415357540643626e-05,3.633353332642861e-08
0.006718064952530481,2.684083258526515e-05,4.8897580857905804e-08
0.006455698616742195,3.013427347758332e-05,6.314135737361792e-08
0.006196837886992715,3.329740760351704e-05,7.899927764389301e-08
0.005941577583013074,3.633201147101849e-05,9.64066324125269e-08
0.005690005292104724,3.923990718979794e-05,1.15299612077731e-07
0.005442201208346496,4.2022958814910746e-05,1.3561532857890817e-07
0.0051982382289865086,4.4683068674244e-05,1.5729183545119686e-07
0.004958182331267834,4.722217381430758e-05,1.8026814607333475e-07
0.0047220932374293385,4.9642242706481876e-05,2.0448425020353212e-07
0.004490025355603334,5.194527235474004e-05,2.298811289688376e-07
0.004262028964586986,5.4133285934787625e-05,2.564007685412195e-07
0.0040381515968904375,5.620833107515698e-05,2.839861727937057e-07
0.0038184395690362524,5.8172478866638655e-05,3.125813752791546e-07
0.0036029396074054596,6.002782366074908e-05,3.4213145091100154e-07
0.003391700518374264,6.177648369219402e-05,3.725825277492373e-07
0.0031847748513164167,6.342060253461668e-05,4.0388179930594e-07
0.0029822205027803723,6.496235137314088e-05,4.359775377828794e-07
0.0027841022097645773,6.640393205127711e-05,4.688191086389839e-07
0.0025904928783159584,6.774758082329724e-05,5.023569868576275e-07
0.0024014746907626986,6.89955727155669e-05,5.365427752423436e-07
0.0022171399346280363,7.015022637191459e-05,5.713292250142139e-07
0.002037591502404096,7.121390923117262e-05,6.066702589149857e-07
0.0018629430224489485,7.218904286238588e-05,6.425209969383753e-07
0.0016933185929214182,7.307810826622847e-05,6.788377847205289e-07
0.0015288521021365616,7.388365093999296e-05,7.155782245220843e-07
0.001369686132618421,7.46082854986817e-05,7.527012086317529e-07
0.001215970463458375,7.525469964770091e-05,7.901669549183485e-07
0.0010678602031973252,7.582565731436483e-05,8.279370441588649e-07
0.0009255135991084751,7.632400076494128e-05,8.659744586786914e-07
0.0007890895763636175,7.675265155880929e-05,9.042436217596291e-07
0.000658745064438868,7.711461021900992e-05,9.42710437204084e-07
0.000534632171879665,7.741295452808956e-05,9.813423283908587e-07
0.0004168952751233181,7.76508363898403e-05,1.0201082761203413e-06
0.0003056680903556093,7.783147723121003e-05,1.058978854525604e-06
0.00020107079727805664,7.795816195311844e-05,1.097926264321686e-06
0.00010320727967570319,7.803423147235689e-05,1.1369243626780549e-06
1.2162538890320701e-05,7.80630739269984e-05,1.1759486890278938e-06
-7.199967639710637e-05,7.80481146426217e-05,1.2149764861702988e-06
-0.00014923899274471198,7.799280497533625e-05,1.2539867160747882e-06
-0.0002195402623521314,7.790061016156203e-05,1.2929600698590128e-06
-0.00028291511914775217,7.777499631618707e-05,1.3318789714784501e-06
-0.0003394032209959725,7.761941673115114e-05,1.3707275747402847e-06
-0.00038907316368971026,7.743729763497972e-05,1.4094917533318174e-06
-0.000432023057740315,7.72320235796222e-05,1.448159083635468e-06
-0.0004683807598914966,7.700692262521425e-05,1.486718820186677e-06
-0.0004983037480502247,7.676525149822882e-05,1.5251618637175378e-06
-0.000521978624900248,7.651018090499121e-05,1.5634807218183429e-06
-0.0005396202350012671,7.624478119001583e-05,1.6016694623420946e-06
-0.0005514703825175156,7.597200853563613e-05,1.6397236597735076e-06
-0.000557796141997243,7.569469190450744e-05,1.6776403348835435e-06
-0.0005588877653676005,7.541552092766623e-05,1.715417888091587e-06
-0.00055505620689681,7.513703493460013e-05,1.7530560270571536e-06
-0.0005466303100930673,7.486161330535266e-05,1.7905556891171418e-06
-0.0005339537173664531,7.459146729848778e-05,1.827918959268102e-06
-0.0005173815696828929,7.432863347672545e-05,1.8651489844619052e-06
-0.0004972770656538941,7.407496881789125e-05,1.9022498850355595e-06
-0.0004740079580771313,7.38321475619585e-05,1.939226664130522e-06
-0.0004479430816993537,7.360165980201438e-05,1.9760851159715154e-06
-0.00041944901807624576,7.338481177707048e-05,2.0128317338662867e-06
-0.00038888700156266187,7.318272777216075e-05,2.0494736187535945e-06
-0.0003566101528321472,7.299635348356205e-05,2.086018389067525e-06
-0.000322961099165931,7.282646067056253e-05,2.1224740926060564e-06
-0.0002882700132685558,7.26736528924539e-05,2.1588491209968103e-06
-0.0002528530808905328,7.253837211891412e-05,2.1951521272496522e-06
-0.0002170113921078373,7.242090600066453e-05,2.231391946779547e-06
-0.0001810302383009935,7.232139559306232e-05,2.2675775221779787e-06
-0.0001451787827569044,7.223984333779785e-05,2.303717831910694e-06
-0.00010971005427377087,7.217612112854019e-05,2.3398218230272784e-06
-7.486119138679988e-05,7.212997831712505e-05,2.3758983478886947e-06
-4.085384863644936e-05,7.210104955711924e-05,2.4119561048572557e-06
-7.894675650843492e-06,7.208886242604741e-05,2.4480035828530475e-06
2.3824204889145344e-05,7.209284480835699e-05,2.4840490096616484e-06
5.4124773786706116e-05,7.211233205302595e-05,2.5201003038769944e-06
8.284278309071036e-05,7.21465739422453e-05,2.556165030375812e-06
0.00010982753886274868,7.219474152273367e-05,2.5922503592420568e-06
0.00013494181013521138,7.225593385998316e-05,2.628363028087736e-06
0.0001580618639021114,7.232918477849249e-05,2.664509307747355e-06
0.00017907761888997272,7.241346964919051e-05,2.7006949713542757e-06
0.00019789290671106227,7.250771228059077e-05,2.736925266836721e-06
0.00021442582151495531,7.261079196264727e-05,2.7732048928975304e-06
0.00022860912695453747,7.272155069976465e-05,2.8095379785631336e-06
0.00024039068172094924,7.283880065193352e-05,2.8459280664010583e-06
0.00024973385250660966,7.296133178549041e-05,2.8823780995104144e-06
0.0002566179018797257,7.3087919724087e-05,2.9188904123878086e-06
0.000261038353593894,7.32173337879554e-05,2.9554667257658192e-06
0.0002630073409455885,7.334834521159027e-05,2.9921081455157058e-06
0.0002625539393844711,7.347973553167279e-05,3.0288151657015216e-06
0.0002597244804164383,7.361030513662302e-05,3.0655876758685957e-06
0.0002545828410974672,7.37388819670015e-05,3.102424972644502e-06
0.0002472106975668493,7.386433035166758e-05,3.1393257757241693e-06
0.0002377077204252979,7.398555995616561e-05,3.1762882483011275e-06
0.00022619167966130983,7.410153480618727e-05,3.213310021991716e-06
0.00021279842179885525,7.42112823315523e-05,3.250388226276151e-06
0.00019768167866431532,7.43139023566681e-05,3.287519522448206e-06
0.0001810126620326987,7.440857594184235e-05,3.3247001420228335e-06
0.00016297939642901695,7.449457395645778e-05,3.3619259294974085e-06
0.00014378574991922086,7.457126524304484e-05,3.3991923892972842e-06
0.00012365013862750452,7.463812421518153e-05,3.4364947366618406e-06
0.00010280389992200742,7.469473772481891e-05,3.4738279521468406e-06
8.14893487650465e-05,7.474081103699068e-05,3.511186839337293e-06
5.995754842868222e-05,7.477617276128911e-05,3.548566085286863e-06
3.846583594869892e-05,7.480077860738346e-05,3.585960323129031e-06
1.7275143709051572e-05,7.481471385229789e-05,3.623364196243951e-06
-3.3528457575903114e-06,7.481819442678576e-05,3.660772423313722e-06
-2.315868060618982e-05,7.481156654519482e-05,3.6981798635567174e-06
-4.188822943033198e-05,7.479530481768569e-05,3.7355815813974375e-06
-5.9295853743524905e-05,7.477000879689223e-05,3.772972909801082e-06
-7.514763578156528e-05,7.473639792451095e-05,3.8103495114814327e-06
-8.92246346993104e-05,7.469530485689074e-05,3.847707437176783e-06
-0.000101326146022625,7.464766716171025e-05,3.885043180181433e-06
-0.00011127293745804613,7.459451739084009e-05,3.922353726319571e-06
-0.00011891042610315558,7.453697154994979e-05,3.959636598554769e-06
-0.0001241117513484281,7.44762160055869e-05,3.996889895443653e-06
-0.0001267806918180951,7.441349289479526e-05,4.034112322668748e-06
-0.00012685437800652918,7.43500841273391e-05,4.071303216924282e-06
-0.00012430575844195806,7.428729409322699e-05,4.108462561479423e-06
-0.00011914577253557486,7.422643121048261e-05,4.1455909928053506e-06
-0.00011142516224918616,7.416878847678642e-05,4.1826897977271676e-06
-0.00010123582962602597,7.411562322881762e-05,4.219760900653569e-06
-8.871164031327e-05,7.40681363613328e-05,4.256806840551107e-06
-7.402859658886571e-05,7.402745130210726e-05,4.293830737466967e-06
-5.74043448757276e-05,7.399459306674111e-05,4.330836248559179e-06
-3.9097018447202345e-05,7.397046772591038e-05,4.367827513757342e-06
-1.9403432881460353e-05,7.395584261307822e-05,4.404809091342089e-06
1.3433451144692786e-06,7.395132759113648e-05,4.441785883893143e-06
2.277703691133905e-05,7.395735768664293e-05,4.478763055212588e-06
4.450178132842355e-05,7.397417739120288e-05,4.515745938982049e-06
6.60963295086441e-05,7.400182691891214e-05,4.552739940059578e-06
8.711876181429164e-05,7.404013069174287e-05,4.589750429462241e-06
0.00010711165803733707,7.408868829670578e-05,4.626782634209353e-06
0.00012560763604080663,7.414686812022531e-05,4.663841523313586e-06
0.00014213517946213221,7.421380382410105e-05,4.700931691299668e-06
0.00015622469895453986,7.428839379370521e-05,4.738057240704119e-06
0.00016741479563503602,7.436930366735261e-05,4.775221665069384e-06
0.0001752587027047971,7.445497204193757e-05,4.812427733996706e-06
0.00017933087130238607,7.454361943543936e-05,4.84967738186605e-06
0.00017923365245532154,7.463326056637879e-05,4.886971601866504e-06
0.00017460401645539762,7.472171998360647e-05,4.9243103470040005e-06
0.0001651202384204536,7.480665104732544e-05,4.961692439761734e-06
0.00015050845715638278,7.488555822121965e-05,4.99911549207887e-06
0.0001305489894829768,7.49558225828795e-05,5.036575837279895e-06
0.00010508226838882784,7.501473039734745e-05,5.0740684755249516e-06
7.401427579960615e-05,7.505950453339456e-05,5.1115870342576374e-06
3.7321351259566576e-05,7.508733844015936e-05,5.149123745001026e-06
-4.945734812064437e-06,7.509543234427124e-05,5.186669437697134e-06
-5.265855277158356e-05,7.508103127237532e-05,5.224213553601296e-06
-0.00010560873848203854,7.504146444956191e-05,5.26174417753178e-06
-0.00016350677322978484,7.497418557163396e-05,5.2992480900370795e-06
-0.0002259819086756485,7.48768134011576e-05,5.3367108397802776e-06
-0.0002925833086343576,7.474717209683011e-05,5.3741168361547745e-06
-0.00036278245588741487,7.458333065569967e-05,5.411449461842907e-06
-0.0004359768432561513,7.438364083091377e-05,5.44869120471456e-06
-0.0005114949344280711,7.414677288649273e-05,5.485823808143912e-06
-0.0005886023441903992,7.387174856683811e-05,5.522828438507245e-06
-0.0006665091538112951,7.35579706923377e-05,5.559685868322039e-06
-0.0007443782479403889,7.320524884189978e-05,5.5963766732055985e-06
-0.0008213345358640588,7.281382064594867e-05,5.632881440577561e-06
-0.0008964749043251132,7.238436828590137e-05,5.669180987810523e-06
-0.0009688787425616133,7.19180298741797e-05,5.705256587350543e-06
-0.0010376188806406929,7.141640546837912e-05,5.741090196186183e-06
-0.0011017727852508782,7.088155755190623e-05,5.7766646869412545e-06
-0.0011604338596600005,7.031600589067851e-05,5.811964077801901e-06
-0.0012127226978055736,6.972271675131212e-05,5.846973758462399e-06
-0.001257798150467225,6.910508653924392e-05,5.881680709285038e-06
-0.0012948680735139879,6.846691998324862e-05,5.916073710915661e-06
-0.0013231996379171635,6.781240305539083e-05,5.950143541675321e-06
-0.0013421290845806843,6.714607087476637e-05,5.98388316015786e-06
-0.0013510708080675666,6.647277090160431e-05,6.017287870601953e-06
-0.0013495256585280648,6.57976217849554e-05,6.050355468773592e-06
-0.001337088362511354,6.512596827969554e-05,6.083086366289755e-06
-0.0013134539791619714,6.446333269427721e-05,6.115483691533248e-06
-0.0012784233281990822,6.381536336743694e-05,6.147553365548677e-06
-0.0012319073501784578,6.318778069784256e-05,6.179304151564997e-06
-0.0011739303840830292,6.258632126427718e-05,6.210747677055527e-06
-0.0011046323655632827,6.201668057686561e-05,6.241898427515812e-06
-0.0010242699597165486,6.148445499554566e-05,6.272773711408915e-06
-0.0009332166500233541,6.099508334311068e-05,6.303393595993579e-06
-0.0008319618125990915,6.0553788727455067e-05,6.333780814011221e-06
-0.0007211088086262799,6.0165521072148724e-05,6.363960641461122e-06
-0.0006013721239227965,5.9834900839011456e-05,6.393960746938911e-06
-0.00047357357560592607,5.9566164414129276e-05,6.423811013252197e-06
-0.0003386375957222612,5.936311162129723e-05,6.453543332261053e-06
-0.00019758559332657118,5.922905582403502e-05,6.483191374122386e-06
-5.152939190815673e-05,5.916677707772634e-05,6.512790332347827e-06
9.833625808582669e-05,5.917847879427076e-05,6.542376646315826e-06
0.0002507420779638754,5.926574837828318e-05,6.571987703108965e-06
0.0004043535321194707,5.942952228080402e-05,6.601661520773737e-06
0.0005577809035499446,5.967005588972137e-05,6.631436415316368e-06
0.0007095900799532473,5.998689863559717e-05,6.661350653947698e-06
0.0008583139412220866,6.0378874640891e-05,6.691442097266819e-06
0.0010024642310692315,6.084406918396383e-05,6.721747833223033e-06
0.0011405437920382064,6.137982118974069e-05,6.752303805816459e-06
0.0012710590435916229,6.198272189864815e-05,6.783144441588557e-06
0.0013925325852148175,6.264861980584977e-05,6.8143022770146814e-06
0.0015035158067091554,6.337263190383076e-05,6.8458075899421014e-06
0.0016026013873437087,6.414916120234398e-05,6.877688038218645e-06
0.0016884355687907335,6.497192044137759e-05,6.909968308629576e-06
0.0017597300963530038,6.583396185766352e-05,6.942669779204336e-06
0.001815273737078368,6.672771281602136e-05,6.975810197872757e-06
0.001853943296620433,6.764501707444607e-05,7.009403380345374e-06
0.0018747140615885717,6.857718141399832e-05,7.043458929967484e-06
0.0018766695866211161,6.951502732605074e-05,7.077981982152496e-06
0.0018590107299419846,7.044894740519152e-05,7.112972975835307e-06
0.00182106382829399,7.136896604475051e-05,7.148427454197792e-06
0.0017622879025908484,7.226480397747173e-05,7.184335896703348e-06
0.0016822808029478117,7.31259461538564e-05,7.22068358423618e-06
0.0015807842287681748,7.39417124117854e-05,7.25745049887759e-06
0.001457687584820492,7.470133036518256e-05,7.294611259571832e-06
0.0013130306516237762,7.539400992429362e-05,7.332135094644201e-06
0.0011470050594484037,7.600901885206167e-05,7.36998585183829e-06
0.0009599545640192694,7.65357587579286e-05,7.408122046240788e-06
0.0007523741305606452,7.696384093157358e-05,7.4464969461631634e-06
0.0005249078415764247,7.728316142460785e-05,7.485058696752209e-06
0.0002783456515853905,7.74839747978983e-05,7.5237504808078354e-06
1.3619014931281434e-05,7.755696596452747e-05,7.562510715998442e-06
-0.00026820459315886287,7.749331956997057e-05,7.601273287382067e-06
-0.000565928254949316,7.728478635794352e-05,7.639967813864044e-06
-0.0008782332918593442,7.692374597124136e-05,7.678519946946341e-06
-0.0012036880540374376,7.640326563476716e-05,7.716851699847844e-06
-0.0015407578075949074,7.571715416935908e-05,7.754881804798875e-06
-0.0018878156784187883,7.486001079785565e-05,7.79252609604068e-06
-0.0022431545708050623,7.382726823554968e-05,7.829697915799032e-06
-0.0026049999402309783,7.261522960779067e-05,7.866308540259867e-06
-0.0029715232738327935,7.122109880427473e-05,7.902267622362883e-06
-0.0033408561234655547,6.964300395495013e-05,7.937483648052689e-06
-0.0037111045394106544,6.788001378923108e-05,7.971864402488734e-06
-0.004080363757449088,6.593214671501614e-05,8.005317442614796e-06
-0.004446732990864155,6.380037252793784e-05,8.037750572425534e-06
-0.004808330173994611,6.148660673672315e-05,8.0690723172417e-06
-0.005163306503032556,5.899369756746636e-05,8.099192393317747e-06
-0.0055098606287235586,5.632540578452733e-05,8.128022169155745e-06
-0.00584625237349007,5.348637753397393e-05,8.15547511498537e-06
-0.00617081586442771,5.0482110474494484e-05,8.181467236987487e-06
-0.006481971985985407,4.73189135118912e-05,8.205917492984084e-06
-0.006778240059627608,4.400386050048795e-05,8.22874818648718e-06
-0.007058248655838733,4.054473832162136e-05,8.249885336192707e-06
-0.00732074543996318,3.694998979767088e-05,8.26925901822253e-06
-0.007564605949674858,3.3228651950261376e-05,8.286803678659513e-06
-0.007788841201161696,2.9390290162552238e-05,8.302458414187716e-06
-0.007992604025169556,2.5444928855969424e-05,8.316167218942347e-06
-0.0081751940432653,2.140297933886071e-05,8.327879195991053e-06
-0.008336061210467417,1.727516552542753e-05,8.337548732207125e-06
-0.008474807874923256,1.307244825407986e-05,8.345135635652002e-06
-0.008591189335893314,8.805948951375718e-06,8.350605234953366e-06
-0.008685112912433133,4.486873389294107e-06,8.353928440538534e-06
-0.008756635566116769,1.264362696566313e-07,8.35508176795327e-06
-0.00880596015330709,-4.264212660199334e-06,8.354047323855634e-06
-0.008833430411925434,-8.674060301507465e-06,8.350812755615208e-06
-0.008839524807134956,-1.3092299106272562e-05,8.345371165763262e-06
-0.008824849369247717,-1.750839265036823e-05,8.337720992824102e-06
-0.008790129661359737,-2.191213740802009e-05,8.327865860309504e-06
-0.008736202017378115,-2.6293720327704555e-05,8.315814395875572e-06
-0.008664004189983964,-3.0643771879545074e-05,8.301580022823759e-06
-0.008574565539695617,-3.495341431196497e-05,8.285180726275882e-06
-0.008468996882922322,-3.9214304917619455e-05,8.266638796468486e-06
-0.008348480103624304,-4.3418674164256115e-05,8.245980551698018e-06
-0.008214257619834782,-4.7559358595120886e-05,8.223236043508174e-06
-0.008067621781088654,-5.1629828445351744e-05,8.198438746748056e-06
-0.007909904257989904,-5.5624209955121385e-05,8.171625237147937e-06
-0.007742465476144967,-5.95373023886551e-05,8.142834859061993e-06
-0.007566684146915266,-6.336458979442016e-05,8.112109386016224e-06
-0.007383946955059032,-6.710224756991373e-05,8.07949267667514e-06
-0.007195638472312665,-7.074714392675665e-05,8.045030328800974e-06
-0.007003131370525032,-7.429683638746608e-05,8.008769333722418e-06
-0.0068077770064902884,-7.77495634817199e-05,7.970757733755122e-06
-0.00661089644519188,-8.110423184464045e-05,7.931044284923533e-06
-0.0064137719821810175,-8.436039895148368e-05,7.889678127224501e-06
-0.006217639220853327,-8.751825175224226e-05,7.84670846454857e-06
-0.006023679755077331,-9.057858149622492e-05,7.802184256236453e-06
-0.005833014502101729,-9.354275506051969e-05,7.756153922097266e-06
-0.005646697728035672,-9.641268311805404e-05,7.708665062552623e-06
-0.005465711810842819,-9.919078550277366e-05,7.659764195397417e-06
-0.0052909627901962745,-0.00010187995415303343,7.609496510483465e-06
-0.0051232767535522505,-0.00010448351403897056,7.557905643435464e-06
-0.0049633970991213895,-0.00010700518250213898,7.505033469300187e-06
-0.004811982699939461,-0.0001094490274519042,7.450919916811676e-06
-0.0046696069738448795,-0.00011181942487035028,7.395602803731112e-06
-0.004536757846615934,-0.00011412101607546549,7.339117693494658e-06
-0.004413838581259586,-0.00011635866518243438,7.281497773180183e-06
-0.004301169434322141,-0.0001185374171863298,7.222773752587993e-06
-0.004198990087003736,-0.00012066245706666127,7.162973784024745e-06
-0.004107462782419821,-0.00012273907028401715,7.102123402187075e-06
-0.004026676083383775,-0.00012477260500046806,7.040245483365954e-06
-0.003956649154447863,-0.00012676843630992596,6.977360223038355e-06
-0.0038973364693239156,-0.0001287319327158689,6.913485130781906e-06
-0.003848632845193933,-0.00013066842504449837,6.8486350413418145e-06
-0.003810378705055056,-0.0001325831779320606,6.782822140597675e-06
-0.003782365471255155,-0.00013448136397613817,6.7160560051206255e-06
-0.003764341001215042,-0.00013636804059425573,6.648343653978027e-06
-0.0037560149867797254,-0.00013824812959125442,6.579689611431649e-06
-0.0037570642429920788,-0.00014012639939869738,6.5100959791841615e-06
-0.0037671378069090863,-0.00014200744991117267,6.439562516856694e-06
