frame_number,force
0,726.2954629051461
1,726.2744727844242
2,726.2536816197254
3,726.2330988165149
4,726.2127336325494
5,726.192595106894
6,726.1726919907317
7,726.1530326821244
8,726.133625166391
9,726.1144769640513
10,726.0955950890211
11,726.0769860202258
12,726.0586556897059
13,726.040609489748
14,726.022852300759
15,726.0053885404561
16,725.9882222334667
17,725.9713570989663
18,725.9547966529852
19,725.9385443216053
20,725.9226035612257
21,725.9069779821054
22,725.8916714713769
23,725.876688311709
24,725.8620332917661
25,725.8477118044851
26,725.8337299289798
27,725.8200944918558
28,725.8068131041798
29,725.7938941711616
30,725.7813468724733
31,725.7691811119751
32,725.7574074366473
33,725.746036925808
34,725.735081053
35,725.7245515239415
36,725.7144600944953
37,725.7048183729011
38,725.6956376107893
39,725.6869284878384
40,725.6787008951766
41,725.6709637226244
42,725.663724654576
43,725.6569899786712
44,725.6507644104679
45,725.6450509364332
46,725.639850677067
47,725.6351627717959
48,725.6309842870861
49,725.6273101488339
50,725.6241330997004
51,725.6214436819865
52,725.6192302468841
53,725.617478991194
54,725.6161740226368
55,725.615297454702
56,725.6148295316032
57,725.6147487830978
58,725.6150322075691
59,725.6156554801141
60,725.6165931811388
61,725.6178190404888
62,725.6193061919772
63,725.6210274325391
64,725.622955479077
65,725.6250632151643
66,725.6273239199135
67,725.629711472614
68,725.6322005287627
69,725.634766665135
70,725.637386493136
71,725.640037740814
72,725.6426993048634
73,725.6453512749905
74,725.6479749343868
75,725.6505527416629
76,725.6530683007975
77,725.6555063256989
78,725.6578526048488
79,725.6600939699788
80,725.662218271494
81,725.664214362404
82,725.6660720915885
83,725.667782306386
84,725.6693368639685
85,725.6707286506586
86,725.6719516077935
87,725.6730007618297
88,725.6738722558201
89,725.6745633799608
90,725.6750726002828
91,725.6753995856744
92,725.6755452336492
93,725.6755116949498
94,725.6753023967674
95,725.6749220641555
96,725.6743767387841
97,725.6736737933928
98,725.672821939552
99,725.671831225973
100,725.6707130243622
101,725.6694799994362
102,725.6681460595695
103,725.6667262850992
104,725.6652368324986
105,725.6636948140388
106,725.6621181540154
107,725.6605254238455
108,725.6589356590229
109,725.6573681609924
110,725.6558422866883
111,725.6543772280384
112,725.6529917834122
113,725.6517041229491
114,725.6505315497947
115,725.649490259235
116,725.6485950975923
117,725.6478593228692
118,725.6472943697266
119,725.6469096221779
120,725.6467121978199
121,725.6467067471766
122,725.6468952712745
123,725.6472769609137
124,725.6478480626574
125,725.6486017784144
126,725.6495282060007
127,725.6506143263414
128,725.6518440398997
129,725.6531982522837
130,725.6546550077302
131,725.6561896689421
132,725.6577751419017
133,725.6593821443381
134,725.6609795160276
135,725.6625345677068
136,725.6640134635185
137,725.6653816307116
138,725.6666041907216
139,725.667646407527
140,725.6684741509631
141,725.669054373216
142,725.6693555959848
143,725.6693484047534
144,725.669005945829
145,725.6683044208812
146,725.6672235721065
147,725.6657471493066
148,725.6638633491399
149,725.6615652169892
150,725.6588510026647
151,725.6557244617076
152,725.6521950941938
153,725.6482783130385
154,725.6439955342472
155,725.6393741824666
156,725.6344476065261
157,725.6292549014037
158,725.6238406351924
159,725.6182544821437
160,725.6125507655086
161,725.6067879164113
162,725.6010278571606
163,725.5953353191433
164,725.5897771066037
165,725.584421318095
166,725.5793365373586
167,725.5745910051602
168,725.5702517834201
169,725.5663839227358
170,725.5630496438058
171,725.5603075423704
172,725.5582118265687
173,725.5568115953636
174,725.5561501666089
175,725.5562644629473
176,725.5571844628855
177,725.558932723222
178,725.5615239775339
179,725.5649648136431
180,725.5692534311698
181,725.5743794789262
182,725.5803239711236
183,725.5870592807947
184,725.5945492082714
185,725.6027491222897
186,725.611606171578
187,725.6210595654544
188,725.6310409227018
189,725.6414746886114
190,725.6522786204231
191,725.6633643411819
192,725.6746379609997
193,725.6860007628648
194,725.697349947939
195,725.7085794334171
196,725.7195806948713
197,725.7302436444083
198,725.7404575357056
199,725.7501118870291
200,725.7590974134985
201,725.7673069598833
202,725.7746364251788
203,725.7809856704478
204,725.7862594021261
205,725.7903680240297
206,725.793228452284
207,725.7947648877548
208,725.7949095400088
209,725.793603295683
210,725.790796323193
211,725.786448605743
212,725.7805303958799
213,725.7730225868343
214,725.763916997759
215,725.7532165712602
216,725.7409354824309
217,725.7270991592454
218,725.7117442148046
219,725.694918292573
220,725.6766798263222
221,725.6570977167162
222,725.6362509260272
223,725.614227991527
224,725.5911264572659
225,725.5670522238987
226,725.5421188173161
227,725.5164465791189
228,725.4901617849841
229,725.4633956998489
230,725.4362835807462
231,725.4089636387646
232,725.3815759713704
233,725.3542614759905
234,725.3271607558315
235,725.3004130292829
236,725.2741550543199
237,725.2485200786538
238,725.2236368250625
239,725.1996285199284
240,725.1766119721008
241,725.1546967089391
242,725.1339841765371
243,725.114567011415
244,725.0965283912418
245,725.0799414721971
246,725.0648689202868
247,725.0513625432444
248,725.0394630284788
249,725.0291997907178
250,725.0205909307333
251,725.0136433042327
252,725.0083526977082
253,725.0047041056598
254,725.0026721014294
255,725.0022212924423
256,725.003306849995
257,725.0058751034172
258,725.0098641882048
259,725.0152047377992
260,725.0218206093131
261,725.0296296344807
262,725.0385443880947
263,725.0484729671784
264,725.0593197752693
265,725.0709863072835
266,725.0833719310991
267,725.0963746619774
268,725.1098919253792
269,725.1238213030682
270,725.1380612570555
271,725.1525118260491
272,725.1670752894746
273,725.181656794573
274,725.1961649424538
275,725.2105123293682
276,725.224616039881
277,725.2383980888126
278,725.2517858086258
279,725.2647121786073
280,725.2771160921938
281,725.2889425594333
282,725.3001428427907
283,725.3106745259419
284,725.3205015165006
285,725.3295939846752
286,725.3379282407496
287,725.3454865552517
288,725.3522569268858
289,725.3582328045661
290,725.3634127706695
291,725.3678001928226
292,725.3714028515091
293,725.3742325508076
294,725.3763047194275
295,725.377638008622
296,725.3782538927918
297,725.3781762782698
298,725.3774311261562
299,725.3760460957184
300,725.3740502152867
301,725.371473587671
302,725.3683471367534
303,725.3647024007392
304,725.3605713755334
305,725.3559864093879
306,725.3509801479044
307,725.3455855268753
308,725.3398358091519
309,725.3337646606271
310,725.3274062596766
311,725.3207954340528
312,725.3139678189909
313,725.3069600296757
314,725.2998098401864
315,725.2925563601286
316,725.2852401999833
317,725.2779036168452
318,725.2705906333084
319,725.2633471235506
320,725.2562208620576
321,725.2492615316277
322,725.2425206880941
323,725.236051679938
324,725.2299095220599
325,725.224150724337
326,725.2188330767308
327,725.2140153933149
328,725.2097572175377
329,725.2061184904466
330,725.2031591830901
331,725.2009388945665
332,725.1995164183069
333,725.198949280743
334,725.1992932581331
335,725.2006018788253
336,725.2029259194912
337,725.2063129046948
338,725.210806619464
339,725.2164466441743
340,725.2232679200127
341,725.2313003519631
342,725.2405684550638
343,725.2510910485739
344,725.2628810012125
345,725.2759450287898
346,725.2902835437428
347,725.3058905545998
348,725.3227536122992
349,725.3408537998558
350,725.3601657625717
351,725.3806577775936
352,725.4022918632243
353,725.4250239291749
354,725.4488039687601
355,725.4735762931708
356,725.4992798070012
357,725.5258483236692
358,725.553210919208
359,725.5812923224765
360,725.6100133387857
361,725.6392913026395
362,725.6690405541968
363,725.6991729333537
364,725.7295982850369
365,725.7602249694926
366,725.7909603719226
367,725.821711406502
368,725.8523850104839
369,725.8828886249339
370,725.913130659731
371,725.9430209414814
372,725.9724711432807
373,726.0013951944737
374,726.0297096672524
375,726.0573341361883
376,726.0841915073345
377,726.1102083151454
378,726.1353149874278
379,726.1594460802572
380,726.1825404859815
381,726.2045416177965
382,726.2253975736495
383,726.2450612806866
384,726.2634906200233
385,726.2806485310323
386,726.2965030945852
387,726.3110275951427
388,726.3242005617748
389,726.336005788062
390,726.3464323305485
391,726.355474485089
392,726.3631317403717
393,726.3694087086081
394,726.3743150347941
395,726.3778652871703
396,726.3800788317654
397,726.3809796932502
398,726.3805964032679
399,726.3789618363764
400,726.376113032959
401,726.3720910079609
402,726.3669405440335
403,726.3607099676253
404,726.3534509067839
405,726.3452180298051
406,726.3360687643385
407,726.3260629971484
408,726.3152627553534
409,726.3037318703581
410,726.2915356257712
411,726.2787403906684
412,726.2654132399209
413,726.2516215640075
414,726.2374326716147
415,726.2229133892195
416,726.2081296625045
417,726.1931461647209
418,726.178025916944
419,726.1628299246054
420,726.1476168339244
421,726.1324426112049
422,726.1173602474383
423,726.1024194899308
424,726.087666601765
425,726.0731441493347
426,726.0588908181757
427,726.0449412576123
428,726.031325955057
429,726.0180711411573
430,726.0051987272856
431,725.9927262768452
432,725.9806670114497
433,725.9690298524102
434,725.9578194974484
435,725.9470365323483
436,725.9366775775195
437,725.9267354700413
438,725.9171994822906
439,725.9080555781181
440,725.8992867062536
441,725.8908731283027
442,725.8827927762358
443,725.875021632874
444,725.8675341290036
445,725.8603035515863
446,725.8533024578117
447,725.846503089081
448,725.8398777781512
449,725.8333993424069
450,725.8270414566866
451,725.8207789999971
452,725.8145883716261
453,725.8084477735199
454,725.8023374572091
455,725.7962399348655
456,725.7901401550121
457,725.7840256438367
458,725.7778866132584
459,725.7717160373446
460,725.7655096993352
461,725.7592662116788
462,725.7529870109431
463,725.74667632893
464,725.7403411414581
465,725.733991097023
466,725.7276384285601
467,725.7212978525359
468,725.7149864601064
469,725.7087236044698
470,725.702530786594
471,725.6964315387695
472,725.6904513028741
473,725.6846172984865
474,725.6789583751622
475,725.6735048432474
476,725.6682882785628
477,725.6633412978822
478,725.6586973036814
479,725.6543901976656
480,725.6504540633526
481,725.6469228190641
482,725.6438298442603
483,725.6412075839623
484,725.6390871375697
485,725.6374978392519
486,725.6364668372169
487,725.6360186789437
488,725.6361749093463
489,725.6369536888315
490,725.6383694380775
491,725.6404325159716
492,725.6431489364463
493,725.6465201288677
494,725.6505427452727
495,725.6552085164711
496,725.6605041581101
497,725.6664113274085
498,725.6729066313166
499,725.6799616867822
500,725.6875432329381
501,725.6956132933216
502,725.7041293843923
503,725.7130447654299
504,725.722308724768
505,725.7318668979991
506,725.741661614645
507,725.751632270441
508,725.7617157229065
509,725.7718467085286
510,725.781958280666
511,725.7919822679406
512,725.8018497530861
513,725.8114915717076
514,725.8208388292043
515,725.8298234325574
516,725.8383786322793
517,725.8464395687596
518,725.8539438163926
519,725.860831918067
520,725.867047901982
521,725.8725397725283
522,725.8772599672145
523,725.8811657722537
524,725.8842196902166
525,725.8863897539701
526,725.887649782081
527,725.8879795721689
528,725.8873650301796
529,725.8857982347123
530,725.8832774360621
531,725.879806989983
532,725.8753972272376
533,725.8700642620398
534,725.8638297447776
535,725.8567205660921
536,725.8487685202582
537,725.840009936015
538,725.8304852824267
539,725.8202387559011
540,725.8093178526601
541,725.7977729298786
542,725.7856567591721
543,725.7730240777873
544,725.7599311447735
545,725.7464353109103
546,725.7325946118867
547,725.7184673937994
548,725.7041119784599
549,725.6895863739039
550,725.6749480337401
551,725.6602536677447
552,725.6455591047988
553,725.6309192074049
554,725.6163878349007
555,725.6020178506178
556,725.5878611669004
557,725.5739688213088
558,725.5603910773738
559,725.5471775433642
560,725.5343773020938
561,725.522039044054
562,725.510211195795
563,725.4989420357402
564,725.4882797902761
565,725.4782727039543
566,725.4689690792114
567,725.4604172831096
568,725.4526657205956
569,725.445762774908
570,725.4397567159749
571,725.4346955777478
572,725.4306270061184
573,725.4275980802431
574,725.4256551110207
575,725.4248434208088
576,725.425207108579
577,725.4267888049542
578,725.4296294218292
579,725.4337679011368
580,725.4392409666882
581,725.4460828822912
582,725.4543252190141
583,725.4639966346195
584,725.4751226686087
585,725.4877255567593
586,725.5018240691443
587,725.5174333750249
588,725.5345649368417
589,725.553226434478
590,725.5734217206023
591,725.595150808045
592,725.6184098901609
593,725.6431913943845
594,725.6694840675918
595,725.6972730899082
596,725.7265402121761
597,725.7572639121231
598,725.7894195651486
599,725.8229796266986
600,725.8579138237318
601,725.8941893527164
602,725.9317710811906
603,725.9706217494188
604,726.0107021681997
605,726.0519714085086
606,726.0943869786148
607,726.1379049851136
608,726.1824802761581
609,726.2280665674245
610,726.2746165528314
611,726.3220820021717
612,726.3704138469035
613,726.4195622539279
614,726.4694766856685
615,726.5201059436838
616,726.5713981929175
617,726.6233009644742
618,726.6757611359274
619,726.7287248891296
620,726.7821376462895
621,726.8359439859443
622,726.8900875414894
623,726.9445108859582
624,726.9991554074876
625,727.053961180334
626,727.108866836727
627,727.1638094453402
628,727.2187244022024
629,727.2735453391067
630,727.3282040535066
631,727.3826304633163
632,727.4367525900162
633,727.4904965731672
634,727.5437867182512
635,727.5965455780394
636,727.6486940663792
637,727.7001516029422
638,727.7508362877554
639,727.8006651045082
640,727.849554151109
641,727.897418894758
642,727.9441744473893
643,727.9897358563376
644,728.0340184048432
645,728.0769379175542
646,728.1184110673183
647,728.1583556809295
648,728.196691042577
649,728.2333381940812
650,728.2682202305774
651,728.3012625895991
652,728.3323933310382
653,728.3615434053369
654,728.388646907374
655,728.4136413138374
656,728.4364677023832
657,728.4570709512607
658,728.4753999180235
659,728.4914075956115
660,728.5050512440511
661,728.516292496838
662,728.5250974426699
663,728.5314366848863
664,728.5352853819641
665,728.536623272558
666,728.5354346883029
667,728.5317085574383
668,728.5254384024454
669,728.5166223347969
670,728.5052630490509
671,728.4913678171027
672,728.4749484823263
673,728.4560214529395
674,728.4346076937624
675,728.4107327150749
676,728.3844265565131
677,728.3557237632309
678,728.3246633513168
679,728.2912887599723
680,728.2556477891596
681,728.2177925227912
682,728.1777792385044
683,728.1356683054755
684,728.0915240718917
685,728.0454147438232
686,727.997412257094
687,727.9475921430666
688,727.8960333882038
689,727.8428182863189
690,727.7880322818289
691,727.731763801962
692,727.6741040756147
693,727.6151469365792
694,727.5549886093726
695,727.4937274768073
696,727.4314638295496
697,727.3682995991086
698,727.3043380769162
699,727.239683623296
700,727.1744413712347
701,727.108716931057
702,727.0426161031581
703,726.9762446064058
704,726.9097078292643
705,726.8431106089429
706,726.7765570409395
707,726.7101503178602
708,726.6439925935488
709,726.5781848673508
710,726.5128268836696
711,726.4480170428631
712,726.3838523201399
713,726.3204281893312
714,726.2578385484877
715,726.1961756442385
716,726.1355299919131
717,726.0759902891504
718,726.0176433222728
719,725.9605738661659
720,725.9048645783809
721,725.850595886449
722,725.797845865145
723,725.7466900989972
724,725.6972015249453
725,725.6494502501175
726,725.603503339995
727,725.5594245731146
728,725.517274160294
729,725.4771084289521
730,725.438979475856
731,725.4029347939753
732,725.3690168806992
733,725.3372628355338
734,725.3077039559298
735,725.2803653403078
736,725.255265507414
737,725.232416040614
738,725.2118212647971
739,725.1934779625561
740,725.1773751352462
741,725.163493813263
742,725.1518069184598
743,725.1422791804563
744,725.1348671081281
745,725.1295190176623
746,725.1261751185754
747,725.1247676585123
748,725.1252211265981
749,725.1274525139607
750,725.1313716289189
751,725.1368814630342
752,725.1438786025763
753,725.1522536781952
754,725.1618918443637
755,725.1726732800224
756,725.1844737029619
757,725.197164892508
758,725.210615217395
759,725.2246901674558
760,725.2392528882743
761,725.2541647174597
762,725.2692857205633
763,725.284475224507
764,725.2995923469018
765,725.3144965207279
766,725.3290480151628
767,725.3431084542996
768,725.3565413356796
769,725.369212550009
770,725.3809909024145
771,725.3917486345917
772,725.4013619467286
773,725.4097115182816
774,725.4166830269467
775,725.4221676647554
776,725.426062649168
777,725.4282717259541
778,725.4287056600413
779,725.427282710405
780,725.4239290853067
781,725.4185793745069
782,725.4111769553491
783,725.4016743698012
784,725.3900336696788
785,725.37622672734
786,725.360235509083
787,725.3420523081943
788,725.3216799340577
789,725.2991318530618
790,725.2744322762775
791,725.2476161880556
792,725.2187293092657
793,725.1878279895263
794,725.1549790245014
795,725.1202593962997
796,725.0837559364782
797,725.0455649121837
798,725.0057915371732
799,724.9645494109466
800,724.9219598906597
801,724.8781514014953
802,724.8332586918759
803,724.7874220404082
804,724.740786421597
805,724.6935006371008
806,724.6457164190308
807,724.5975875119194
808,724.549268740411
809,724.5009150701995
810,724.4526806700816
811,724.4047179831846
812,724.3571768155524
813,724.3102034504246
814,724.2639397966769
815,724.218522579741
816,724.1740825826201
817,724.1307439432936
818,724.0886235131726
819,724.0478302797516
820,724.008464855445
821,723.9706190338104
822,723.9343754138617
823,723.899807092882
824,723.8669774278872
825,723.8359398654922
826,723.8067378393517
827,723.7794047338917
828,723.7539639131668
829,723.7304288144286
830,723.7088031067525
831,723.6890809150545
832,723.6712471088641
833,723.6552776540706
834,723.6411400254511
835,723.6287936781299
836,723.6181905764155
837,723.6092757781447
838,723.6019880718433
839,723.596260663001
840,723.5920219044967
841,723.589196064579
842,723.587704124169
843,723.5874645942376
844,723.5883943437826
845,723.5904094289638
846,723.5934259135644
847,723.5973606699874
848,723.6021321490808
849,723.6076611071974
850,723.6138712805366
851,723.6206899995791
852,723.6280487393909
853,723.6358836038554
854,723.6441357429079
855,723.6527517016059
856,723.6616836990353
857,723.670889834531
858,723.6803342191255
859,723.6899870318375
860,723.6998245032605
861,723.7098288321537
862,723.719988043226
863,723.7302957952284
864,723.7407511479154
865,723.7513582952224
866,723.7621262709101
867,723.7730686322406
868,723.7842031269454
869,723.7955513485953
870,723.8071383851493
871,723.818992464938
872,723.8311446040196
873,723.8436282589809
874,723.856478989544
875,723.8697341353122
876,723.8834325105253
877,723.8976141200585
878,723.9123198991823
879,723.9275914785768
880,723.9434709746015
881,723.9600008031338
882,723.9772235139249
883,723.9951816416997
884,724.0139175700282
885,724.0334734038964
886,724.0538908467983
887,724.0752110785639
888,724.097474631355
889,724.1207212628228
890,724.1449898266402
891,724.1703181412657
892,724.1967428579087
893,724.2242993282265
894,724.2530214715591
895,724.2829416410127
896,724.3140904876429
897,724.3464968220502
898,724.3801874724259
899,724.415187137296
900,724.4515182301343
901,724.4892007122353
902,724.5282519103191
903,724.5686863165841
904,724.610515371223
905,724.6537472302474
906,724.6983865241559
907,724.744434114928
908,724.7918868596419
909,724.8407373886636
910,724.8909739053274
911,724.9425800130284
912,724.9955345751097
913,725.0498116125978
914,725.1053802440528
915,725.1622046702868
916,725.2202442049394
917,725.2794533504876
