frame_number,force
0,808.6790200083103
1,808.6299498940336
2,808.580924055839
3,808.5319864441359
4,808.4831803598096
5,808.434548134667
6,808.3861308192651
7,808.3379678813259
8,808.2900969177108
9,808.2425533826809
10,808.195370335025
11,808.1485782064216
12,808.1022045930072
13,808.0562740715496
14,808.0108080411113
15,807.9658245910181
16,807.9213383962783
17,807.8773606417014
18,807.8338989753001
19,807.790957490224
20,807.7485367330469
21,807.7066337353266
22,807.6652420651943
23,807.6243518959844
24,807.5839500891403
25,807.5440202889146
26,807.5045430271266
27,807.465495837619
28,807.4268533816687
29,807.3885875867734
30,807.3506678014544
31,807.3130609681506
32,807.2757318154416
33,807.238643070238
34,807.2017556903113
35,807.1650291171751
36,807.1284215482904
37,807.0918902259145
38,807.0553917385231
39,807.0188823305555
40,806.9823182174011
41,806.9456559043088
42,806.9088525096572
43,806.871866094706
44,806.8346560034377
45,806.7971832168034
46,806.7594107250918
47,806.7213039205881
48,806.6828310110133
49,806.6439634527635
50,806.6046764014178
51,806.5649491749845
52,806.5247657229828
53,806.4841150922281
54,806.4429918783538
55,806.401396650604
56,806.3593363364245
57,806.316824552533
58,806.2738818709353
59,806.2305360116504
60,806.1868219580017
61,806.1427819940845
62,806.0984656665225
63,806.0539296737008
64,806.0092376858239
65,805.9644600986978
66,805.9196737232986
67,805.874961412446
68,805.8304116260157
69,805.7861179374121
70,805.7421784860386
71,805.6986953824361
72,805.6557740739397
73,805.613522678971
74,805.5720512978986
75,805.5314713082972
76,805.4918946524555
77,805.4534331245272
78,805.4161976632593
79,805.3802976540823
80,805.3458402426536
81,805.312929661555
82,805.281666572635
83,805.2521474286102
84,805.2244638583239
85,805.1987020802909
86,805.1749423491326
87,805.153258439623
88,805.1337171733661
89,805.1163779932397
90,805.1012925904819
91,805.0885045889538
92,805.0780492907733
93,805.0699534866288
94,805.0642353319737
95,805.0609042871861
96,805.0599611170205
97,805.0613979434662
98,805.0651983465256
99,805.0713375086158
100,805.0797823995164
101,805.090491999632
102,805.103417559778
103,805.1185028959629
104,805.1356847176995
105,805.1548929878961
106,805.1760513113575
107,805.1990773478236
108,805.2238832446677
109,805.2503760840387
110,805.2784583395797
111,805.3080283387852
112,805.3389807280374
113,805.3712069379733
114,805.4045956472055
115,805.439033242787
116,805.4744042760092
117,805.5105919121231
118,805.5474783727379
119,805.5849453702237
120,805.6228745339889
121,805.661147828436
122,805.6996479617937
123,805.7382587842956
124,805.7768656736724
125,805.8153559059559
126,805.8536190104372
127,805.8915471089298
128,805.9290352404656
129,805.9659816729
130,806.0022882028805
131,806.0378604456615
132,806.0726081163929
133,806.1064453045249
134,806.1392907425476
135,806.1710680693407
136,806.2017060871681
137,806.2311390103773
138,806.2593067037636
139,806.2861549092945
140,806.3116354606884
141,806.335706485637
142,806.3583325953811
143,806.3794850612499
144,806.399141977661
145,806.4172884105947
146,806.4339165294557
147,806.449025718737
148,806.4626226646702
149,806.4747214116326
150,806.4853433835823
151,806.494517367017
152,806.5022794534228
153,806.5086729403364
154,806.5137481906204
155,806.5175624495445
156,806.5201796193804
157,806.5216699918128
158,806.5221099391905
159,806.5215815658798
160,806.520172320662
161,806.5179745705697
162,806.5150851360276
163,806.511604786949
164,806.5076377001899
165,806.5032908807893
166,806.4986735519261
167,806.4938965204352
168,806.4890715259165
169,806.4843105824689
170,806.4797253229613
171,806.4754263561108
172,806.4715226463946
173,806.4681209263794
174,806.465325150545
175,806.4632359988303
176,806.4619504367266
177,806.4615613368094
178,806.4621571642396
179,806.4638217262141
180,806.4666339827132
181,806.4706679133834
182,806.4759924336322
183,806.4826713525424
184,806.4907633656494
185,806.5003220760441
186,806.5113960373179
187,806.524028812041
188,806.5382590401506
189,806.5541205126159
190,806.5716422466433
191,806.590848559581
192,806.6117591398989
193,806.6343891150033
194,806.6587491167339
195,806.6848453460833
196,806.7126796391591
197,806.7422495367845
198,806.7735483603713
199,806.8065652967636
200,806.8412854945462
201,806.8776901737161
202,806.9157567497724
203,806.955458972581
204,806.9967670800512
205,807.0396479666545
206,807.0840653668528
207,807.1299800533012
208,807.177350049127
209,807.2261308526452
210,807.276275671865
211,807.3277356656863
212,807.3804601892915
213,807.4343970427368
214,807.4894927234047
215,807.545692684312
216,807.6029416013924
217,807.6611836538282
218,807.7203628217665
219,807.7804232046592
220,807.8413093611235
221,807.9029666685558
222,807.9653416987364
223,808.0283826046355
224,808.0920395130645
225,808.1562649173503
226,808.2210140639316
227,808.2862453269605
228,808.351920565412
229,808.4180054573785
230,808.4844698060851
231,808.5512878122078
232,808.6184383075247
233,808.6859049454896
234,808.7536763447264
235,808.8217461819315
236,808.8901132313714
237,808.958781348806
238,809.027759397847
239,809.0970611164335
240,809.1667049206525
241,809.2367136432093
242,809.307114204962
243,809.3779372200901
244,809.4492165380175
245,809.5209887273567
246,809.5932925087357
247,809.666168144853
248,809.7396567976144
249,809.8137998631156
250,809.8886382948228
251,809.9642119236872
252,810.0405587818636
253,810.1177144349721
254,810.1957113271058
255,810.2745781433321
256,810.3543391958456
257,810.4350138413587
258,810.5166159382512
259,810.5991533521895
260,810.6826275180315
261,810.7670330637378
262,810.8523574993676
263,810.9385809722404
264,811.0256760887169
265,811.1136078034792
266,811.2023333777773
267,811.2918024081134
268,811.3819569261699
269,811.4727315697701
270,811.5640538235516
271,811.6558443268608
272,811.7480172453727
273,811.8404807022781
274,811.9331372641049
275,812.0258844747548
276,812.1186154293813
277,812.2112193784485
278,812.30358235246
279,812.3955877992375
280,812.4871172274426
281,812.5780508515672
282,812.6682682345571
283,812.7576489246632
284,812.8460730834249
285,812.9334221021963
286,813.0195792054197
287,813.1044300398568
288,813.1878632498007
289,813.269771038352
290,813.350049714102
291,813.4286002215226
292,813.5053286522767
293,813.5801467334599
294,813.6529722877101
295,813.7237296598521
296,813.7923501054769
297,813.8587721379339
298,813.9229418307376
299,813.9848130719816
300,814.04434776639
301,814.1015159799267
302,814.1562960220671
303,814.2086744620524
304,814.2586460771
305,814.306213731754
306,814.3513881879726
307,814.3941878457983
308,814.4346384157153
309,814.4727725266115
310,814.508629276912
311,814.5422537393687
312,814.5736964312629
313,814.6030127618061
314,814.6302624683693
315,814.6555090531527
316,814.6788192314671
317,814.7002624012732
318,814.7199101410158
319,814.7378357396242
320,814.7541137596141
321,814.768819632027
322,814.7820292805603
323,814.7938187715852
324,814.8042639868496
325,814.8134403164762
326,814.8214223708973
327,814.8282837110451
328,814.8340965962108
329,814.8389317488586
330,814.8428581359069
331,814.8459427667485
332,814.848250509245
333,814.8498439257246
334,814.8507831315042
335,814.851125678487
336,814.8509264657798
337,814.850237678088
338,814.8491087515331
339,814.8475863659168
340,814.845714462231
341,814.8435342840132
342,814.8410844408342
343,814.8384009917734
344,814.8355175461077
345,814.8324653774857
346,814.8292735467041
347,814.8259690272827
348,814.8225768278493
349,814.8191201059989
350,814.8156202695664
351,814.8120970628255
352,814.808568636667
353,814.8050516031517
354,814.8015610759836
355,814.7981106993184
356,814.7947126675388
357,814.7913777381491
358,814.7881152393459
359,814.7849330736582
360,814.7818377191105
361,814.7788342291462
362,814.7759262319953
363,814.7731159297572
364,814.7704040977937
365,814.7677900861521
366,814.7652718261113
367,814.7628458456828
368,814.7605072974418
369,814.75825000069
370,814.7560664987589
371,814.7539481321036
372,814.7518851285004
373,814.7498667122956
374,814.7478812351219
375,814.7459163310818
376,814.7439590999358
377,814.7419963214764
378,814.7400147024744
379,814.7380011546953
380,814.7359430996684
381,814.7338287943261
382,814.7316476717054
383,814.7293906915771
384,814.7270506958083
385,814.7246227621469
386,814.7221045488407
387,814.7194966220229
388,814.7168027582202
389,814.7140302152504
390,814.7111899657474
391,814.7082968883036
392,814.70536991164
393,814.7024321073562
394,814.6995107269557
395,814.6966371793425
396,814.693846946159
397,814.6911794340084
398,814.688677764076
399,814.6863885005586
400,814.6843613199006
401,814.6826486237242
402,814.681305099658
403,814.6803872357735
404,814.6799527956628
405,814.680060262124
406,814.6807682578524
407,814.6821349512747
408,814.684217454696
409,814.6870712206512
410,814.6907494416013
411,814.6953024583847
412,814.7007771839222
413,814.7072165498313
414,814.7146589841223
415,814.723137927721
416,814.7326813961536
417,814.7433115905559
418,814.7550445599268
419,814.7678899151598
420,814.7818505952675
421,814.7969226867991
422,814.8130952978632
423,814.8303504879274
424,814.8486632538843
425,814.8680015722014
426,814.8883264963057
427,814.909592307225
428,814.9317467137455
429,814.9547310964881
430,814.9784807890483
431,815.002925388997
432,815.0279890919463
433,815.0535910427346
434,815.0796456988692
435,815.1060632026216
436,815.132749759498
437,815.1596080218667
438,815.1865374770593
439,815.2134348393386
440,815.2401944452248
441,815.2667086521035
442,815.2928682403815
443,815.3185628190715
444,815.3436812336564
445,815.3681119742043
446,815.3917435814277
447,815.4144650486413
448,815.4361662181974
449,815.4567381717859
450,815.4760736145416
451,815.4940672528438
452,815.5106161652837
453,815.5256201661564
454,815.5389821610513
455,815.5506084939115
456,815.5604092839098
457,815.5682987494932
458,815.5741955168971
459,815.5780229110243
460,815.5797092267009
461,815.5791879778416
462,815.5763981219193
463,815.5712842580128
464,815.5637967981885
465,815.5538921132824
466,815.541532654877
467,815.5266870553398
468,815.5093302073248
469,815.4894433230994
470,815.4670139723287
471,815.4420360949189
472,815.414509984246
473,815.3844422361952
474,815.3518456605528
475,815.3167391526595
476,815.2791475245383
477,815.2391012962049
478,815.1966364498353
479,815.1517941514851
480,815.1046204460379
481,815.0551659304
482,815.0034854084629
483,814.9496375303211
484,814.8936844181308
485,814.8356912812594
486,814.7757260237075
487,814.7138588476273
488,814.6501618584233
489,814.5847086788441
490,814.5175740806736
491,814.448833642676
492,814.378563442638
493,814.3068397901378
494,814.233739005138
495,814.1593372454298
496,814.083710383441
497,814.0069339304293
498,813.9290830041531
499,813.8502323350824
500,813.7704563063648
501,813.6898290241598
502,813.6084244170281
503,813.5263163647328
504,813.4435788572421
505,813.360286183759
506,813.2765131497373
507,813.1923353179736
508,813.1078292686367
509,813.0230728726033
510,812.9381455724138
511,812.8531286652958
512,812.7681055826962
513,812.6831621602684
514,812.5983868913256
515,812.5138711559478
516,812.429709417877
517,812.3459993821424
518,812.2628421074855
519,812.1803420687851
520,812.0986071661085
521,812.0177486790755
522,811.937881167485
523,811.8591223207552
524,811.7815927594336
525,811.7054157924242
526,811.6307171342703
527,811.5576245877425
528,811.4862676977676
529,811.4167773833652
530,811.3492855548963
531,811.2839247245818
532,811.220827618571
533,811.160126798616
534,811.1019543006804
535,811.0464412966609
536,810.9937177837605
537,810.9439123041402
538,810.8971516959338
539,810.8535608759875
540,810.8132626544283
541,810.7763775806721
542,810.74302381943
543,810.713317053659
544,810.6873704094262
545,810.6652943959127
546,810.6471968529655
547,810.6331828989992
548,810.6233548732912
549,810.6178122681465
550,810.6166516477334
551,810.619966551958
552,810.62784738568
553,810.640381295351
554,810.6576520362453
555,810.6797398339465
556,810.7067212437119
557,810.738669010491
558,810.7756519307919
559,810.8177347160217
560,810.8649778561295
561,810.9174374824269
562,810.975165228984
563,811.038208092688
564,811.1066082927262
565,811.1804031307306
566,811.2596248528447
567,811.3443005146368
568,811.4344518496629
569,811.5300951431652
570,811.6312411137626
571,811.7378948072128
572,811.8500555066297
573,811.9677166627746
574,812.0908658466664
575,812.2194847252916
576,812.3535490599934
577,812.4930287263446
578,812.6378877540953
579,812.7880843861108
580,812.9435711558472
581,813.1042949833013
582,813.2701972893148
583,813.4412141280371
584,813.6172763378272
585,813.7983097117573
586,813.9842351895383
587,814.1749690726454
588,814.3704232638539
589,814.5705055315942
590,814.7751197983877
591,814.9841664509332
592,815.1975426675178
593,815.4151427570697
594,815.6368585036362
595,815.8625795101273
596,816.0921935356143
597,816.325586821157
598,816.5626443997733
599,816.8032503865703
600,817.047288245123
601,817.2946410260507
602,817.5451915738621
603,817.7988226990446
604,818.0554173139607
605,818.3148585325105
606,818.5770297340189
607,818.8418145917416
608,819.1090970667212
609,819.3787613687815
610,819.6506918876173
611,819.9247730976236
612,820.2008894406086
613,820.4789251917117
614,820.7587643158731
615,821.0402903241373
616,821.3233861396048
617,821.6079339815448
618,821.8938152737404
619,822.1809105806419
620,822.4690995729796
621,822.7582610230636
622,823.0482728287076
623,823.3390120635166
624,823.6303550506451
625,823.9221774574045
626,824.214354408889
627,824.5067606194451
628,824.7992705412026
629,825.0917585293581
630,825.3840990247695
631,825.6761667554186
632,825.9678369587797
633,826.2589856267216
634,826.5494897736882
635,826.8392277281797
636,827.1280794472833
637,827.415926853888
638,827.7026541958381
639,827.9881484253216
640,828.2722995953703
641,828.5550012687492
642,828.8361509329026
643,829.1156504131166
644,829.3934062748393
645,829.6693302053638
646,829.9433393648977
647,830.2153566977746
648,830.485311196541
649,830.7531381145207
650,831.0187791254513
651,831.2821824314286
652,831.5433028224834
653,831.8021016924332
654,832.0585470162338
655,832.3126132943586
656,832.5642814701042
657,832.8135388257706
658,833.0603788628182
659,833.3048011695072
660,833.5468112780721
661,833.7864205128856
662,834.023645831005
663,834.2585096562415
664,834.4910397070587
665,834.7212688174184
666,834.9492347486658
667,835.1749799902275
668,835.3985515475193
669,835.620000716695
670,835.8393828471332
671,836.0567570935618
672,836.2721861604603
673,836.4857360420795
674,836.6974757618907
675,836.9074771148707
676,837.1158144142013
677,837.3225642411219
678,837.5278051941717
679,837.731617632937
680,837.9340834115255
681,838.135285597395
682,838.3353081714746
683,838.5342357062009
684,838.7321530195609
685,838.9291448052002
686,839.1252952404618
687,839.3206875758443
688,839.5154037111548
689,839.7095237652809
690,839.9031256471136
691,840.0962846345211
692,840.2890729672846
693,840.4815594593961
694,840.6738091361535
695,840.8658829015425
696,841.0578372409578
697,841.2497239631914
698,841.441589983839
699,841.6334771501495
700,841.8254221054355
701,842.0174561900603
702,842.2096053758311
703,842.4018902309888
704,842.5943259133848
705,842.7869221892939
706,842.9796834741973
707,843.1726088898316
708,843.365692329628
709,843.5589225233944
710,843.7522830923607
711,843.9457525872494
712,844.1393045042732
713,844.3329072765525
714,844.5265242413205
715,844.7201135862487
716,844.9136282807505
717,845.1070159996176
718,845.3002190467265
719,845.4931742864455
720,845.6858130902887
721,845.878061306138
722,846.0698392566875
723,846.26106177279
724,846.4516382663456
725,846.6414728461241
726,846.8304644782618
727,847.0185071913573
728,847.2054903244565
729,847.3912988149581
730,847.5758135226505
731,847.7589115858336
732,847.9404668057991
733,848.1203500566845
734,848.2984297186036
735,848.4745721325576
736,848.6486420756661
737,848.8205032549121
738,848.9900188173046
739,849.1570518743016
740,849.321466038214
741,849.4831259678787
742,849.6418979201653
743,849.7976503033058
744,849.9502542280405
745,850.099584053087
746,850.2455179218281
747,850.3879382869068
748,850.5267324187587
749,850.6617928936445
750,850.7930180568546
751,850.9203124574187
752,851.043587251707
753,851.1627605747622
754,851.2777578799014
755,851.3885122486652
756,851.4949646737822
757,851.5970643168745
758,851.6947687405983
759,851.788044113433
760,851.8768653855715
761,851.9612164356824
762,852.0410901894389
763,852.116488711382
764,852.1874232721428
765,852.2539143929837
766,852.3159918687306
767,852.3736947688072
768,852.4270714147073
769,852.4761793309394
770,852.5210851651865
771,852.5618645725478
772,852.598602058766
773,852.6313907783174
774,852.6603322847458
775,852.6855362321603
776,852.7071200282548
777,852.7252084406587
778,852.7399331597022
779,852.7514323210786
780,852.7598499912342
781,852.7653356175405
782,852.7680434455107
783,852.7681319067276
784,852.7657629829275
785,852.7611015525149
786,852.7543147248209
787,852.7455711650373
788,852.7350404101799
789,852.7228921747112
790,852.7092956441234
791,852.6944187558313
792,852.6784274685697
793,852.661485023315
794,852.6437512001932
795,852.6253815770006
796,852.6065267960124
797,852.5873318466445
798,852.5679353720478
799,852.5484690075789
800,852.52905675835
801,852.5098144221569
802,852.4908490633188
803,852.4722585423782
804,852.4541311060632
805,852.436545041209
806,852.4195683952453
807,852.4032587644579
808,852.387663150002
809,852.3728178809887
810,852.3587486038913
811,852.3454703377347
812,852.3329875946296
813,852.3212945650212
814,852.3103753665758
815,852.3002043550338
816,852.2907464946497
817,852.2819577852783
818,852.2737857429594
819,852.2661699307469
820,852.2590425360632
821,852.2523289901378
822,852.2459486244894
823,852.2398153586383
824,852.2338384116349
825,852.2279230276541
826,852.2219712038162
827,852.2158824075965
828,852.2095542720417
829,852.2028832589706
830,852.195765282537
831,852.1880962875136
832,852.1797727784433
833,852.1706922973875
834,852.1607538489772
835,852.1498582714704
836,852.1379085519069
837,852.1248100829661
838,852.1104708591357
839,852.0948016101607
840,852.0777158705565
841,852.0591299854757
842,852.0389630553018
843,852.0171368234605
844,851.9935755135318
845,851.9682056224993
846,851.940955676911
847,851.9117559582655
848,851.8805382035612
849,851.8472352867061
850,851.8117808862173
851,851.7741091444141
852,851.7341543232416
853,851.6918504617897
854,851.6471310401574
855,851.5999286535103
856,851.5501746992953
857,851.497799080192
858,851.4427299259102
859,851.3848933381789
860,851.3242131646483
861,851.260610808458
862,851.194005080779
863,851.1243121037336
864,851.0514452707778
865,850.9753152707741
866,850.8958301804557
867,850.812895627863
868,850.7264150269497
869,850.636289881293
870,850.5424201529505
871,850.4447046910336
872,850.3430417132413
873,850.2373293321027
874,850.1274661160614
875,850.0133516742933
876,849.8948872539925
877,849.7719763398053
878,849.6445252461733
879,849.5124436936171
880,849.375645359677
881,849.2340483953823
882,849.087575899349
883,848.9361563437603
884,848.7797239491623
885,848.6182190079642
886,848.4515881595486
887,848.2797846226774
888,848.1027683930254
889,847.9205064148942
890,847.7329727364236
891,847.5401486570454
892,847.3420228748097
893,847.1385916399736
894,846.9298589202813
895,846.7158365825284
896,846.4965445936967
897,846.2720112426068
898,846.042273379708
899,845.8073766692971
900,845.5673758465055
901,845.3223349713454
902,845.0723276731759
903,844.8174373799769
904,844.5577575272142
905,844.2933917409994
906,844.0244539901732
907,843.751068702144
908,843.4733708377781
909,843.1915059212387
910,842.9056300216221
911,842.6159096847093
912,842.3225218146207
913,842.0256535059225
914,841.7255018269096
915,841.4222735552039
916,841.1161848677682
917,840.8074609883467
918,840.496335795511
