frame_number,force
0,581.5600000000256
1,581.6128068023597
2,581.6685582555012
3,581.7297471383537
4,581.7980591790338
5,581.8741748559328
6,581.9577354693923
7,582.0474339288219
8,582.1411675273524
9,582.2362018047963
10,582.329335752812
11,582.4170992469113
12,582.4960191143149
13,582.5629523303868
14,582.6154305781632
15,582.6519328358099
16,582.6720252968896
17,582.6763592245811
18,582.6665515920523
19,582.6449742895765
20,582.6144716844886
21,582.5780372329318
22,582.5384980323182
23,582.4982617033921
24,582.4591682820752
25,582.4224654686177
26,582.3888956763543
27,582.3588593236552
28,582.3326055972815
29,582.3103950036692
30,582.2925815833239
31,582.2795869947562
32,582.2717773219902
33,582.2692859373547
34,582.2718389250755
35,582.2786335028106
36,582.288302394496
37,582.2989779651426
38,582.308452235982
39,582.3144078811509
40,582.3146708669376
41,582.3074206087707
42,582.2913050656072
43,582.2654459011225
44,582.2293567343935
45,582.182809550374
46,582.1256799928691
47,582.0578116095746
48,581.97896292359
49,581.8889053394271
50,581.7877001354303
51,581.6761124291411
52,581.5560539207131
53,581.4309127498918
54,581.3056363592718
55,581.1864766243257
56,581.0803816503234
57,580.9941190360162
58,580.9333091296036
59,580.9015830524152
60,580.900037357383
61,580.9270649950239
62,580.9785472816676
63,581.0483222568886
64,581.1288145661437
65,581.2117252985084
66,581.2887222082553
67,581.3521096102387
68,581.3954687098677
69,581.4142414646592
70,581.4061974612126
71,581.3716953969183
72,581.3136559921691
73,581.2372146438448
74,581.1490993228983
75,581.0568440070795
76,580.9679760180097
77,580.8893028691227
78,580.8263787071016
79,580.7831736017491
80,580.7619285833622
81,580.763167108836
82,580.7858381926472
83,580.8275695531636
84,580.885002289847
85,580.9541680260608
86,581.0308671792567
87,581.1110164430181
88,581.1909458683997
89,581.2676286700611
90,581.3388181479278
91,581.4030633198156
92,581.459598471248
93,581.5081474517124
94,581.5487209884905
95,581.5814842993507
96,581.6067292895438
97,581.6249320662383
98,581.6368505944606
99,581.6436231145283
100,581.6468401535723
101,581.6485664569708
102,581.6512895462978
103,581.6577774061793
104,581.6708433482446
105,581.6930400464206
106,581.726326204543
107,581.7717582521462
108,581.8292574813148
109,581.897494101051
110,581.9739130676166
111,582.0549053044505
112,582.1361092177629
113,582.212811898829
114,582.2804032346402
115,582.3348232448071
116,582.3729429238633
117,582.3928326306408
118,582.3938918476697
119,582.3768364563496
120,582.3435648470463
121,582.2969457092579
122,582.2405759856631
123,582.1785380158519
124,582.1151451906848
125,582.0546348265437
126,582.0007809325506
127,581.9564571748463
128,581.9232397147015
129,581.9011608399162
130,581.888697303589
131,581.8830151166989
132,581.880422715911
133,581.8769380531799
134,581.8688654876053
135,581.8532934686805
136,581.8284443064722
137,581.7938251541357
138,581.7501534518314
139,581.6990728516317
140,581.6427311656984
141,581.5833311312884
142,581.5227613651409
143,581.4623725581322
144,581.4029104973123
145,581.3445756885206
146,581.2871544698155
147,581.2301564783102
148,581.172898171516
149,581.1144954705132
150,581.0537732100963
151,580.9891536043241
152,580.918620961004
153,580.8398497000624
154,580.7505288565053
155,580.6488435510344
156,580.5340090797439
157,580.406713577513
158,580.2693249501622
159,580.125770382617
160,579.9810964271685
161,579.8408234902653
162,579.7102639837876
163,579.593953784922
164,579.4952809438307
165,579.4163315482837
166,579.3579312369849
167,579.3198366934256
168,579.301019788096
169,579.2999887321463
170,579.3150995725655
171,579.3448166713531
172,579.387881057357
173,579.4433503448723
174,579.5104943505622
175,579.58857027515
176,579.6765452473236
177,579.7728506834517
178,579.8752279180544
179,579.9806839505428
180,580.0855571309385
181,580.1857003373253
182,580.2767970462476
183,580.3548082033441
184,580.4165035863516
185,580.4599820788526
186,580.4850605640374
187,580.493430369584
188,580.4885384792584
189,580.4752178542343
190,580.4591322639805
191,580.446108093396
192,580.4414225022397
193,580.44912537898
194,580.4714857162071
195,580.5086531104918
196,580.5586017734536
197,580.6173776567157
198,580.6796104394692
199,580.739204080682
200,580.7901008026236
201,580.8270203767992
202,580.8460925293134
203,580.845316428083
204,580.824798700246
205,580.7867410901165
206,580.7351759590208
207,580.6754919205988
208,580.613840764671
209,580.5565310092326
210,580.5094735072553
211,580.4776849368156
212,580.4648285711812
213,580.4727954513833
214,580.5013777978677
215,580.5481235571252
216,580.6084591423912
217,580.6761164541662
218,580.7438200719304
219,580.8041257104484
220,580.8502790425117
221,580.8769710801317
222,580.8808802071346
223,580.8609157674862
224,580.8181296523264
225,580.7553355955669
226,580.6765422963585
227,580.5863369280319
228,580.4893414564439
229,580.3898205269555
230,580.2914692163514
231,580.1973630307369
232,580.1100131381442
233,580.031447664475
234,579.9632538970275
235,579.9065678972221
236,579.8620556727617
237,579.8299488753838
238,579.810162270063
239,579.802462987964
240,579.8066292792059
241,579.8225401043534
242,579.8501562814259
243,579.8893778874174
244,579.9397973064379
245,580.0004106320359
246,580.0693831479604
247,580.1439687295488
248,580.2206523563018
249,580.295525537495
250,580.364831413477
251,580.4255521978905
252,580.4758833218351
253,580.5154653765981
254,580.5453207212208
255,580.5675327821941
256,580.584773460371
257,580.5998080906295
258,580.6150899398518
259,580.6325074803948
260,580.6532858665757
261,580.6779979908539
262,580.7066306508602
263,580.7386707243668
264,580.7731998871723
265,580.808996001236
266,580.8446364597925
267,580.8785975635045
268,580.9093512133461
269,580.9354676012753
270,580.9557331996256
271,580.9692921339827
272,580.9758150461771
273,580.9756791653284
274,580.9701078886591
275,580.9611969189988
276,580.951774857098
277,580.9451037435855
278,580.9444804370847
279,580.9528163456043
280,580.9722566807034
281,581.0038861629395
282,581.0475668691182
283,581.1019424493137
284,581.16460848122
285,581.232410454449
286,581.3018105414839
287,581.3692595210753
288,581.4315102294391
289,581.4858209275332
290,581.5300328959876
291,581.5625538368441
292,581.5823104830564
293,581.5887365662214
294,581.581835977677
295,581.5623146255258
296,581.5317306791926
297,581.4925938804898
298,581.4483517757915
299,581.4032217748817
300,581.361857135614
301,581.3288741171849
302,581.3083130086883
303,581.3031428257598
304,581.3149284459197
305,581.3437469268905
306,581.388371705627
307,581.446664691119
308,581.5160615127313
309,581.594024270658
310,581.6783582689873
311,581.7673227770044
312,581.8595106217737
313,581.953537946438
314,582.047658167249
315,582.1394530959235
316,582.2257348402106
317,582.3027247004145
318,582.3664869454132
319,582.4135133859351
320,582.4413060832012
321,582.448807305176
322,582.4365725521475
323,582.4066552327379
324,582.3622478270534
325,582.307177440372
326,582.2453658845834
327,582.1803439647433
328,582.114880668256
329,582.0507660352437
330,581.9887693625027
331,581.9287725046963
332,581.8700478354759
333,581.8116180469311
334,581.7526133081649
335,581.692543639681
336,581.6314332104348
337,581.569805696383
338,581.50854792178
339,581.4487017480983
340,581.3912402231002
341,581.3368791780666
342,581.2859659937747
343,581.2384730315908
344,581.1941010415583
345,581.1524705997646
346,581.1133584698331
347,581.0769303390857
348,581.0439263570019
349,581.0157564325182
350,580.994459370761
351,580.9824945980814
352,580.9823762135119
353,580.9962068884014
354,581.0251993608755
355,581.06927731538
356,581.1268294108722
357,581.1946590119484
358,581.2681369064605
359,581.341534181044
360,581.4084970370585
361,581.4626245383917
362,581.4981065961995
363,581.510354486849
364,581.4965195741113
365,581.455788496528
366,581.3893927956996
367,581.3003514271937
368,581.193025681415
369,581.0725911814113
370,580.9445311787715
371,580.8142322358863
372,580.6867195703438
373,580.5665177776801
374,580.4575776890332
375,580.36318967033
376,580.2858279226323
377,580.2269331277224
378,580.1867003347829
379,580.16395502754
380,580.1561705736236
381,580.1596366803532
382,580.1697629019727
383,580.1814965745584
384,580.1898309834346
385,580.1903624822374
386,580.1798271644458
387,580.1565222739973
388,580.1205142551817
389,580.0735667719882
390,580.0187814619464
391,579.9600158901006
392,579.9012102653057
393,579.8457869540197
394,579.7962547576013
395,579.7540643850649
396,579.7196761549745
397,579.6927627088927
398,579.6724806020333
399,579.657771704817
400,579.6476674299009
401,579.6415630284321
402,579.6394204894464
403,579.6418560129729
404,579.650074697484
405,579.6656388705156
406,579.6901004152372
407,579.7245757021933
408,579.7693685852031
409,579.8237358650041
410,579.88584504431
411,579.9529220650849
412,580.0215557612222
413,580.0881172217033
414,580.1492403290093
415,580.2022833481035
416,580.2456755497323
417,580.2790728752552
418,580.3032951261956
419,580.3200691199706
420,580.3316406902052
421,580.3403360153694
422,580.3481481151996
423,580.3564056311288
424,580.3655635600129
425,580.3751463026697
426,580.3838604515026
427,580.3898637016734
428,580.3911350050371
429,580.3858653703103
430,580.3727914646436
431,580.3514156497637
432,580.3220843218569
433,580.2859268294202
434,580.2446859810414
435,580.2004962198514
436,580.1556822559618
437,580.1126400069011
438,580.0738085062969
439,580.0416713258924
440,580.0186902350148
441,580.0070980235121
442,580.0085448713812
443,580.0236694301057
444,580.0517228364436
445,580.0903896827098
446,580.1359119309293
447,580.1835378868674
448,580.2282206054036
449,580.2654142263659
450,580.2917843180637
451,580.3056687929596
452,580.3071959657027
453,580.2980617897464
454,580.2810533922553
455,580.2594538371184
456,580.2364660317885
457,580.2147632986834
458,580.196230043302
459,580.1819089041323
460,580.1721242075581
461,580.1667161339179
462,580.1653080710208
463,580.1675411421645
464,580.1732351601709
465,580.1824638590161
466,580.195554047368
467,580.2130245096994
468,580.2354751983487
469,580.2634404049581
470,580.2972395954871
471,580.3368744336369
472,580.382004885966
473,580.4319960761305
474,580.4859921440585
475,580.5429726674289
476,580.6017792362907
477,580.6611316194019
478,580.7196584335223
479,580.7759544072613
480,580.8286667845153
481,580.876611849544
482,580.9189187725545
483,580.9551854357873
484,580.985615458947
485,581.011099409046
486,581.0332109811404
487,581.0541031294721
488,581.0763010982885
489,581.1024012516266
490,581.1347036112408
491,581.1748311776435
492,581.2234094962712
493,581.2798821259618
494,581.3425156022904
495,581.4086067156533
496,581.4748589942071
497,581.537861148331
498,581.5945890189332
499,581.6428574008208
500,581.681652854783
501,581.7112831954561
502,581.7332999457768
503,581.7501932371938
504,581.7649141706776
505,581.7803319736051
506,581.7987597173997
507,581.8216593236305
508,581.8495693556274
509,581.8822271254065
510,581.9188173907593
511,581.9582765974504
512,581.9995878292654
513,582.0419956950232
514,582.0850637638367
515,582.1285227111318
516,582.1719287042929
517,582.2142384869119
518,582.2534556807269
519,582.2864814809606
520,582.3092313435144
521,582.3170017222785
522,582.3050173928436
523,582.2690675751988
524,582.2061433654592
525,582.1150052402879
526,581.996618286508
527,581.8543901820794
528,581.6941494812734
529,581.5238281022383
530,581.3528624529499
531,581.1913801520934
532,581.0492689972085
533,580.9352305049758
534,580.8559190708899
535,580.8152682138923
536,580.814100127202
537,580.8500903558505
538,580.9181071368635
539,581.0108745654259
540,581.1198485250931
541,581.2361636747703
542,581.3515044905056
543,581.4587693611842
544,581.5524449727532
545,581.6286878346187
546,581.6851878150818
547,581.720925622746
548,581.7359232068388
549,581.7310445644464
550,581.7078591772212
551,581.6685447036481
552,581.6157881922685
553,581.5526504510897
554,581.4823795262084
555,581.4081838146222
556,581.3329949820354
557,581.2592604776485
558,581.1888015610127
559,581.122758587773
560,581.0616270212853
561,581.0053675312159
562,580.9535565660804
563,580.9055419564813
564,580.8605856162047
565,580.8179950965716
566,580.7772439947393
567,580.7380601568797
568,580.7004514474099
569,580.6646617114332
570,580.6310857069427
571,580.6001888604762
572,580.5724670691636
573,580.548459465464
574,580.5288083930353
575,580.5143453136162
576,580.5061649707698
577,580.5056429781764
578,580.5143675151124
579,580.5339865524817
580,580.5659949683226
581,580.6114902189796
582,580.6709207499912
583,580.7438524231579
584,580.8287890109422
585,580.9230950699035
586,581.0230689212519
587,581.1241905879536
588,581.2215289085259
589,581.3102489890241
590,581.3861316745343
591,581.4460123625533
592,581.4880682831815
593,581.5119185118887
594,581.5185370293755
595,581.510014277873
596,581.4892302880811
597,581.4595061163154
598,581.4242797372897
599,581.3868310816753
600,581.3500719639441
601,581.3164070484531
602,581.287653886371
603,581.2650013207159
604,581.2489983687249
605,581.2395816312621
606,581.2361488838106
607,581.2376774798669
608,581.2428812722933
609,581.2503927122829
610,581.2589412503273
611,581.2674894270551
612,581.2752991069196
613,581.2819234142816
614,581.2871392053136
615,581.290850844724
616,581.2930107294502
617,581.2936006192613
618,581.2926867897299
619,581.2905124380551
620,581.2875538621638
621,581.2844732771598
622,581.2819571859565
623,581.2805023016755
624,581.2802491989717
625,581.2809433097575
626,581.2820461402946
627,581.2829625736701
628,581.2833101155139
629,581.2831400922537
630,581.2830378847675
631,581.2840743435021
632,581.2876290842922
633,581.2951357746299
634,581.3078022984499
635,581.3263417113369
636,581.3507367155074
637,581.3800745122842
638,581.412518019331
639,581.4454786359288
640,581.4760002489991
641,581.5012818007112
642,581.5192081117814
643,581.5287544836566
644,581.5301720272154
645,581.5249205990536
646,581.5153727009179
647,581.5043598542418
648,581.4946723847155
649,581.4886394665635
650,581.4878871907017
651,581.4932998021592
652,581.5051300312335
653,581.5231631108529
654,581.5468510389385
655,581.5753826049902
656,581.607709373492
657,581.642573906429
658,581.6785685728738
659,581.7142142285184
660,581.7480276270144
661,581.778558824007
662,581.8044046410519
663,581.824216027169
664,581.8367123462186
665,581.8407081763195
666,581.8351578336622
667,581.8192260772873
668,581.7923914433956
669,581.7545758861503
670,581.7062734991205
671,581.6486345162185
672,581.5834631707202
673,581.5131109071032
674,581.4402755846207
675,581.36773953379
676,581.298093295434
677,581.2334961536505
678,581.1755115274123
679,581.1250280444758
680,581.0822562388278
681,581.0467905788337
682,581.0177365822656
683,580.9939041968315
684,580.9740564831752
685,580.9571826795402
686,580.9427428081198
687,580.9308158793314
688,580.9220880700796
689,580.9176489974974
690,580.9186202629386
691,580.925703488553
692,580.9387762271479
693,580.9566606882469
694,580.9771437061216
695,580.99725453878
696,581.0137277380832
697,581.0235149793454
698,581.0241944367684
699,581.0141739153033
700,580.9926711337054
701,580.9595365945584
702,580.9150307945121
703,580.8596740528762
704,580.7942584762122
705,580.7200496875826
706,580.639124082337
707,580.554715978985
708,580.4714200128627
709,580.3951234262114
710,580.3326210525457
711,580.2909580181218
712,580.2766123355027
713,580.2946563507048
714,580.3480323262041
715,580.437055127647
716,580.5592153161338
717,580.7093000594042
718,580.8797919719926
719,581.0614710076328
720,581.2441416777405
721,581.4174215447172
722,581.5715353626573
723,581.6980588618238
724,581.7905573571296
725,581.8450709334978
726,581.8604060789874
727,581.8382067930362
728,581.7828062736722
729,581.7008977540295
730,581.6010807268972
731,581.4933145999833
732,581.3882670670529
733,581.2965308792994
734,581.2277281004363
735,581.1895974267106
736,581.1872124257773
737,581.2224760477161
738,581.2939868903536
739,581.3972965961221
740,581.5254972751161
741,581.6700181332887
742,581.821491941607
743,581.970575401845
744,582.1086523005636
745,582.2283886817984
746,582.3241311398073
747,582.3921421550175
748,582.430657697707
749,582.4397493023375
750,582.4209967982858
751,582.3770312209452
752,582.3110592631068
753,582.2264890659696
754,582.1267302623811
755,582.0151699140846
756,581.8952710626234
757,581.7707164820764
758,581.6455209784564
759,581.5240559862054
760,581.4109613774922
761,581.3109449336499
762,581.2284851544518
763,581.167469855849
764,581.1308252222826
765,581.1202031748327
766,581.1357874262743
767,581.1762550490979
768,581.2388981959373
769,581.3198736247125
770,581.4145208190436
771,581.5176949877821
772,581.6240973245667
773,581.7286176586765
774,581.8267020169483
775,581.9147216117874
776,581.9902798624928
777,582.0523777013144
778,582.1013746514482
779,582.1387308987275
780,582.166577718141
781,582.1872112995824
782,582.2026174608056
783,582.2141180311924
784,582.222203265646
785,582.2265856426816
786,582.2264693086281
787,582.2209698257943
788,582.2095595977472
789,582.1923924224818
790,582.1703964374846
791,582.1451053880828
792,582.1182911616824
793,582.0915271046904
794,582.065823033579
795,582.041433760738
796,582.0178850307232
797,581.9942087937136
798,581.9693389216329
799,581.9425867866744
800,581.9140946363665
801,581.8851593009455
802,581.858334642065
803,581.837257233997
804,581.8261932048231
805,581.8293718242113
806,581.8502373805803
807,581.8907830718855
808,581.9511056397603
809,582.0292482006558
810,582.121318213106
811,582.221813722682
812,582.3240834446448
813,582.4208787143452
814,582.5049902367856
815,582.5699578551394
816,582.6107977058166
817,582.6246496965142
818,582.6112389671688
819,582.5730619520039
820,582.5152384806373
821,582.44501752447
822,582.3709856635313
823,582.3020891743924
824,582.2466211529539
825,582.2113281898852
826,582.2007549658491
827,582.2168865226911
828,582.2590918871452
829,582.3243343464397
830,582.4075932400631
831,582.5024311375184
832,582.6016313956367
833,582.6978293422698
834,582.7840774327337
835,582.8543157975618
836,582.903741318108
837,582.9290687651982
838,582.928671004892
839,582.9025896044379
840,582.852421868215
841,582.7811066764373
842,582.6926457958924
843,582.5918033472883
844,582.4838148506147
845,582.3741136770079
846,582.2680642236253
847,582.1706872658343
848,582.0863700029245
849,582.0185643582231
850,581.9694884329708
851,581.9398579078007
852,581.9286883120859
853,581.9332222184806
854,581.9490364596099
855,581.970363120143
856,581.9906171743318
857,582.003077396523
858,582.0016282468786
859,581.9814464841078
860,581.9395157251728
861,581.8748818401335
862,581.7886161861181
863,581.6835120762184
864,581.5635815890274
865,581.4334372670374
866,581.2976438442623
867,581.160122983061
868,581.0236935322064
869,580.8898152051233
870,580.7585609243158
871,580.6287916779437
872,580.4984820346529
873,580.3651482885059
874,580.2263395830698
875,580.0801515912045
876,579.9257158500097
877,579.7636030162328
878,579.5960565657566
879,579.4269716083851
880,579.261573347163
881,579.1058131299208
882,578.9655568571324
883,578.8456853381999
884,578.7492626802675
885,578.6769430933504
886,578.6267563472397
887,578.5943323479024
888,578.5735192518082
889,578.5572602580374
890,578.5385582378059
891,578.5113761888759
892,578.4713619089571
893,578.4163137387318
894,578.3463173928877
895,578.2635052852079
896,578.1714442574151
897,578.0742462419277
898,577.9755841953128
899,577.8778308934596
900,577.7814982348519
901,577.6850665340745
902,577.5852019361383
903,577.4772916915846
904,577.3561853459108
905,577.2170084799942
906,577.0559084595106
907,576.8706016589258
908,576.6606264531443
909,576.4272636647362
910,576.1731517869541
911,575.901681930302
912,575.6162948924275
913,575.3198132773272
914,575.0139247029064
915,574.6988927408883
916,574.373523246117
917,574.0353767397783
