frame_number,force
0,559.416870000045
1,559.7160617541526
2,560.0071857251019
3,560.2827635069094
4,560.5365102286071
5,560.7639251123887
6,560.9627815008785
7,561.1333993513736
8,561.2786112799437
9,561.403409404652
10,561.5143423096381
11,561.6187786437607
12,561.7241549923043
13,561.8372974170708
14,561.9638690106951
15,562.1079612294915
16,562.2718231252155
17,562.4557183002433
18,562.6579135634865
19,562.8748210208817
20,563.1013177710144
21,563.3312446153794
22,563.5580409786729
23,563.7754264346546
24,563.9780191867022
25,564.161803378162
26,564.3244003776671
27,564.4651332074856
28,564.5848923043119
29,564.6858287874345
30,564.7709246273535
31,564.8435117683146
32,564.906824426141
33,564.9636593275508
34,565.0161856438326
35,565.0659072384324
36,565.1137578594206
37,565.1603082895969
38,565.2060618582319
39,565.2517912650276
40,565.2988348368506
41,565.3492562021607
42,565.4057993566337
43,565.4716340116959
44,565.549954853892
45,565.6435367624529
46,565.7543372541417
47,565.8831960434021
48,566.029648094111
49,566.1918586154386
50,566.3666902186666
51,566.549900593074
52,566.7364445168964
53,566.9208385306385
54,567.0975474678082
55,567.2613544431736
56,567.4076753768609
57,567.5327878053496
58,567.6339624035861
59,567.7095035246781
60,567.7587204743768
61,567.7818663910838
62,567.7800884035157
63,567.755419330045
64,567.7108067813315
65,567.6501371129285
66,567.5781935736013
67,567.5004976442289
68,567.4230050165764
69,567.3516501987467
70,567.2917620530236
71,567.2474169055329
72,567.220849196839
73,567.2120717820889
74,567.2188340042974
75,567.2369579680538
76,567.2609766784357
77,567.284910899657
78,567.3030120647308
79,567.3103656678721
80,567.3033367790595
81,567.2798819706579
82,567.2397381030493
83,567.1844689400126
84,567.1173457367319
85,567.043060496832
86,566.9672986043007
87,566.896217018471
88,566.8358878004525
89,566.7917772494812
90,566.7683304621592
91,566.7687106006996
92,566.794706155808
93,566.8467832266109
94,566.9242340962727
95,567.0253606089227
96,567.1476310177129
97,567.2877638703759
98,567.441725140229
99,567.6046711598304
100,567.7709125426782
101,567.9339899556002
102,568.0869290786418
103,568.2226901511799
104,568.3347727475187
105,568.4178957687874
106,568.4686481869551
107,568.4860018213678
108,568.4716017795441
109,568.4297968225059
110,568.367416132047
111,568.293319872159
112,568.2177511990764
113,568.1515199666952
114,568.1050718373867
115,568.0875336930308
116,568.1058529918748
117,568.1641484299138
118,568.2633611942263
119,568.4012473742874
120,568.5726925906373
121,568.770273406355
122,568.9849533092913
123,569.2067970383548
124,569.425617635408
125,569.6315227200695
126,569.8153758113959
127,569.9692139840289
128,570.0866597876891
129,570.1633391120192
130,570.1972740030386
131,570.1891727140179
132,570.1425131451155
133,570.063332776468
134,569.9596996961266
135,569.8409256707439
136,569.716660913679
137,569.5960432233582
138,569.487038002701
139,569.3960168203928
140,569.3275335066907
141,569.2842197614025
142,569.2667483465085
143,569.2738663237956
144,569.3025349111189
145,569.3482051235212
146,569.4052236886571
147,569.467327748089
148,569.5281674039636
149,569.5817955793627
150,569.623074008706
151,569.6479532070841
152,569.6535993479404
153,569.6383678294571
154,569.6016517639354
155,569.5436535707775
156,569.4651414172893
157,569.3672591940609
158,569.251447335321
159,569.1194955126377
160,568.9736997442478
161,568.817056010261
162,568.6534022422749
163,568.4874274219997
164,568.3245037394469
165,568.1703528371443
166,568.0306022042055
167,567.9103031120063
168,567.8134734485195
169,567.7427206690038
170,567.6990039511169
171,567.6815925049402
172,567.6882400649145
173,567.7155265002596
174,567.7592591629003
175,567.8148208747691
176,567.8773970471854
177,567.9420734224926
178,568.0038368538359
179,568.0575356023505
180,568.0978783852496
181,568.1195675829231
182,568.1176407860602
183,568.0880181787969
184,568.0281523399755
185,567.9376142509869
186,567.8184625309397
187,567.6753165119113
188,567.5151386914205
189,567.3467859908258
190,567.1804003629468
191,567.0266935721894
192,566.8961642898538
193,566.7982850370951
194,566.7407107924221
195,566.7285770304326
196,566.7639605971696
197,566.8455682200005
198,566.9686966451729
199,567.1254795895169
200,567.305406471018
201,567.4960749395776
202,567.6841250989604
203,567.8562859589779
204,568.0004357869813
205,568.1065549162767
206,568.1674609670392
207,568.1792663220383
208,568.141556214714
209,568.0573171794094
210,567.9326442768952
211,567.7762508667065
212,567.598820578568
213,567.4122632105657
214,567.2289370311327
215,567.060876049455
216,566.9190310204019
217,566.8125201122075
218,566.7479046847159
219,566.7285512388598
220,566.7541823350248
221,566.8207288863257
222,566.9205678970823
223,567.043170970022
224,567.1761118860093
225,567.3063103424422
226,567.4213494486211
227,567.5106988866056
228,567.5666878374717
229,567.5851008332407
230,567.565330882153
231,567.5101117918225
232,567.4249266892859
233,567.3172174976489
234,567.1955033918304
235,567.0684882552872
236,566.9442291765121
237,566.8294513622524
238,566.7291014854056
239,566.6462021142946
240,566.582001695963
241,566.5363375804081
242,566.5080862385722
243,566.495585592574
244,566.4969607536049
245,566.5103304626056
246,566.533898273138
247,566.5659433820043
248,566.6047290040749
249,566.6483502149164
250,566.6945593133318
251,566.7406312698249
252,566.7833391073527
253,566.8190791337502
254,566.8441323227504
255,566.8550063629274
256,566.848793639621
257,566.8234933528324
258,566.7782605394701
259,566.7135542623225
260,566.6311653008786
261,566.5341102422219
262,566.4263845582358
263,566.3125810836793
264,566.1974050947409
265,566.085140191008
266,565.9791323218897
267,565.881368431143
268,565.792229796817
269,565.7104832125488
270,565.6335287898677
271,565.5578646997176
272,565.479684076492
273,565.3955113482718
274,565.3028069915059
275,565.2004832636867
276,565.0892590496783
277,564.9717667476066
278,564.8523453173613
279,564.7365166432954
280,564.6302249068985
281,564.5389884631041
282,564.4671396488831
283,564.4172965265278
284,564.3901340342985
285,564.3844306848289
286,564.3973003583651
287,564.4245082319593
288,564.4608119959638
289,564.5003248323926
290,564.5369234785493
291,564.564710124152
292,564.5784984728202
293,564.5742606601513
294,564.5494615737389
295,564.5032221860008
296,564.4362853698357
297,564.350796513342
298,564.2499483305057
299,564.1375630281884
300,564.0176826051993
301,563.8942117687199
302,563.7706306777785
303,563.6497835335879
304,563.5337478457581
305,563.4237897587467
306,563.3204151195011
307,563.2235268097321
308,563.132678319511
309,563.047375897586
310,562.9673600076471
311,562.8928080696784
312,562.824422504385
313,562.7633816164209
314,562.711147812949
315,562.6691602795229
316,562.6384754493165
317,562.6194385257301
318,562.61146018169
319,562.6129328242467
320,562.6212720303009
321,562.6330480932761
322,562.6441911893786
323,562.6502779354474
324,562.6468989233098
325,562.6300663878305
326,562.5965820074019
327,562.5442826967067
328,562.47212694287
329,562.3801454607917
330,562.2693118406281
331,562.1413804399992
332,561.998720446672
333,561.8441706816737
334,561.6809404702179
335,561.5125710391045
336,561.3429473576101
337,561.1763174320339
338,561.0172440797334
339,560.8704081507306
340,560.7402276253449
341,560.6303397727695
342,560.5430631543825
343,560.478977834193
344,560.4367370367337
345,560.4131648605294
346,560.4036181474461
347,560.4025232313545
348,560.4039658465562
349,560.4022183362056
350,560.3921196161328
351,560.3692716333392
352,560.3300775285952
353,560.2717051598493
354,560.1920834066985
355,560.090006208397
356,559.9653461397498
357,559.8193086480876
358,559.6546255390657
359,559.4756012579061
360,559.2879745689607
361,559.0986143737142
362,558.9151031248568
363,558.7452606913047
364,558.5966371523091
365,558.4759819214592
366,558.3886953810872
367,558.3382847836205
368,558.325871234299
369,558.3498258031776
370,558.4056397391819
371,558.4861306528985
372,558.5820311311724
373,558.6829127692994
374,558.7783151714049
375,558.8589116209587
376,558.9175472467442
377,558.9500108754901
378,558.9554361456303
379,558.9362701909276
380,558.8978053118865
381,558.8473435818154
382,558.7931418473925
383,558.7433328420012
384,558.7050095101661
385,558.6835940659834
386,558.68251980426
387,558.7031753025849
388,558.7450306648102
389,558.8058831714043
390,558.8821937557755
391,558.9695041558227
392,559.0629137658518
393,559.157565070354
394,559.2490680601483
395,559.3338086193286
396,559.4091194188456
397,559.4733198842428
398,559.5256486841643
399,559.5661205983752
400,559.5953412156806
401,559.6143146051871
402,559.6242835187869
403,559.6266379825768
404,559.6229090527896
405,559.6148384024536
406,559.6044919321137
407,559.5943697558693
408,559.5874568993514
409,559.5871626007628
410,559.5971164045052
411,559.6208289225577
412,559.6612733122937
413,559.7204744545231
414,559.7991905620916
415,559.8967473850826
416,560.0110564959197
417,560.1388205448905
418,560.2758968938631
419,560.4177590525577
420,560.5599728536268
421,560.6986049341723
422,560.8305078429327
423,560.9534620472615
424,561.0661818164999
425,561.1682085943138
426,561.2597284258554
427,561.3413580478114
428,561.4139440850399
429,561.4784154714678
430,561.5357255235045
431,561.5869083609364
432,561.6332401458822
433,561.6764459662323
434,561.7188574556944
435,561.7634278532416
436,561.8135544016046
437,561.8727274768262
438,561.9440867008808
439,562.0299861160048
440,562.1316556666708
441,562.249014729367
442,562.3806561186266
443,562.5239859916908
444,562.6754934185386
445,562.8311328152489
446,562.9868049721362
447,563.1388953008719
448,563.2847831349691
449,563.4232068181105
450,563.5543808675528
451,563.679817790227
452,563.8018918572055
453,563.9232599318453
454,564.0462840660922
455,564.1725667470591
456,564.302640546676
457,564.4357969419299
458,564.5700232727985
459,564.7020370439699
460,564.8274329598004
461,564.9409619556407
462,565.0369396361345
463,565.109750044911
464,565.1543860816367
465,565.1669593611576
466,565.145120800371
467,565.0883528003448
468,564.9981174182442
469,564.8778645593304
470,564.7329104310985
471,564.5701881328604
472,564.3978645652682
473,564.2248291678857
474,564.0600911745549
475,563.9121539052144
476,563.788443780374
477,563.6948509511386
478,563.6354029798806
479,563.6120668217479
480,563.6246702252878
481,563.6709426114835
482,563.7466764692944
483,563.8459968993564
484,563.9617137403261
485,564.0857282318851
486,564.2094695731336
487,564.3243427849653
488,564.4221803175192
489,564.495698795716
490,564.5389564967641
491,564.5477871382292
492,564.520165615327
493,564.4564559248413
494,564.3595033250833
495,564.2345475828968
496,564.0889372169825
497,563.931625743565
498,563.7724546781377
499,563.6212771290295
500,563.4870243970091
501,563.3768439870297
502,563.2954393617714
503,563.2447197020505
504,563.2238155361478
505,563.2294426375375
506,563.2565309881033
507,563.2989975065084
508,563.3505287216631
509,563.4052484383449
510,563.458180371141
511,563.5054759617522
512,563.5444417489558
513,563.5734369961275
514,563.5917079567917
515,563.5991969738353
516,563.596339104259
517,563.5838524890062
518,563.5625413688396
519,563.5331462286251
520,563.4962748967322
521,563.4524291262265
522,563.4021141788601
523,563.3459929874582
524,563.2850302769097
525,563.2205775834011
526,563.1543779104667
527,563.0884997747997
528,563.0252235956965
529,562.9668972745532
530,562.9157689513672
531,562.8738068152152
532,562.842525959772
533,562.8228475985136
534,562.815004921373
535,562.8184852431727
536,562.8319819718465
537,562.8533457840139
538,562.8795687116823
539,562.9068731241166
540,562.9309747135984
541,562.9475406944285
542,562.9527972057908
543,562.9441835201646
544,562.9209229921628
545,562.8843852766264
546,562.8381453881241
547,562.787695658848
548,562.7398313989224
549,562.7018009948397
550,562.6803656083673
551,562.6809254543381
552,562.7068315806
553,562.7589419930171
554,562.835434752666
555,562.9318695295591
556,563.041483182805
557,563.1557009365754
558,563.2648313949016
559,563.3588869263633
560,563.42844124992
561,563.4654228619929
562,563.463758950603
563,563.4198237300662
564,563.3326857151026
565,563.2041710586723
566,563.0387636563534
567,562.8433551448885
568,562.6268421377683
569,562.3995509590429
570,562.1724716508613
571,561.9563202268642
572,561.7605147637603
573,561.5922156960779
574,561.4556058035421
575,561.3515522113852
576,561.2777141013449
577,561.2290707967853
578,561.1987792747665
579,561.1792382250653
580,561.1632238259459
581,561.144954938095
582,561.1209421009936
583,561.0904876860033
584,561.055747496977
585,561.0213410608005
586,560.993591610724
587,560.9795483262405
588,560.9859585568012
589,561.0183219085234
590,561.0801104912903
591,561.1722106188287
592,561.292632128591
593,561.4365278087251
594,561.5965491340282
595,561.7635263585062
596,561.9274110900791
597,562.0783738775443
598,562.2079156410833
599,562.3098370673888
600,562.3809248935735
601,562.4212609247207
602,562.4341269013177
603,562.4255441556919
604,562.4035326930289
605,562.3771990722613
606,562.3557788706529
607,562.3477709073771
608,562.3602916826429
609,562.3987349619138
610,562.4667485325672
611,562.5664596580564
612,562.6988181586723
613,562.8639060885275
614,563.0610993493209
615,563.2890443807474
616,563.5454925832325
617,563.8270810986943
618,564.1291528461637
619,564.4456882593608
620,564.7694005979007
621,565.0920368880634
622,565.4049142235568
623,565.6996844079504
624,565.9692552622678
625,566.2087261848386
626,566.4161505036068
627,566.5929422792643
628,566.7438063379786
629,566.8761700243895
630,566.9992024327928
631,567.1225955177894
632,567.2553331158689
633,567.4046672826576
634,567.5754452466848
635,567.7698141217977
636,567.987235525616
637,568.2247097041474
638,568.4771296302564
639,568.7377221218558
640,568.9985578639782
641,569.2511219289623
642,569.486936672796
643,569.6982198028578
644,569.8785417351927
645,570.0234288014926
646,570.130855246525
647,570.2015718756716
648,570.2392181356544
649,570.2501649826369
650,570.2430610521012
651,570.2281034767891
652,570.2161013358728
653,570.2174296720902
654,570.2409917031247
655,570.2933180960885
656,570.3779216862499
657,570.4949866213132
658,570.6414167362057
659,570.8112198758839
660,570.996170310198
661,571.1866651061736
662,571.372669329252
663,571.5446358592683
664,571.6942964874934
665,571.8152490426634
666,571.9032982290676
667,571.9565392136677
668,571.9752099632925
669,571.9613847623904
670,571.9186166454748
671,571.8516275352212
672,571.7660844472709
673,571.6684221898827
674,571.5656260396559
675,571.4648987734317
676,571.3731944286634
677,571.2966678803123
678,571.2401289346212
679,571.2065933063739
680,571.1970027332891
681,571.210155366863
682,571.2428532828824
683,571.2902445255214
684,571.3463181886723
685,571.4045000789038
686,571.4582885651903
687,571.5018658144121
688,571.5306199121906
689,571.5415195853635
690,571.5333042258393
691,571.5064917301598
692,571.4632462758414
693,571.4071608309299
694,571.3429877416798
695,571.2763103891524
696,571.2131182104812
697,571.1592546835292
698,571.119757769645
699,571.0981785873175
700,571.0960121313269
701,571.1123795074891
702,571.1440548731372
703,571.1858453139794
704,571.2312446836803
705,571.2732283819004
706,571.3050476110966
707,571.3209123950435
708,571.3165065184419
709,571.2893280358336
710,571.238869398978
711,571.1666400912956
712,571.076019612122
713,570.971936141227
714,570.8603952948007
715,570.7479135942064
716,570.6409257332108
717,570.5452300175848
718,570.4655185715026
719,570.4050181316021
720,570.3652528416332
721,570.3459350442945
722,570.3449879928559
723,570.3587005835103
724,570.3820103458631
725,570.4089083475235
726,570.4329540486254
727,570.4478745925586
728,570.4482002744993
729,570.4298623652564
730,570.390668310709
731,570.3305861579832
732,570.2518049382795
733,570.1585669009482
734,570.0567817785184
735,569.9534450393123
736,569.8559038719185
737,569.7710385472384
738,569.7044375428748
739,569.659650397475
740,569.6376230868038
741,569.6364440423117
742,569.6515099260397
743,569.6761393057104
744,569.7025522636512
745,569.7230438918034
746,569.7311386047993
747,569.7225280070934
748,569.6956579365456
749,569.6519115649803
750,569.5954024864859
751,569.532432462072
752,569.4706939480507
753,569.4183201667994
754,569.382902627388
755,569.3705966432434
756,569.3854144999394
757,569.4287678920342
758,569.4992789292763
759,569.5928509530879
760,569.7029829652213
761,569.8213062976944
762,569.9382996483447
763,570.0441064334867
764,570.12936259988
765,570.1859572137649
766,570.2076776906626
767,570.1907098409049
768,570.1339623054217
769,570.039180242179
770,569.910817914166
771,569.755659119822
772,569.5822124536428
773,569.3999591834184
774,569.2185681485782
775,569.0471866237152
776,568.8938684847484
777,568.7651396455876
778,568.6656598946157
779,568.5979399723551
780,568.5621091409668
781,568.5557737972566
782,568.5740274336603
783,568.6096557265073
784,568.6535492853707
785,568.695314673297
786,568.7240605361511
787,568.7293144281408
788,568.7019923860387
789,568.6353086268517
790,568.5254929198688
791,568.3721913904377
792,568.1784723943399
793,567.9504402172385
794,567.6965466454026
795,567.426740338859
796,567.1515864960854
797,566.8814453005964
798,566.6257555918826
799,566.392450150663
800,566.1875206834492
801,566.0147396503861
802,565.8755374552188
803,565.7690354948763
804,565.6922396725619
805,565.6403923120752
806,565.6074623767811
807,565.5867306591562
808,565.5714030779862
809,565.5551709598866
810,565.5326480853902
811,565.4996549274963
812,565.453370115111
813,565.392397650503
814,565.3167936586898
815,565.2280688160284
816,565.1291505699572
817,565.024267671702
818,564.9187165213649
819,564.8184867400946
820,564.7297574140061
821,564.6583103191708
822,564.6089259101113
823,564.5848332874281
824,564.587290127822
825,564.6153715626149
826,564.6660309127029
827,564.7344516757508
828,564.8146508866331
829,564.900238001415
830,564.9851961636008
831,565.0645482119475
832,565.1348078585603
833,565.1941838129263
834,565.242562550486
835,565.2813140562296
836,565.312953186248
837,565.3406803011092
838,565.3678386738399
839,565.397354898252
840,565.4312487605532
841,565.470292494392
842,565.5138651181591
843,565.5600015321022
844,565.6056013907103
845,565.6467552426047
846,565.6791583621616
847,565.6985889775924
848,565.7014064944315
849,565.6849883213201
850,565.6480091650386
851,565.5905024591115
852,565.5137163176569
853,565.4198396258851
854,565.3116906782111
855,565.1924340522093
856,565.065352089137
857,564.9336700693577
858,564.8004237328321
859,564.6683602778362
860,564.5398725537303
861,564.4169708869367
862,564.3012937621168
863,564.1941548858058
864,564.0966257643693
865,564.009650192481
866,563.9341685362407
867,563.8712065413501
868,563.8218819580355
869,563.7873121040499
870,563.7684469796446
871,563.7658757256502
872,563.7796470672027
873,563.8091240773473
874,563.8528840842649
875,563.9086764673226
876,563.9734472588017
877,564.0434224349026
878,564.1142225811194
879,564.1809809128301
880,564.2384679875545
881,564.2812736172618
882,564.3041162469461
883,564.3023145733683
884,564.2723832438282
885,564.2126473240178
886,564.1237409538408
887,564.0088729537237
888,563.8737965362562
889,563.7264876461853
890,563.5765860713773
891,563.4346665963242
892,563.3113922126062
893,563.2165883862984
894,563.1582957627699
895,563.1419057462285
896,563.1695190846496
897,563.2396519401663
898,563.3473480806989
899,563.4846746603307
900,563.6415126049775
901,563.8065133141903
902,563.9680879703234
903,564.1153226144634
904,564.2387528239705
905,564.3309641891419
906,564.3870011734272
907,564.4045737340317
908,564.3840589869717
909,564.328311586653
910,564.2423200227582
911,564.1327652588152
912,564.0075350834469
913,563.8752133766357
914,563.744521509295
915,563.623685715772
916,563.519759201294
917,563.4380042254672
