frame_number,force
0,700.4023500066535
1,700.4522294736224
2,700.5019210978224
3,700.5512383230272
4,700.5999971489058
5,700.648017367855
6,700.695123756317
7,700.7411472089157
8,700.7859258038866
9,700.8293057884258
10,700.8711424739538
11,700.9113010337211
12,700.9496571974103
13,700.98609783869
14,701.0205214524581
15,701.0528385193385
16,701.0829717559551
17,701.1108562505825
18,701.1364394851291
19,701.1596812461906
20,701.1805534301516
21,701.199039749798
22,701.2151353521481
23,701.2288463585531
24,701.2401893381888
25,701.2491907249963
26,701.2558861867386
27,701.2603199541063
28,701.2625441183128
29,701.2626179069252
30,701.2606069485572
31,701.2565825365017
32,701.2506208997253
33,701.2428024880677
34,701.2332112776104
35,701.2219341015738
36,701.2090600109815
37,701.1946796673604
38,701.178884767402
39,701.1617674977492
40,701.143420017703
41,701.1239339687761
42,701.1034000119379
43,701.0819073949648
44,701.0595435528726
45,701.036393744148
46,701.0125407251945
47,700.9880644656052
48,700.9630419073688
49,700.9375467710182
50,700.9116494103629
51,700.8854167150339
52,700.858912057573
53,700.8321952801731
54,700.8053227158205
55,700.7783472392048
56,700.7513183437402
57,700.7242822417227
58,700.6972819845955
59,700.6703575995717
60,700.6435462382206
61,700.6168823327689
62,700.5903977567284
63,700.5641219874499
64,700.5380822689943
65,700.5123037742469
66,700.4868097653696
67,700.4616217513576
68,700.4367596408297
69,700.4122418877373
70,700.3880856275832
71,700.3643068017029
72,700.3409202670616
73,700.3179398891982
74,700.2953786165937
75,700.273248535454
76,700.2515609042547
77,700.2303261676515
78,700.2095539500507
79,700.189253030273
80,700.1694312997146
81,700.1500957067348
82,700.1312521897491
83,700.1129056010642
84,700.0950596231435
85,700.0777166789583
86,700.06087783832
87,700.0445427222794
88,700.0287094075022
89,700.013374332244
90,699.9985322056616
91,699.9841759228167
92,699.9702964883257
93,699.9568829519536
94,699.943922359799
95,699.9313997253014
96,699.9192980248289
97,699.9075982225556
98,699.8962793284675
99,699.8853184918346
100,699.8746911308137
101,699.8643710972166
102,699.8543308740153
103,699.844541802039
104,699.8349743317548
105,699.8255982958066
106,699.8163831976233
107,699.807298510776
108,699.7983139832404
109,699.7893999406635
110,699.7805275831022
111,699.771669270233
112,699.7627987905693
113,699.7538916106782
114,699.7449251008057
115,699.7358787337017
116,699.7267342539764
117,699.7174758161548
118,699.7080900907306
119,699.6985663387915
120,699.6888964571375
121,699.6790749969115
122,699.6690991588814
123,699.6589687674268
124,699.6486862240071
125,699.6382564407851
126,699.6276867564399
127,699.6169868381769
128,699.6061685753303
129,699.59524596992
130,699.5842350282122
131,699.5731536557363
132,699.5620215570945
133,699.5508601409716
134,699.5396924291607
135,699.5285429660183
136,699.5174377222985
137,699.5064039856519
138,699.4954702296385
139,699.4846659539267
140,699.47402149037
141,699.4635677726103
142,699.4533360700805
143,699.4433576899509
144,699.4336636522221
145,699.4242843438641
146,699.4152491579398
147,699.4065861231331
148,699.3983215279167
149,699.3904795419228
150,699.383081835724
151,699.3761472000541
152,699.3696911665241
153,699.3637256333608
154,699.3582585009881
155,699.3532933231487
156,699.3488289794939
157,699.3448593750736
158,699.3413731711744
159,699.3383535509379
160,699.3357780226357
161,699.3336182638011
162,699.3318400105367
163,699.3304029973568
164,699.329260952965
165,699.3283616563448
166,699.3276470560835
167,699.3270534547183
168,699.3265117596417
169,699.3259478026497
170,699.3252827306185
171,699.3244334688654
172,699.3233132562682
173,699.3218322481792
174,699.3198981807509
175,699.3174170886176
176,699.3142940665217
177,699.3104340643679
178,699.3057427048653
179,699.3001271135114
180,699.2934967516544
181,699.2857642440953
182,699.276846193224
183,699.2666639727515
184,699.2551444959477
185,699.2422209549303
186,699.2278335277953
187,699.2119300491408
188,699.194466637776
189,699.1754082740302
190,699.154729318365
191,699.1324139626205
192,699.10845660508
193,699.082862141119
194,699.055646163119
195,699.0268350662384
196,698.9964660593658
197,698.9645870822709
198,698.9312566306096
199,698.8965434906107
200,698.860526385453
201,698.8232935357821
202,698.7849421373563
203,698.7455777591878
204,698.7053136657287
205,698.6642700669665
206,698.6225733011056
207,698.580354955875
208,698.5377509358835
209,698.4949004841741
210,698.4519451661815
211,698.4090278241707
212,698.3662915103457
213,698.3238784071513
214,698.2819287437717
215,698.2405797186425
216,698.1999644392183
217,698.1602108921594
218,698.1214409587636
219,698.0837694911248
220,698.0473034639133
221,698.0121412149916
222,697.9783717855355
223,697.946074367387
224,697.9153178624184
225,697.8861605558405
226,697.858649902751
227,697.8328224252356
228,697.808703716301
229,697.7863085465359
230,697.7656410690444
231,697.7466951175302
232,697.7294545914323
233,697.7138939210107
234,697.6999786045919
235,697.6876658099387
236,697.6769050317906
237,697.6676387979254
238,697.6598034166202
239,697.6533297591623
240,697.6481440718921
241,697.6441688128342
242,697.6413235079908
243,697.6395256218684
244,697.6386914360214
245,697.638736928569
246,697.639578646902
247,697.641134565353
248,697.6433249195629
249,697.6460730095941
250,697.6493059643365
251,697.6529554601507
252,697.656958386635
253,697.6612574519771
254,697.6658017202091
255,697.6705470733879
256,697.6754565933818
257,697.6805008601748
258,697.6856581656593
259,697.6909146430202
260,697.6962643118842
261,697.7017090390664
262,697.7072584148696
263,697.7129295459386
264,697.7187467672921
265,697.7247412776203
266,697.7309507030243
267,697.7374185954976
268,697.744193873867
269,697.7513302162636
270,697.7588854136931
271,697.7669206933825
272,697.7755000185808
273,697.7846893694193
274,697.7945560082119
275,697.8051677321708
276,697.8165921163908
277,697.8288957500368
278,697.8421434693893
279,697.8563975927883
280,697.8717171638583
281,697.8881572099272
282,697.9057680223393
283,697.9245944649956
284,697.944675317468
285,697.9660426595544
286,697.9887213049195
287,698.0127282921483
288,698.0380724419936
289,698.0647539897537
290,698.0927643011946
291,698.1220856787231
292,698.152691261737
293,698.1845450218829
294,698.2176018508882
295,698.2518077360088
296,698.2871000163395
297,698.3234077124878
298,698.360651922036
299,698.3987462733264
300,698.4375974303981
301,698.4771056427571
302,698.5171653350718
303,698.5576657332639
304,698.598491524158
305,698.6395235457151
306,698.680639504263
307,698.721714714379
308,698.762622856354
309,698.803236745701
310,698.8434291091298
311,698.8830733618081
312,698.9220443813517
313,698.9602192744006
314,698.9974781316564
315,699.0337047672255
316,699.068787438315
317,699.1026195414879
318,699.1351002816205
319,699.1661353097733
320,699.1956373266273
321,699.2235266486746
322,699.2497317347049
323,699.2741896701403
324,699.2968466063055
325,699.3176581506866
326,699.3365897027426
327,699.3536167283947
328,699.3687249657585
329,699.3819105555908
330,699.3931800919186
331,699.4025505905024
332,699.4100493747478
333,699.4157138804159
334,699.4195913819266
335,699.4217386440623
336,699.4222215036442
337,699.4211143865389
338,699.4184997660311
339,699.4144675689244
340,699.4091145357906
341,699.4025435418722
342,699.3948628851397
343,699.3861855475494
344,699.3766284346494
345,699.366311597953
346,699.3553574444832
347,699.3438899385924
348,699.3320338021434
349,699.3199137199437
350,699.3076535576967
351,699.2953755995916
352,699.2831998120638
353,699.2712431395497
354,699.2596188375222
355,699.2484358476194
356,699.2377982189183
357,699.2278045783102
358,699.2185476518245
359,699.2101138380207
360,699.2025828344434
361,699.1960273185074
362,699.1905126845043
363,699.1860968382899
364,699.1828300506527
365,699.180754869784
366,699.1799060929696
367,699.1803107975754
368,699.1819884313385
369,699.1849509618158
370,699.1892030847039
371,699.1947424905155
372,699.2015601882538
373,699.2096408830326
374,699.2189634025747
375,699.2295011657462
376,699.2412226848721
377,699.2540920923806
378,699.2680696814306
379,699.2831124497072
380,699.2991746353753
381,699.3162082340459
382,699.3341634858497
383,699.3529893231077
384,699.3726337721602
385,699.3930443072298
386,699.4141681586741
387,699.4359525815254
388,699.4583450923759
389,699.4812936834676
390,699.5047470225209
391,699.5286546455766
392,699.5529671480652
393,699.5776363768256
394,699.602615623576
395,699.6278598189364
396,699.653325725335
397,699.6789721265474
398,699.7047600110564
399,699.7306527462243
400,699.7566162406799
401,699.7826190929676
402,699.8086327247538
403,699.8346314966628
404,699.8605928045539
405,699.8864971539463
406,699.9123282102123
407,699.9380728220916
408,699.9637210163576
409,699.9892659623575
410,700.0147039062682
411,700.0400340755489
412,700.0652585540562
413,700.090382128189
414,700.1154121047491
415,700.1403581016393
416,700.1652318122824
417,700.1900467433667
418,700.2148179238598
419,700.239561582323
420,700.2642947901217
421,700.289035070164
422,700.3137999738022
423,700.3386066314713
424,700.3634712843142
425,700.3884088041342
426,700.4134322083843
427,700.4385521766145
428,700.463776575117
429,700.4891099969968
430,700.5145533250479
431,700.5401033244385
432,700.5657522716865
433,700.5914876262996
434,700.6172917519158
435,700.6431416944507
436,700.6690090250524
437,700.6948597549898
438,700.7206543276079
439,700.7463476895689
440,700.7718894406537
441,700.7972240592181
442,700.8222911992385
443,700.8470260545272
444,700.8713597856946
445,700.8952200053569
446,700.918531316528
447,700.9412158977096
448,700.9631941259277
449,700.9843852265317
450,701.0047079369242
451,701.0240811709697
452,701.0424246716233
453,701.0596596410209
454,701.0757093393906
455,701.0904996461445
456,701.1039595781222
457,701.1160217613108
458,701.126622853671
459,701.1357039182432
460,701.1432107476163
461,701.1490941428191
462,701.1533101510191
463,701.1558202665959
464,701.156591599298
465,701.1555970120386
466,701.1528152302764
467,701.1482309250944
468,701.1418347723985
469,701.1336234903396
470,701.1235998558938
471,701.1117726998312
472,701.0981568775845
473,701.0827732124247
474,701.065648407227
475,701.0468149216407
476,701.0263108120214
477,701.0041795316614
478,700.9804696888446
479,700.9552347604566
480,700.9285327594815
481,700.9004258555548
482,700.8709799488455
483,700.8402641989711
484,700.8083505121839
485,700.7753129911724
486,700.7412273522698
487,700.706170315129
488,700.6702189708026
489,700.6334501360046
490,700.5959397037673
491,700.5577620028026
492,700.5189891787347
493,700.4796906096504
494,700.4399323666631
495,700.3997767283303
496,700.3592817562702
497,700.3185009380434
498,700.2774829020838
499,700.2362712080508
500,700.1949042142674
501,700.1534150220074
502,700.1118314947099
503,700.0701763489537
504,700.0284673127254
505,699.9867173444914
506,699.9449349040916
507,699.9031242646861
508,699.8612858547872
509,699.8194166206225
510,699.7775104007794
511,699.7355583066974
512,699.6935491041334
513,699.6514695923338
514,699.6093049790501
515,699.5670392505258
516,699.5246555360889
517,699.4821364670366
518,699.4394645293287
519,699.3966224095374
520,699.3535933337931
521,699.3103614001416
522,699.2669119054494
523,699.2232316679921
524,699.1793093457511
525,699.1351357487263
526,699.0907041418192
527,699.0460105331673
528,699.0010539413411
529,698.9558366341016
530,698.9103643317193
531,698.8646463688669
532,698.8186958106605
533,698.7725295206976
534,698.7261681817346
535,698.6796362719361
536,698.6329620005293
537,698.5861772063611
538,698.5393172223285
539,698.492420708755
540,698.445529459324
541,698.3986881835079
542,698.351944269423
543,698.305347531015
544,698.2589499434997
545,698.2128053708349
546,698.1669692886857
547,698.1214985060989
548,698.07645088891
549,698.03188508763
550,697.9878602722973
551,697.9444358767416
552,697.9016713547604
553,697.8596259503945
554,697.8183584835494
555,697.7779271506438
556,697.7383893380729
557,697.6998014446941
558,697.6622187089964
559,697.6256950373756
560,697.5902828316518
561,697.5560328158881
562,697.5229938638186
563,697.4912128282341
564,697.4607343724483
565,697.4316008018502
566,697.4038518914363
567,697.3775247042247
568,697.3526533958849
569,697.3292690020675
570,697.3073992061377
571,697.2870680864256
572,697.268295843998
573,697.2510985141117
574,697.2354876664389
575,697.2214701005055
576,697.2090475434999
577,697.1982163577511
578,697.1889672648908
579,697.1812850931067
580,697.1751485533415
581,697.1705300503581
582,697.1673955353766
583,697.1657044077411
584,697.1654094729233
585,697.1664569630848
586,697.168786624922
587,697.172331877816
588,697.1770200433206
589,697.1827726450509
590,697.1895057767177
591,697.1971305356396
592,697.2055535191529
593,697.2146773813373
594,697.2244014470461
595,697.2346223793534
596,697.2452348953697
597,697.2561325240126
598,697.2672083977111
599,697.2783560684192
600,697.2894703372327
601,697.3004480865939
602,697.3111891043666
603,697.3215968897129
604,697.3315794314539
605,697.3410499503605
606,697.3499275976553
607,697.3581381031402
608,697.3656143677765
609,697.3722969970647
610,697.3781347729529
611,697.3830850629512
612,697.3871141652357
613,697.3901975878697
614,697.3923202595251
615,697.3934766688494
616,697.3936709299196
617,697.3929167717678
618,697.3912374505862
619,697.3886655839596
620,697.3852429071994
621,697.3810199525252
622,697.3760556527649
623,697.3704168729603
624,697.3641778756551
625,697.3574197279469
626,697.3502296597643
627,697.3427003829155
628,697.3349293795235
629,697.3270181671428
630,697.3190715466361
631,697.3111968376821
632,697.3035031054594
633,697.296100381093
634,697.2890988785709
635,697.2826082122157
636,697.2767366209872
637,697.2715902078858
638,697.267272203383
639,697.2638822608255
640,697.2615157899097
641,697.2602633327065
642,697.2602099858332
643,697.2614348721434
644,697.2640106655476
645,697.268003173015
646,697.2734709779318
647,697.2804651484117
648,697.2890290130783
649,697.2991980057742
650,697.3109995799826
651,697.3244531935965
652,697.3395703647436
653,697.3563547989405
654,697.3748025864821
655,697.3949024669278
656,697.4166361551402
657,697.4399787208724
658,697.4648990118692
659,697.4913601095195
660,697.5193198064502
661,697.5487310965726
662,697.5795426694497
663,697.6116994024469
664,697.6451428460524
665,697.6798116995401
666,697.7156422751233
667,697.7525689487499
668,697.7905245950897
669,697.8294410035172
670,697.8692492714781
671,697.9098801719249
672,697.9512644924148
673,697.9933333444226
674,698.0360184421066
675,698.0792523504485
676,698.1229687038933
677,698.1671023984338
678,698.2115897618312
679,698.2563687073936
680,698.3013788759973
681,698.3465617693342
682,698.3918608756616
683,698.4372217882761
684,698.4825923165221
685,698.5279225891097
686,698.5731651496066
687,698.618275043991
688,698.6632099000939
689,698.7079299988002
690,698.7523983371551
691,698.7965806837266
692,698.8404456264763
693,698.8839646133297
694,698.9271119860991
695,698.9698650091832
696,699.0122038948789
697,699.0541118269823
698,699.0955749839765
699,699.1365825627356
700,699.1771268030207
701,699.2172030117538
702,699.2568095845019
703,699.295948020577
704,699.334622928151
705,699.3728420166005
706,699.4106160746272
707,699.4479589343019
708,699.4848874226597
709,699.5214213030717
710,699.557583207929
711,699.593398562586
712,699.6288954988547
713,699.66410475504
714,699.6990595586002
715,699.733795487005
716,699.7683503023039
717,699.8027637552884
718,699.8370773558986
719,699.8713341077231
720,699.9055782058944
721,699.9398546989944
722,699.9742091164208
723,700.0086870631346
724,700.0433337843288
725,700.0781937037307
726,700.1133099408435
727,700.1487238137912
728,700.1844743350721
729,700.2205977073135
730,700.2571268253379
731,700.2940907899691
732,700.3315144385718
733,700.369417897485
734,700.4078161619441
735,700.4467187092843
736,700.4861291508978
737,700.5260449275836
738,700.5664570518209
739,700.6073498995595
740,700.6487010536439
741,700.6904812008349
742,700.732654084065
743,700.7751765106807
744,700.817998416069
745,700.8610629807338
746,700.9043067981756
747,700.9476600910702
748,700.9910469740669
749,701.034385762661
750,701.0775893285128
751,701.1205655016047
752,701.1632175184382
753,701.2054445136783
754,701.2471420512635
755,701.2882026903781
756,701.3285165815186
757,701.3679720876985
758,701.4064564254464
759,701.4438563197456
760,701.4800586667566
761,701.5149511984678
762,701.5484231444849
763,701.5803658875274
764,701.6106736099381
765,701.6392439281375
766,701.6659785106723
767,701.6907836737597
768,701.713570946393
769,701.7342575957307
770,701.752767103519
771,701.7690295863842
772,701.7829821568067
773,701.7945692263647
774,701.8037427568704
775,701.8104624669915
776,701.8146960016181
777,701.8164190695352
778,701.8156155530874
779,701.8122775918467
780,701.8064056407117
781,701.7980085015635
782,701.7871033267517
783,701.7737155920533
784,701.757879036208
785,701.739635563927
786,701.7190351095809
787,701.6961354593919
788,701.671002030775
789,701.6437076085111
790,701.6143320384432
791,701.5829618799321
792,701.5496900184488
793,701.5146152400102
794,701.477841770079
795,701.4394787806572
796,701.3996398699367
797,701.3584425185833
798,701.3160075255498
799,701.2724584246886
800,701.227920882246
801,701.182522075245
802,701.1363900516484
803,701.0896530744582
804,701.0424389532653
805,700.9948743682721
806,700.9470841931987
807,700.8991908243593
808,700.85131352339
809,700.8035677809584
810,700.7560647087365
811,700.7089104669946
812,700.662205734696
813,700.6160452275293
814,700.5705172674974
815,700.5257034063944
816,700.481678104867
817,700.4385084685339
818,700.3962540425192
819,700.3549666651897
820,700.3146903802872
821,700.2754614044001
822,700.2373081451453
823,700.2002512653004
824,700.1643037888614
825,700.1294712456883
826,700.0957518519031
827,700.0631367238566
828,700.0316101243037
829,700.0011497400511
830,699.971726990238
831,699.943307363288
832,699.9158507789296
833,699.889311970608
834,699.863640883877
835,699.8387830878728
836,699.8146801989947
837,699.7912703175255
838,699.7684884786507
839,699.7462671194276
840,699.7245365631975
841,699.7032255226251
842,699.6822616215624
843,699.6615719343328
844,699.6410835392365
845,699.6207240813826
846,699.6004223384175
847,699.5801087813904
848,699.5597161220563
849,699.5391798376774
850,699.5184386649822
851,699.4974350561265
852,699.4761155908625
853,699.4544313404242
854,699.4323381799165
855,699.4097970474176
856,699.3867741494796
857,699.3632411141049
858,699.3391750936673
859,699.3145588218089
860,699.2893806297466
861,699.2636344280619
862,699.2373196595693
863,699.2104412274301
864,699.1830094005713
865,699.1550396959034
866,699.1265527341467
867,699.0975740638987
868,699.0681339476644
869,699.03826710428
870,699.0080124042786
871,698.9774125175541
872,698.9465135153275
873,698.9153644304834
874,698.8840167820554
875,698.852524071441
876,698.8209412597071
877,698.7893242365266
878,698.7577292913497
879,698.7262125964774
880,698.6948297102296
881,698.6636351067666
882,698.6326817376619
883,698.6020206295008
884,698.5717005218422
885,698.5417675505005
886,698.512264981503
887,698.4832330004339
888,698.4547085599226
889,698.426725285464
890,698.3993134377024
891,698.3724999282707
892,698.3463083857674
893,698.3207592679353
894,698.2958700157454
895,698.2716552451786
896,698.2481269728586
897,698.2252948720107
898,698.203166555533
899,698.1817478834225
900,698.1610432921207
901,698.141056142985
902,698.1217890859675
903,698.1032444332488
904,698.0854245367257
905,698.0683321630671
906,698.0519708603063
907,698.0363453104308
908,698.0214616632223
909,698.0073278475008
910,697.9939538563636
911,697.9813520025224
912,697.9695371387149
913,697.9585268372914
914,697.9483415229515
915,697.9390045529699
916,697.9305422397746
917,697.922983811638
