frame_number,force
0,782.0755000084599
1,781.9169680994911
2,781.7588383809962
3,781.6015100813305
4,781.4453765433664
5,781.2908223759064
6,781.1382207120743
7,780.9879306030977
8,780.8402945720707
9,780.6956363479109
10,780.5542587951999
11,780.4164420518163
12,780.2824418835203
13,780.1524882624449
14,780.026784174345
15,779.9055046573515
16,779.7887960728859
17,779.6767756074204
18,779.5695310022065
19,779.4671205071953
20,779.36957305479
21,779.2768886481538
22,779.1890389571939
23,779.1059681135106
24,779.0275936942171
25,778.9538078837669
26,778.884478802344
27,778.8194519883986
28,778.7585520214074
29,778.7015842692734
30,778.6483367432521
31,778.5985820417243
32,778.5520793625151
33,778.5085765624846
34,778.4678122435462
35,778.4295178459656
36,778.3934197322012
37,778.3592412472163
38,778.3267047437133
39,778.2955335627212
40,778.2654539611716
41,778.2361969785188
42,778.2075002344098
43,778.1791096492108
44,778.150781078847
45,778.1222818547703
46,778.0933922192388
47,778.063906646031
48,778.0336350375608
49,778.002403791055
50,777.9700567284256
51,777.936455885877
52,777.9014821596489
53,777.8650358038141
54,777.8270367751483
55,777.787424919149
56,777.7461599908514
57,777.7032215046902
58,777.6586084094205
59,777.6123385868689
60,777.5644481767459
61,777.5149907336585
62,777.4640362265195
63,777.4116698943972
64,777.357990976183
65,777.3031113341992
66,777.2471539938168
67,777.1902516221171
68,777.1325449686286
69,777.0741812904781
70,777.0153127830206
71,776.9560950352137
72,776.896685526959
73,776.8372421836588
74,776.7779220012893
75,776.7188797531974
76,776.6602667877512
77,776.6022299243206
78,776.544910453934
79,776.4884432501665
80,776.4329559950278
81,776.3785685236962
82,776.3253922908443
83,776.2735299599773
84,776.2230751154082
85,776.1741120940071
86,776.1267159309645
87,776.0809524114475
88,776.036878219161
89,775.9945411735529
90,775.95398054905
91,775.9152274713149
92,775.8783053863999
93,775.8432305987479
94,775.8100128735798
95,775.7786560986018
96,775.7491589991348
97,775.7215158996745
98,775.6957175236489
99,775.6717518218857
100,775.6496048190364
101,775.6292614660234
102,775.6107064857521
103,775.5939251990457
104,775.5789043178663
105,775.5656326933055
106,775.554102006757
107,775.5443073943911
108,775.5362479973328
109,775.5299274321865
110,775.5253541782103
111,775.5225418785561
112,775.5215095539173
113,775.5222817278485
114,775.5248884639506
115,775.5293653160926
116,775.535753194022
117,775.5440981480683
118,775.554451077939
119,775.5668673716857
120,775.5814064818201
121,775.5981314462737
122,775.6171083621206
123,775.6384058193833
124,775.6620943007937
125,775.6882455514483
126,775.7169319202453
127,775.7482256730864
128,775.782198276511
129,775.8189196502733
130,775.8584573884748
131,775.9008759507077
132,775.9462358265871
133,775.9945926789352
134,776.0459964730202
135,776.1004906017096
136,776.1581110186029
137,776.2188853926236
138,776.2828322982265
139,776.3499604555464
140,776.4202680345469
141,776.4937420364842
142,776.5703577648728
143,776.6500783966604
144,776.732854662427
145,776.8186246420628
146,776.9073136797699
147,776.9988344197483
148,777.0930869616623
149,777.1899591328305
150,777.2893268722369
151,777.3910547202604
152,777.4949964073022
153,777.6009955337232
154,777.7088863325595
155,777.8184945057633
156,777.9296381245077
157,778.0421285842026
158,778.155771604861
159,778.2703682669606
160,778.3857160718381
161,778.5016100141737
162,778.6178436528478
163,778.7342101660641
164,778.8505033774641
165,778.9665187419843
166,779.0820542831558
167,779.1969114768145
168,779.3108960788786
169,779.4238188963293
170,779.5354965008383
171,779.6457518842775
172,779.7544150553027
173,779.8613235764964
174,779.9663230419027
175,780.0692674949811
176,780.170019787148
177,780.2684518773452
178,780.3644450734669
179,780.4578902168045
180,780.5486878108334
181,780.6367480959301
182,780.7219910725306
183,780.8043464768076
184,780.8837537144427
185,780.9601617590614
186,781.0335290229199
187,781.103823208916
188,781.1710211539662
189,781.2351086729121
190,781.2960804094948
191,781.3539396983755
192,781.4086984410384
193,781.4603769981077
194,781.5090040995934
195,781.554616772497
196,781.5972602831635
197,781.6369880906307
198,781.6738618065981
199,781.7079511566558
200,781.7393339359721
201,781.7680959514605
202,781.7943309420777
203,781.8181404693541
204,781.8396337712895
205,781.8589275740876
206,781.8761458573941
207,781.8914195695462
208,781.9048862900809
209,781.9166898377189
210,781.9269798230908
211,781.935911146214
212,781.9436434388962
213,781.9503404520019
214,781.9561693874093
215,781.9613001751123
216,781.9659046974573
217,781.970155964662
218,781.9742272480056
219,781.9782911787399
220,781.9825188217038
221,781.9870787334144
222,781.9921360155336
223,781.9978513755208
224,782.0043802061475
225,782.0118716942516
226,782.0204679674792
227,782.0303032867888
228,782.0415032923529
229,782.054184310377
230,782.0684527274226
231,782.0844044372739
232,782.1021243639982
233,782.1216860640753
234,782.1431514101251
235,782.1665703585658
236,782.1919808033606
237,782.2194085177781
238,782.2488671856293
239,782.2803585227892
240,782.3138724892199
241,782.3493875912598
242,782.38687127336
243,782.4262803975389
244,782.4675618079948
245,782.510652977899
246,782.5554827350162
247,782.6019720617434
248,782.650034963273
249,782.699579395214
250,782.7505082394416
251,782.8027203144773
252,782.8561114049179
253,782.9105752939338
254,782.9660047835566
255,783.0222926889364
256,783.0793327945347
257,783.1370207617957
258,783.1952549784926
259,783.2539373394635
260,783.312973947362
261,783.3722757211214
262,783.4317588996494
263,783.4913454292118
264,783.5509632251686
265,783.6105463020856
266,783.6700347705938
267,783.7293747047395
268,783.7885178895857
269,783.8474214643562
270,783.9060474800618
271,783.9643623916252
272,784.0223365034354
273,784.0799433850293
274,784.1371592709764
275,784.193962456311
276,784.2503326963166
277,784.3062506177349
278,784.361697147681
279,784.416652966235
280,784.4710979881899
281,784.5250108784079
282,784.5783686038045
283,784.6311460236225
284,784.6833155189555
285,784.7348466626096
286,784.7857059312674
287,784.8358564632096
288,784.8852578658947
289,784.9338660777606
290,784.9816332873122
291,785.0285079103872
292,785.0744346243637
293,785.1193544567432
294,785.1632049250572
295,785.2059202250139
296,785.2474314640939
297,785.2876669386383
298,785.3265524537353
299,785.3640116863894
300,785.3999665932007
301,785.4343378641056
302,785.4670454235112
303,785.4980089790974
304,785.5271486165967
305,785.5543854363947
306,785.5796422254821
307,785.6028441566003
308,785.6239195052676
309,785.642800374275
310,785.6594234139766
311,785.6737305256484
312,785.6856695352262
313,785.6951948265792
314,785.7022679267948
315,785.7068580392734
316,785.7089425222864
317,785.7085073108155
318,785.705547278594
319,785.7000665361685
320,785.6920786599323
321,785.6816068466256
322,785.6686839878406
323,785.653352659941
324,785.6356650267915
325,785.6156826555822
326,785.5934762488508
327,785.5691252973943
328,785.5427176587601
329,785.514349065158
330,785.4841225642325
331,785.4521478970214
332,785.4185408193707
333,785.3834223751437
334,785.346918130745
335,785.3091573803435
336,785.2702723300554
337,785.2303972681489
338,785.1896677278318
339,785.1482196495097
340,785.1061885500285
341,785.0637087066302
342,785.0209123629834
343,784.9779289641408
344,784.9348844269266
345,784.8919004518208
346,784.849093881536
347,784.8065761101033
348,784.7644525445219
349,784.7228221192858
350,784.681776863064
351,784.6414015168649
352,784.6017732036856
353,784.5629611502511
354,784.5250264620292
355,784.4880219537143
356,784.4519920385547
357,784.4169726803284
358,784.3829914109322
359,784.3500674148636
360,784.3182116799862
361,784.2874272122206
362,784.2577093102618
363,784.2290458951417
364,784.201417888591
365,784.174799633781
366,784.1491593518479
367,784.124459627407
368,784.1006579162238
369,784.0777070688347
370,784.0555558654017
371,784.034149558972
372,784.0134304257581
373,783.9933383214865
374,783.9738112425995
375,783.9547858910062
376,783.9361982416463
377,783.9179841128755
378,783.9000797397707
379,783.8824223495207
380,783.864950736408
381,783.8476058320593
382,783.8303312650831
383,783.8130739031523
384,783.7957843701513
385,783.7784175312145
386,783.7609329389784
387,783.7432952345986
388,783.7254744967015
389,783.707446530849
390,783.6891930920816
391,783.6707020342309
392,783.6519673818724
393,783.6329893234597
394,783.6137741265355
395,783.5943339773579
396,783.5746867477922
397,783.5548556924261
398,783.5348690794549
399,783.5147597606202
400,783.4945646880946
401,783.4743243886285
402,783.4540824067664
403,783.4338847293321
404,783.4137792025468
405,783.3938149509924
406,783.37404180491
407,783.3545097402244
408,783.3352683345408
409,783.3163662415482
410,783.2978506853824
411,783.2797669758714
412,783.2621580458301
413,783.2450640129289
414,783.2285217707291
415,783.2125646153968
416,783.1972219157501
417,783.1825188345589
418,783.1684761084864
419,783.1551098928137
420,783.1424316753775
421,783.1304482625734
422,783.1191618392934
423,783.1085701041371
424,783.0986664804344
425,783.0894404018757
426,783.0808776687966
427,783.0729608680356
428,783.0656698466664
429,783.0589822283042
430,783.052873959889
431,783.0473198763993
432,783.0422942705683
433,783.0377714544937
434,783.0337263004245
435,783.0301347491329
436,783.0269742760178
437,783.0242243068816
438,783.0218665765706
439,783.0198854242144
440,783.018268019344
441,783.0170045145356
442,783.016088122614
443,783.0155151193495
444,783.0152847753345
445,783.0153992226367
446,783.0158632626234
447,783.0166841216403
448,783.0178711620515
449,783.0194355578192
450,783.0213899456867
451,783.0237480642031
452,783.0265243927536
453,783.0297338013614
454,783.0333912195732
455,783.037511329686
456,783.0421082867822
457,783.0471954661805
458,783.0527852379698
459,783.0588887676881
460,783.0655158414504
461,783.0726747127685
462,783.0803719670706
463,783.088612398907
464,783.0973988964597
465,783.1067323287018
466,783.1166114325201
467,783.1270326998917
468,783.1379902680012
469,783.1494758175052
470,783.1614784856833
471,783.173984801809
472,783.1869786518112
473,783.2004412785528
474,783.214351322878
475,783.2286849087909
476,783.2434157739092
477,783.2585154443896
478,783.2739534521897
479,783.2896975914169
480,783.3057142092305
481,783.3219685252647
482,783.3384249720666
483,783.3550475480301
484,783.3718001740829
485,783.388647045797
486,783.4055529731788
487,783.422483700937
488,783.439406202675
489,783.4562889435596
490,783.4731021075934
491,783.489817787198
492,783.5064101339683
493,783.5228554701208
494,783.539132360612
495,783.5552216463934
496,783.5711064398572
497,783.5867720840583
498,783.6022060776955
499,783.6173979681175
500,783.6323392148333
501,783.6470230261356
502,783.6614441716594
503,783.6755987742808
504,783.6894840858762
505,783.7030982527526
506,783.7164400770814
507,783.7295087799091
508,783.7423037698502
509,783.754824420327
510,783.7670698575079
511,783.7790387604753
512,783.7907291741769
513,783.8021383344707
514,783.8132625036134
515,783.8240968143207
516,783.8346351212895
517,783.8448698608013
518,783.8547919210852
519,783.8643905275205
520,783.8736531471798
521,783.8825654172526
522,783.8911111021114
523,783.8992720837438
524,783.9070283892048
525,783.9143582566629
526,783.9212382396008
527,783.9276433476866
528,783.9335472225177
529,783.9389223459319
530,783.9437402773221
531,783.947971914647
532,783.9515877724108
533,783.9545582695939
534,783.9568540214204
535,783.9584461301515
536,783.9593064707686
537,783.9594079670694
538,783.9587248528566
539,783.9572329125416
540,783.9549096962444
541,783.9517347062978
542,783.9476895542605
543,783.9427580891562
544,783.9369264981461
545,783.9301833804828
546,783.9225197951641
547,783.9139292826368
548,783.9044078609799
549,783.8939539968119
550,783.8825685507826
551,783.8702546974974
552,783.8570178206728
553,783.8428653861171
554,783.8278067969795
555,783.8118532367906
556,783.7950175059998
557,783.7773138572221
558,783.7587578333307
559,783.7393661111428
560,783.7191563522822
561,783.6981470623942
562,783.6763574605023
563,783.6538073616722
564,783.6305170772143
565,783.6065073362851
566,783.5817992307824
567,783.5564141824914
568,783.5303739283077
569,783.5037005168608
570,783.476416308715
571,783.4485439727661
572,783.4201064731235
573,783.3911270431806
574,783.361629146346
575,783.3316364256198
576,783.3011726463193
577,783.2702616373552
578,783.2389272364846
579,783.2071932439966
580,783.1750833875642
581,783.1426212989364
582,783.1098305012518
583,783.0767344043473
584,783.043356304726
585,783.0097193869756
586,782.9758467243679
587,782.9417612777761
588,782.907485893537
589,782.8730433021758
590,782.8384561207378
591,782.8037468618048
592,782.7689379524827
593,782.7340517670644
594,782.6991106771831
595,782.6641371220381
596,782.6291536987734
597,782.5941832709299
598,782.5592490925025
599,782.5243749460986
600,782.4895852943166
601,782.4549054424886
602,782.4203617086088
603,782.3859815938537
604,782.3517939458094
605,782.317829106842
606,782.2841190416593
607,782.2506974401864
608,782.2175997936232
609,782.1848634425736
610,782.1525275964319
611,782.1206333227701
612,782.0892235043866
613,782.0583427606159
614,782.0280373293097
615,781.9983549068055
616,781.9693444446823
617,781.9410559035072
618,781.913539964723
619,781.8868477024924
620,781.8610302185205
621,781.836138245339
622,781.8122217267835
623,781.7893293868838
624,781.7675082988568
625,781.7468034643592
626,781.7272574107968
627,781.7089098123126
628,781.6917971386492
629,781.6759523355573
630,781.6614045407235
631,781.6481788400866
632,781.6362960705327
633,781.6257726758848
634,781.6166206235001
635,781.6088473886895
636,781.6024560136754
637,781.5974452466296
638,781.5938097641185
639,781.5915404768334
640,781.5906249137707
641,781.591047674525
642,781.5927909343158
643,781.5958349831596
644,781.6001587797515
645,781.6057405017096
646,781.6125580760771
647,781.6205896767536
648,781.6298141786459
649,781.640211561491
650,781.651763258946
651,781.6644524502444
652,781.6782642926983
653,781.6931860939147
654,781.7092074229112
655,781.7263201593873
656,781.7445184805863
657,781.7637987858301
658,781.7841595600003
659,781.8056011787818
660,781.8281256601771
661,781.8517363683881
662,781.8764376776385
663,781.902234604901
664,781.9291324213624
665,781.9571362520401
666,781.9862506710475
667,782.0164792972319
668,782.0478243922232
669,782.080286461152
670,782.1138638556408
671,782.1485523788721
672,782.1843448932832
673,782.2212309326696
674,782.2591963219769
675,782.2982228095275
676,782.3382877175995
677,782.3793636176817
678,782.4214180359771
679,782.464413193068
680,782.5083057797445
681,782.5530467692705
682,782.5985812649585
683,782.6448483813866
684,782.6917811584794
685,782.7393065096976
686,782.7873452076112
687,782.8358119113824
688,782.8846152411744
689,782.9336579044918
690,782.9828368789456
691,783.0320436550742
692,783.0811645420126
693,783.1300810381844
694,783.1786702685667
695,783.2268054891103
696,783.274356657445
697,783.3211910669988
698,783.3671740390369
699,783.4121696644451
700,783.4560415854454
701,783.4986538074005
702,783.5398715317453
703,783.5795620014758
704,783.6175953496842
705,783.6538454398465
706,783.688190685326
707,783.7205148358329
708,783.7507077201435
709,783.7786659364341
710,783.8042934835158
711,783.827502328026
712,783.8482129045701
713,783.8663545482075
714,783.8818658611816
715,783.8946950175063
716,783.9048000090704
717,783.9121488354881
718,783.9167196381042
719,783.9185007773075
720,783.917490851694
721,783.9136986575279
722,783.9071430874188
723,783.8978529681109
724,783.885866838454
725,783.8712326697096
726,783.8540075312783
727,783.8342572057143
728,783.8120557573931
729,783.7874850593691
730,783.7606342830096
731,783.731599355282
732,783.7004823891399
733,783.6673910928547
734,783.6324381640015
735,783.595740673346
736,783.5574194437537
737,783.5175984298298
738,783.4764041048605
739,783.433964861894
740,783.3904104349967
741,783.3458713452865
742,783.3004783749664
743,783.2543620713462
744,783.2076522812018
745,783.1604777137075
746,783.1129655282464
747,783.0652409424006
748,783.0174268553062
749,782.9696434817141
750,782.9220079921199
751,782.8746341545597
752,782.8276319745603
753,782.7811073312898
754,782.7351616098957
755,782.6898913322914
756,782.6453877912382
757,782.6017366952487
758,782.5590178340871
759,782.517304775832
760,782.4766646063265
761,782.4371577209151
762,782.3988376773458
763,782.3617511176315
764,782.3259377651068
765,782.291430500515
766,782.2582555179517
767,782.2264325586073
768,782.1959752181933
769,782.166891322756
770,782.1391833665373
771,782.1128490038217
772,782.0878815843225
773,782.064270719574
774,782.0420028668918
775,782.0210619178563
776,782.0014297794155
777,781.9830869368271
778,781.9660129881132
779,781.9501871395481
780,781.9355886518622
781,781.9221972282492
782,781.9099933378883
783,781.8989584718207
784,781.8890753309759
785,781.8803279485654
786,781.8727017508346
787,781.8661835613443
788,781.860761554635
789,781.8564251652998
790,781.8531649583027
791,781.8509724659548
792,781.849839996415
793,781.8497604179303
794,781.8507269221764
795,781.8527327688187
796,781.8557710119588
797,781.8598342081235
798,781.8649141053676
799,781.8710013136861
800,781.8780849578467
801,781.8861523151871
802,781.8951884434059
803,781.9051758066223
804,781.9160939107456
805,781.9279189603841
806,781.940623548956
807,781.9541763918756
808,781.9685421105382
809,781.9836810731186
810,781.9995492971605
811,782.0160984180965
812,782.0332757267669
813,782.0510242777063
814,782.0692830684701
815,782.0879872881993
816,782.1070686308216
817,782.126455665385
818,782.1460742541104
819,782.1658480083903
820,782.18569877364
821,782.2055471345258
822,782.2253129322647
823,782.2449157860643
824,782.2642756120823
825,782.2833131351829
826,782.3019503900888
827,782.3201112087772
828,782.3377216909223
829,782.3547106549328
830,782.3710100687011
831,782.3865554608602
832,782.4012863145339
833,782.4151464460112
834,782.4280843703218
835,782.4400536542618
836,782.451013255217
837,782.4609278417973
838,782.4697680907049
839,782.4775109538122
840,782.484139889843
841,782.4896450559211
842,782.4940234553485
843,782.4972790390336
844,782.4994227585776
845,782.5004725689719
846,782.500453378413
847,782.4993969426079
848,782.4973417015784
849,782.4943325581877
850,782.4904205988338
851,782.4856627575116
852,782.4801214246571
853,782.4738640022169
854,782.4669624065968
855,782.4594925215638
856,782.4515336036138
857,782.443167642786
858,782.4344786822954
859,782.425552100461
860,782.4164738584724
861,782.4073297184488
862,782.3982044383449
863,782.3891809528575
864,782.3803395514998
865,782.371757065866
866,782.3635060776929
867,782.3556541578092
868,782.3482631441009
869,782.3413884652725
870,782.3350785168402
871,782.3293740958209
872,782.3243079002559
873,782.3199040989506
874,782.3161779758873
875,782.3131356529505
876,782.3107738940289
877,782.3090799929956
878,782.3080317470663
879,782.307597515724
880,782.3077363644285
881,782.3083982921491
882,782.309524542114
883,782.3110479955254
884,782.3128936479432
885,782.3149791672893
886,782.3172155308921
887,782.3195077370423
888,782.3217555848596
889,782.3238545150984
890,782.3256965033385
891,782.3271709951429
892,782.3281658701961
893,782.3285684200216
894,782.3282663227166
895,782.3271485986468
896,782.3251065328202
897,782.3220345520509
898,782.3178310475625
899,782.3123991361422
900,782.3056473552055
901,782.2974902890574
902,782.2878491250885
903,782.2766521397137
904,782.2638351147259
905,782.2493416855767
906,782.233123623808
907,782.2151410561055
908,782.1953626219175
909,782.1737655703342
910,782.1503357952953
911,782.1250678065851
912,782.0979646329199
913,782.0690376532075
914,782.0383063530379
915,782.0057980054056
916,781.9715472770752
917,781.9355957645862
