frame_number,force
0,651.584720008086
1,651.5086684408423
2,651.4329557952749
3,651.3579189298933
4,651.2838906112374
5,651.2111975515292
6,651.1401585410302
7,651.0710826986593
8,651.0042678590695
9,650.9399991085218
10,650.878547475837
11,650.8201687788096
12,650.7651026211812
13,650.7135715313972
14,650.6657802325393
15,650.6219150328134
16,650.5821433270819
17,650.5466132017553
18,650.515453137674
19,650.4887718078176
20,650.4666579679322
21,650.4491804380981
22,650.4363881723845
23,650.4283104129948
24,650.4249569251697
25,650.4263183091542
26,650.4323663852764
27,650.4430546478297
28,650.458318783445
29,650.4780772498017
30,650.502231910463
31,650.5306687214535
32,650.5632584655334
33,650.5998575310683
34,650.6403087333348
35,650.6844421764041
36,650.7320761534281
37,650.7830180827
38,650.8370654765971
39,650.8940069402926
40,650.9536231966578
41,651.0156881330888
42,651.0799698653511
43,651.1462318131688
44,651.2142337820303
45,651.2837330452555
46,651.3544854197896
47,651.4262463287544
48,651.4987718437317
49,651.5718197001243
50,651.6451502796186
51,651.7185275543627
52,651.7917199875953
53,651.8645013854255
54,651.9366516951045
55,652.007957746814
56,652.0782139379488
57,652.1472228599815
58,652.2147958679353
59,652.2807535918064
60,652.344926388547
61,652.407154732764
62,652.467289544451
63,652.5251924532956
64,652.580736001332
65,652.6338037880508
66,652.6842905631742
67,652.7321022715477
68,652.7771560527761
69,652.8193801967736
70,652.8587140561609
71,652.895107917157
72,652.928522831501
73,652.958930412422
74,652.9863125974846
75,653.0106613804793
76,653.0319785141211
77,653.0502751856973
78,653.0655716686231
79,653.0778969534557
80,653.087288362085
81,653.0937911486083
82,653.0974580897744
83,653.0983490671985
84,653.0965306435006
85,653.0920756352178
86,653.0850626860813
87,653.0755758444375
88,653.063704148081
89,653.049541218769
90,653.033184867635
91,653.0147367120534
92,652.9943018041602
93,652.971988270829
94,652.94790696442
95,652.9221711233084
96,652.8948960408909
97,652.8661987411019
98,652.8361976576545
99,652.8050123139582
100,652.7727630013915
101,652.7395704550371
102,652.7055555275433
103,652.6708388630208
104,652.6355405735729
105,652.5997799208559
106,652.5636750038669
107,652.5273424525398
108,652.4908971255435
109,652.4544518102521
110,652.4181169228225
111,652.3820002063804
112,652.3462064255116
113,652.3108370558786
114,652.2759899689524
115,652.24175911336
116,652.2082341958802
117,652.1755003665949
118,652.1436379141743
119,652.1127219786604
120,652.0828222899478
121,652.0540029399187
122,652.0263221947175
123,651.9998323513503
124,651.974579640435
125,651.950604175338
126,651.9279399473496
127,651.9066148662425
128,651.8866508445859
129,651.8680639224926
130,651.8508644278685
131,651.8350571666435
132,651.8206416381156
133,651.8076122719187
134,651.7959586843258
135,651.7856659518919
136,651.7767148997301
137,651.7690824004696
138,651.7627416787931
139,651.7576626157316
140,651.7538120468382
141,651.7511540491988
142,651.7496502140446
143,651.7492599041306
144,651.7499404974776
145,651.7516476211774
146,651.7543353806569
147,651.7579565911512
148,651.7624630189996
149,651.7678056402452
150,651.7739349223767
151,651.7808011321588
152,651.7883546692988
153,651.7965464229231
154,651.8053281455522
155,651.8146528373325
156,651.824475132042
157,651.8347516763782
158,651.8454414950179
159,651.8565063348292
160,651.8679109816851
161,651.8796235429938
162,651.8916156892052
163,651.903862848508
164,651.9163443503892
165,651.9290435152021
166,651.9419476880863
167,651.9550482165657
168,651.9683403721814
169,651.9818232176609
170,651.9954994221798
171,652.0093750281653
172,652.0234591739891
173,652.0377637779591
174,652.0523031901662
175,652.0670938196258
176,652.0821537444033
177,652.0975023121821
178,652.1131597386195
179,652.1291467111007
180,652.1454840058916
181,652.1621921268843
182,652.1792909737612
183,652.1967995459378
184,652.2147356860665
185,652.2331158643115
186,652.2519550033362
187,652.2712663440217
188,652.2910613519728
189,652.3113496637287
190,652.3321390694723
191,652.3534355270655
192,652.3752432011293
193,652.3975645208071
194,652.4204002508149
195,652.4437495721897
196,652.4676101710512
197,652.4919783348923
198,652.5168490564181
199,652.5422161452918
200,652.5680723484853
201,652.5944094796592
202,652.6212185566205
203,652.6484899439017
204,652.676213495812
205,652.7043786943947
206,652.7329747765211
207,652.7619908446563
208,652.7914159564378
209,652.8212391889963
210,652.851449674879
211,652.88203660745
212,652.9129892145086
213,652.9442966994072
214,652.9759481492149
215,653.0079324096228
216,653.0402379263903
217,653.0728525532363
218,653.1057633265289
219,653.138956208232
220,653.1724158002917
221,653.2061250355295
222,653.2400648516273
223,653.2742138556179
224,653.30854798648
225,653.3430401833212
226,653.3776600665562
227,653.4123736392925
228,653.4471430152822
229,653.4819261781118
230,653.5166767742853
231,653.5513439413436
232,653.5858721718909
233,653.6202012156682
234,653.6542660240318
235,653.6879967431184
236,653.7213187625847
237,653.7541528258679
238,653.7864152060179
239,653.8180179490109
240,653.8488691844095
241,653.8788735010993
242,653.9079323833151
243,653.935944699285
244,653.9628072321959
245,653.9884152416503
246,654.0126630438506
247,654.0354446002025
248,654.056654105926
249,654.0761865715612
250,654.0939383907817
251,654.1098078886092
252,654.1236958456966
253,654.1355059964174
254,654.145145500235
255,654.1525253868773
256,654.1575609762539
257,654.160172274022
258,654.1602843437041
259,654.1578276565926
260,654.1527384210669
261,654.1449588930265
262,654.1344376688953
263,654.1211299621914
264,654.1049978637992
265,654.0860105848502
266,654.0641446800694
267,654.0393842491851
268,654.0117211142754
269,653.9811549709302
270,653.9476935104256
271,653.9113525090768
272,653.872155880221
273,653.8301356841363
274,653.7853320912992
275,653.7377932943292
276,653.6875753639966
277,653.6347420454781
278,653.5793644928593
279,653.5215209420842
280,653.4612963242768
281,653.3987818224024
282,653.3340743750994
283,653.2672761327885
284,653.1984938727779
285,653.127838381499
286,653.0554238128803
287,652.9813670319218
288,652.9057869514145
289,652.8288038674056
290,652.7505387961812
291,652.6711128135316
292,652.5906463967416
293,652.5092587711141
294,652.4270672651293
295,652.3441866807619
296,652.2607286873714
297,652.1768012482826
298,652.0925080885697
299,652.0079482113833
300,651.9232154689848
301,651.8383981931325
302,651.7535788872725
303,651.6688339806806
304,651.5842336428326
305,651.4998416548107
306,651.4157153333613
307,651.3319055025974
308,651.2484565085308
309,651.1654062723112
310,651.0827863787333
311,651.000622197146
312,650.9189330325122
313,650.8377323049605
314,650.7570277564714
315,650.6768216834071
316,650.5971111939067
317,650.517888489967
318,650.4391411748055
319,650.3608525861953
320,650.2830021556919
321,650.2055657923542
322,650.1285162881227
323,650.0518237407301
324,649.9754559890558
325,649.8993790553342
326,649.82355758865
327,649.7479553048387
328,649.6725354192195
329,649.5972610700433
330,649.5220957314334
331,649.4470036147183
332,649.3719500566166
333,649.2969018918404
334,649.221827806313
335,649.1466986658187
336,649.0714878142372
337,648.996171335866
338,648.9207282773987
339,648.8451408263969
340,648.7693944443251
341,648.6934779533909
342,648.6173835776198
343,648.5411069398651
344,648.4646470180131
345,648.3880060654228
346,648.3111895020717
347,648.2342057833639
348,648.1570662530075
349,648.0797849849438
350,648.0023786172545
351,647.924866178911
352,647.8472689090598
353,647.7696100687314
354,647.6919147462448
355,647.6142096596443
356,647.536522961554
357,647.4588840531718
358,647.381323414288
359,647.3038724553576
360,647.226563396393
361,647.1494291765628
362,647.072503398296
363,646.9958203099577
364,646.9194148307772
365,646.8433226199314
366,646.7675801885506
367,646.6922250496226
368,646.6172958973085
369,646.5428328048162
370,646.4688774287877
371,646.3954732078123
372,646.32266554299
373,646.2505019495862
374,646.1790321707855
375,646.1083082472928
376,646.0383845399252
377,645.9693177058913
378,645.901166632053
379,645.8339923291221
380,645.7678577896437
381,645.7028278110374
382,645.6389687841713
383,645.5763484482811
384,645.5150356138364
385,645.4550998552585
386,645.396611174928
387,645.3396396393387
388,645.2842549884004
389,645.230526220031
390,645.1785211540243
391,645.1283059812773
392,645.079944806194
393,645.0334991909388
394,644.9890277100412
395,644.946585523054
396,644.9062239720645
397,644.8679902100858
398,644.8319268655794
399,644.7980717476862
400,644.766457596544
401,644.7371118833718
402,644.7100566650896
403,644.6853084971308
404,644.6628784054305
405,644.6427719149694
406,644.6249891290527
407,644.6095248520035
408,644.5963687484307
409,644.5855055338607
410,644.5769151931651
411,644.5705732242789
412,644.5664509049693
413,644.5645155796084
414,644.5647309610641
415,644.5670574407214
416,644.5714523983471
417,644.5778705036194
418,644.5862640024443
419,644.5965829831671
420,644.6087756199597
421,644.6227883926582
422,644.6385662838097
423,644.6560529547153
424,644.6751909031126
425,644.6959216059125
426,644.7181856507968
427,644.7419228602232
428,644.7670724104274
429,644.79357294643
430,644.8213626921936
431,644.8503795536174
432,644.8805612115068
433,644.9118452019603
434,644.9441689824951
435,644.9774699835575
436,645.011685646572
437,645.046753450853
438,645.0826109321242
439,645.1191956950421
440,645.1564454213511
441,645.1942978743434
442,645.2326908990523
443,645.2715624162291
444,645.3108504072381
445,645.3504928868391
446,645.3904278611287
447,645.4305932686349
448,645.4709269040341
449,645.5113663259838
450,645.5518487522874
451,645.5923109464214
452,645.6326890995458
453,645.6729187120196
454,645.7129344785722
455,645.7526701817544
456,645.7920585990323
457,645.8310314295937
458,645.869519247226
459,645.9074514852269
460,645.9447564584077
461,645.9813614262665
462,646.0171927004694
463,646.0521757987254
464,646.0862356459894
465,646.1192968228133
466,646.151283859473
467,646.1821215728289
468,646.2117354406978
469,646.2400520064523
470,646.2669993055744
471,646.2925073063222
472,646.3165083580404
473,646.3389376419973
474,646.3597336201765
475,646.3788384770596
476,646.3961985487789
477,646.4117647340199
478,646.4254928821858
479,646.4373441562269
480,646.4472853690784
481,646.4552892926623
482,646.4613349368019
483,646.465407793534
484,646.4675000416031
485,646.4676107065161
486,646.4657457727355
487,646.4619182459195
488,646.4561481643713
489,646.4484625598444
490,646.4388953688141
491,646.4274872970418
492,646.4142856428908
493,646.3993440872706
494,646.3827224588708
495,646.3644864820571
496,646.3447075122671
497,646.3234622611075
498,646.3008325113226
499,646.2769048207529
500,646.2517702144306
501,646.2255238645994
502,646.1982647590595
503,646.1700953587882
504,646.1411212466968
505,646.1114507706013
506,646.0811946843435
507,646.0504657911994
508,646.0193785935601
509,645.9880489523126
510,645.9565937578654
511,645.9251306124786
512,645.8937775213886
513,645.8626525889252
514,645.8318737156101
515,645.8015582929421
516,645.7718228936229
517,645.7427829555797
518,645.7145524580801
519,645.6872435880457
520,645.6609663950547
521,645.6358284347017
522,645.6119344015941
523,645.5893857546248
524,645.5682803377529
525,645.5487119994307
526,645.5307702134379
527,645.5145397035086
528,645.5001000740212
529,645.4875254495407
530,645.4768841272046
531,645.4682382473953
532,645.461643489505
533,645.45714880104
534,645.4547961697504
535,645.4546204491722
536,645.4566492469993
537,645.4609028826883
538,645.4673944163958
539,645.4761297473385
540,645.4871077773124
541,645.5003206343374
542,645.5157539513278
543,645.5333871947859
544,645.553194038593
545,645.5751427776422
546,645.5991967751905
547,645.6253149369145
548,645.6534522040813
549,645.68356005783
550,645.7155870261672
551,645.7494791853743
552,645.7851806485859
553,645.822634036408
554,645.86178092727
555,645.9025622882474
556,645.944918889737
557,645.9887917090442
558,646.0341223282423
559,646.0808533307173
560,646.1289286993483
561,646.1782942180444
562,646.2288978773059
563,646.2806902828758
564,646.3336250640281
565,646.3876592750619
566,646.4427537810793
567,646.498873617955
568,646.5559883167899
569,646.6140721847094
570,646.6731045360181
571,646.7330698699934
572,646.7939579936034
573,646.8557640888984
574,646.918488725819
575,646.9821378219582
576,647.0467225517438
577,647.1122592088337
578,647.1787690271876
579,647.246277967773
580,647.3148164784363
581,647.3844192336815
582,647.455124859196
583,647.526975643738
584,647.6000172392567
585,647.6742983490683
586,647.7498704031849
587,647.8267872192342
588,647.9051046470895
589,647.9848801957883
590,648.0661726426109
591,648.1490416259522
592,648.2335472252307
593,648.3197495318328
594,648.4077082144945
595,648.4974820808934
596,648.5891286356288
597,648.6827036341878
598,648.778260632998
599,648.8758505364553
600,648.9755211421299
601,649.0773166851452
602,649.1812773825562
603,649.2874389787511
604,649.3958322931568
605,649.5064827715253
606,649.6194100422762
607,649.734627480634
608,649.8521417858286
609,649.97195257937
610,650.09405203398
611,650.2184245427178
612,650.3450464369247
613,650.4738857606714
614,650.6049021085382
615,650.7380465322824
616,650.8732615199505
617,651.0104810488518
618,651.1496307125204
619,651.2906279215352
620,651.4333821777433
621,651.5777954199309
622,651.7237624365208
623,651.871171338492
624,652.0199040840951
625,652.1698370460111
626,652.320841611381
627,652.4727848058054
628,652.6255299338308
629,652.7789372299325
630,652.9328645151137
631,653.0871678549162
632,653.2417022149361
633,653.3963221095815
634,653.5508822387187
635,653.7052381056793
636,653.8592466097781
637,654.0127666072026
638,654.1656594352315
639,654.3177893957779
640,654.4690241955224
641,654.6192353415512
642,654.7682984927992
643,654.9160937679221
644,655.062506009649
645,655.2074250050526
646,655.3507456612073
647,655.4923681365451
648,655.6321979296689
649,655.7701459289628
650,655.9061284274188
651,656.0400671074639
652,656.1718890007785
653,656.301526428602
654,656.4289169283853
655,656.5540031719387
656,656.6767328781306
657,656.7970587205245
658,656.9149382284013
659,657.0303336792749
660,657.1432119821602
661,657.2535445525183
662,657.361307180882
663,657.4664798970216
664,657.5690468304407
665,657.6689960666628
666,657.766319497516
667,657.8610126625134
668,657.9530745777078
669,658.0425075482707
670,658.1293169612244
671,658.2135110546262
672,658.2951006589238
673,658.3740989058381
674,658.450520901028
675,658.5243833591734
676,658.5957042030993
677,658.6645021312727
678,658.7307961602645
679,658.7946051506609
680,658.8559473261985
681,658.9148397963592
682,658.9712980926303
683,659.0253357287684
684,659.0769637960697
685,659.1261906055099
686,659.1730213887415
687,659.2174580684209
688,659.2594991050528
689,659.2991394230963
690,659.3363704143641
691,659.3711800125361
692,659.4035528294236
693,659.4334703415904
694,659.460911114995
695,659.4858510555875
696,659.5082636756366
697,659.528120368532
698,659.5453906875872
699,659.5600426260713
700,659.5720428966395
701,659.5813572093024
702,659.5879505483348
703,659.5917874496414
704,659.5928322804491
705,659.5910495227375
706,659.58640406131
707,659.5788614774074
708,659.5683883488061
709,659.5549525565469
710,659.5385235967863
711,659.5190728946257
712,659.4965741160158
713,659.4710034741945
714,659.4423400283141
715,659.4105659732395
716,659.375666920213
717,659.337632167946
718,659.2964549630868
719,659.2521327485214
720,659.2046673978858
721,659.1540654348853
722,659.1003382360832
723,659.0435022152617
724,658.983578986227
725,658.9205954996946
726,658.85458414939
727,658.785582842999
728,658.7136350349618
729,658.638789720056
730,658.5611013886796
731,658.4806299459873
732,658.3974405972783
733,658.3116037015953
734,658.2231945945216
735,658.1322933795975
736,658.0389846861975
737,657.9433573912468
738,657.8455043029547
739,657.7455218056587
740,657.6435094652267
741,657.5395695950526
742,657.4338067843249
743,657.3263273926265
744,657.2172390171461
745,657.1066499405563
746,656.9946685691463
747,656.8814028720943
748,656.7669598333312
749,656.6514449267321
750,656.5349616234774
751,656.4176109381334
752,656.2994910181599
753,656.1806967805754
754,656.0613195994933
755,655.9414470488791
756,655.821162705393
757,655.7005460157409
758,655.5796722315355
759,655.4586124131874
760,655.3374335036284
761,655.2161984722812
762,655.094966528457
763,654.9737934008155
764,654.8527316765252
765,654.731831191535
766,654.6111394624811
767,654.4907021509435
768,654.3705635513484
769,654.2507670942531
770,654.1313558569991
771,654.0123730742248
772,653.8938626419446
773,653.7758696107206
774,653.6584406651874
775,653.5416245878517
776,653.4254727043877
777,653.3100393062731
778,653.1953820456425
779,653.0815622972059
780,652.968645482804
781,652.8567013550248
782,652.7458042367841
783,652.636033213945
784,652.5274722781807
785,652.4202104174254
786,652.314341651359
787,652.2099650096845
788,652.1071844518377
789,652.0061087281968
790,651.9068511845487
791,651.809529513308
792,651.714265456705
793,651.6211844685555
794,651.5304153417903
795,651.4420898084667
796,651.3563421178621
797,651.2733085972031
798,651.1931271991281
799,651.1159370400322
800,651.041877933343
801,650.9710899210905
802,650.9037128061726
803,650.8398856872387
804,650.779746498579
805,650.7234315585113
806,650.6710751309985
807,650.6228090063538
808,650.5787621077732
809,650.5390601307223
810,650.503825221438
811,650.4731756990195
812,650.447225823444
813,650.4260856099221
814,650.4098606884114
815,650.3986522057081
816,650.3925567663587
817,650.3916664076355
818,650.3960686027696
819,650.4058462854917
820,650.421077888106
821,650.4418373851591
822,650.468194335202
823,650.5002139139258
824,650.5379569329971
825,650.5814798399141
826,650.6308346949301
827,650.6860691219696
828,650.7472262321112
829,650.8143445204049
830,650.8874577385201
831,650.966594746445
832,651.051779346749
833,651.1430301056453
834,651.2403601665017
835,651.3437770629866
836,651.4532825400129
837,651.5688723907731
838,651.6905363176834
839,651.8182578241773
840,651.9520141430825
841,652.0917762059084
842,652.2375086562764
843,652.389169910315
844,652.5467122668823
845,652.7100820700782
846,652.879219925024
847,653.0540609654063
848,653.2345351684215
849,653.4205677102456
850,653.6120793534545
851,653.8089868569407
852,654.0112033986023
853,654.2186390013667
854,654.4312009539129
855,654.648794218633
856,654.8713218207998
857,655.0986852146714
858,655.3307846242196
859,655.5675193578572
860,655.8087880975073
861,656.05448916252
862,656.3045207485437
863,656.558781140783
864,656.8171689003482
865,657.079583022
866,657.3459230620152
867,657.6160892363437
868,657.8899824913716
869,658.1675045517668
870,658.4485579514212
871,658.7330460542978
872,659.0208730722485
873,659.311944086593
874,659.6061650792875
875,659.9034429781215
876,660.2036857191757
877,660.5068023290967
878,660.8127030295325
879,661.1212993660005
880,661.4325043630328
881,661.7462327062279
882,662.0624009497191
883,662.3809277451473
884,662.701734086345
885,663.0247435630166
886,663.3498826166078
887,663.6770807919362
888,664.006270978683
889,664.3373896373436
890,664.6703770050822
891,665.0051772787073
892,665.3417387743843
893,665.6800140655313
894,666.0199601008032
895,666.3615383035748
896,666.704714653526
897,667.0494597498367
898,667.3957488538305
899,667.7435619070652
900,668.0928835197267
901,668.4437029243596
902,668.7960138912242
903,669.1498146031475
904,669.5051074890794
905,669.861899016529
906,670.2201994435851
907,670.5800225311618
908,670.9413852153522
909,671.3043072384058
910,671.6688107353874
911,672.0349197728822
912,672.4026598370476
913,672.7720572710356
914,673.1431386657117
915,673.5159302117025
916,673.8904570242953
917,674.2667424550309
918,674.644807404505
