frame_number,force
0,483.5294200000511
1,483.7123473701658
2,483.8863178834495
3,484.04297928264407
4,484.1750804865868
5,484.2768148490553
6,484.34403322941034
7,484.37437126044154
8,484.367312913543
9,484.3241905071575
10,484.2481256062014
11,484.1439290469258
12,484.0179707889841
13,483.87799461542266
14,483.7328169046302
15,483.5918516767652
16,483.46445518633294
17,483.3591526314151
18,483.2828618960094
19,483.2402483375404
20,483.23332523127493
21,483.2613604532315
22,483.3210829842547
23,483.4071313225117
24,483.5126612318136
25,483.6300213910449
26,483.7514013224497
27,483.86936583648105
28,483.9772263542389
29,484.06924670057936
30,484.14071282352546
31,484.1879108053639
32,484.2080673144771
33,484.19930605367813
34,484.16065371880404
35,484.09210068284256
36,483.99470053369964
37,483.8706783088898
38,483.7235071213391
39,483.557912257384
40,483.3797679335448
41,483.19585380685
42,483.01344350141017
43,482.8397293668778
44,482.68114800789095
45,482.5427272719723
46,482.4275922481255
47,482.3367355894409
48,482.26909000367533
49,482.2218646592414
50,482.19105265806223
51,482.1720022577518
52,482.1599660077022
53,482.1505781500911
54,482.1402375048105
55,482.12637865387427
56,482.1076082761358
57,482.0836861736438
58,482.0553489812483
59,482.0239996515173
60,481.99131115785315
61,481.9588192320225
62,481.9275957441791
63,481.8980803104767
64,481.8701006449709
65,481.8430554446056
66,481.8161900143208
67,481.7888749538861
68,481.760806970694
69,481.7320829103857
70,481.7031353552429
71,481.67454810211905
72,481.6467954587877
73,481.61997406198606
74,481.5936112712811
75,481.56662465991866
76,481.5374651428794
77,481.5044151771196
78,481.4659616166354
79,481.4211427214042
80,481.3697865662329
81,481.312605291015
82,481.25116398740886
83,481.1877729064596
84,481.125337285835
85,481.0671557489796
86,481.0166282953929
87,480.97684907053
88,480.95011173723515
89,480.9374159035134
90,480.93809984157105
91,480.94971963503576
92,480.9682491968629
93,480.9886042351942
94,481.00541485153445
95,481.0139059410954
96,481.0107133094684
97,480.9944805304913
98,480.9661404156318
99,480.9288581901086
100,480.8876736924375
101,480.848918862288
102,480.8195086342455
103,480.8062065031454
104,480.81494635177825
105,480.850262174463
106,480.91486026212766
107,481.00936763657324
108,481.1322857631147
109,481.2801544250351
110,481.44789257218247
111,481.6292502618421
112,481.81729807746393
113,482.00489957374157
114,482.1851378222148
115,482.3516825068807
116,482.4990948692852
117,482.62307803188384
118,482.72067700344104
119,482.7904133499501
120,482.83232440615797
121,482.8478814988966
122,482.8397791972679
123,482.81160696892033
124,482.7674371832405
125,482.71138984763405
126,482.6472480026747
127,482.5781819397259
128,482.50660817900183
129,482.43418896801916
130,482.36197286559764
131,482.2906619516617
132,482.2209559952353
133,482.1538919546248
134,482.0910939147895
135,482.03486998463046
136,481.9881187954846
137,481.9540340165698
138,481.93563011808686
139,481.9351573762496
140,481.9535166533711
141,481.98981075706826
142,482.04116631067734
143,482.10291710574546
144,482.16915665265594
145,482.2335627885499
146,482.2903091560142
147,482.33485196914177
148,482.36443327914236
149,482.37824126474356
150,482.37725879417985
151,482.3638847264514
152,482.3414328691822
153,482.3136114086715
154,482.2840645075496
155,482.2560247319999
156,482.2320914346841
157,482.2141217433675
158,482.20319788325094
159,482.1996233003033
160,482.2029140683984
161,482.21179513107256
162,482.224257961993
163,482.2377469165898
164,482.2495006864254
165,482.2570083971847
166,482.25848688192156
167,482.25327092515647
168,482.2420302307593
169,482.22676205770273
170,482.21053832502975
171,482.1970227306895
172,482.1898334826355
173,482.19188756210434
174,482.20487925431695
175,482.2290053987117
176,482.26297523547515
177,482.3042664113963
178,482.34953660048336
179,482.3950853938464
180,482.4372803168274
181,482.47289810276834
182,482.4993700063811
183,482.5149462033834
184,482.5188017558457
185,482.5110952036641
186,482.4929749345827
187,482.4665241389719
188,482.43464231513354
189,482.4008698599055
190,482.36916565815613
191,482.3436462933697
192,482.3282968137568
193,482.3266734474228
194,482.3416327641069
195,482.375124443275
196,482.42806789220094
197,482.5003072312366
198,482.59062587120246
199,482.6968096397245
200,482.8157625954749
201,482.9436837172605
202,483.0763012419015
203,483.20914305173375
204,483.33780621311206
205,483.4581845412917
206,483.5666260286346
207,483.6600213086828
208,483.7358563554127
209,483.79227482462574
210,483.8281753049489
211,483.84332937764407
212,483.83847548349377
213,483.81533954862755
214,483.77655601287995
215,483.72549623804156
216,483.6660331922373
217,483.60227396028597
218,483.53828512993164
219,483.4778265736779
220,483.42409605723793
221,483.3794830192587
222,483.34534752355074
223,483.32186363301605
224,483.3079697096785
225,483.3014531328256
226,483.2991793099856
227,483.29745437748903
228,483.2924817966762
229,483.2808448572836
230,483.25993586375427
231,483.22826051519905
232,483.1855633124773
233,483.13274496981256
234,483.0715815967878
235,483.0043018196247
236,482.9331145260487
237,482.8597950184643
238,482.7854259689148
239,482.71034812419686
240,482.6343137464308
241,482.55678074945996
242,482.4772598730678
243,482.3956276453043
244,482.3123298942443
245,482.22842372993006
246,482.14544641510577
247,482.06514745388216
248,481.9891536012282
249,481.9186450932659
250,481.8541126127982
251,481.7952474945553
252,481.7409933452575
253,481.6897543320778
254,481.63971869171843
255,481.58922770841065
256,481.5371138735639
257,481.48295129704576
258,481.42719579398914
259,481.371220606446
260,481.31726085864074
261,481.2682700429928
262,481.2276835654139
263,481.19908749354823
264,481.18580286900595
265,481.1904184992349
266,481.21433931006703
267,481.25744716251523
268,481.31797063376683
269,481.392619452844
270,481.4769715959733
271,481.56603190640885
272,481.65483696189824
273,481.7389793882331
274,481.81496265089777
275,481.8803537059255
276,481.9337562368287
277,481.97466805350143
278,482.0032960322078
279,482.02037411836676
280,482.02699083106944
281,482.02442282540625
282,482.0139965322151
283,481.99702396173467
284,481.97484515100484
285,481.9489605521096
286,481.9211863400113
287,481.89374779990453
288,481.8692471713042
289,481.85048449168903
290,481.8401547787204
291,481.840485477327
292,481.8529065599727
293,481.8778453033501
294,481.9146976997493
295,481.96196283596487
296,482.01747246727155
297,482.07863754775326
298,482.1426652878555
299,482.20674212088056
300,482.2682007337664
301,482.3246920010442
302,482.3743767289584
303,482.4161374984806
304,482.4497844350673
305,482.47620384686655
306,482.4973971756771
307,482.51638399816613
308,482.5369769199662
309,482.5634565768068
310,482.6001822241686
311,482.6511815550461
312,482.71977273727396
313,482.8082668089754
314,482.9177727267301
315,483.04809455540544
316,483.19769142202665
317,483.3636753203613
318,483.5418433279284
319,483.7267668936802
320,483.9119828370175
321,484.0903402231239
322,484.2545408310339
323,484.3978604340906
324,484.5149662472799
325,484.6026824402005
326,484.66052899345283
327,484.69088425816267
328,484.6986961021768
329,484.6907676560742
330,484.67473475284794
331,484.65790657976146
332,484.64615821342056
333,484.6430561773603
334,484.6493693731087
335,484.66306044974925
336,484.67976658104
337,484.69367989224537
338,484.69865144428553
339,484.689294764186
340,484.66187725946514
341,484.6148603089053
342,484.5490473338746
343,484.4673823408601
344,484.3744929235296
345,484.2760924452167
346,484.178347026858
347,484.08728214253813
348,484.00827017472227
349,483.94561977726573
350,483.90228378799554
351,483.87970802541497
352,483.87784263347004
353,483.89531528465886
354,483.9297266689755
355,483.9779995731433
356,484.0367154612231
357,484.10240297762704
358,484.1717729383001
359,484.24189692341287
360,484.3103072619406
361,484.3749911183434
362,484.4342842596629
363,484.4867216854216
364,484.5309279471957
365,484.5656030664312
366,484.5895996642965
367,484.6020417313946
368,484.6024349812304
369,484.59074877041587
370,484.5674758671117
371,484.5336779365381
372,484.49100481299064
373,484.4416563888734
374,484.38825980414725
375,484.3336623831184
376,484.28067217324366
377,484.23179577591276
378,484.1890249166214
379,484.153712259801
380,484.1265567713575
381,484.10769410513575
382,484.0968640803948
383,484.09361013019753
384,484.09745461425825
385,484.1079912359072
386,484.1248552915807
387,484.14758245368114
388,484.1754242392807
389,484.20721272592704
390,484.2413408993327
391,484.2758687234636
392,484.3087171224536
393,484.3378988598438
394,484.3617533598365
395,484.3791761663015
396,484.38983706622264
397,484.3943577985944
398,484.39439464588423
399,484.3925786272881
400,484.3923116061139
401,484.3974644030975
402,484.4120357443837
403,484.4398064864182
404,484.48399118721585
405,484.54688165568336
406,484.6295030155173
407,484.7313363119078
408,484.85016866699226
409,484.9821084720754
410,485.12177596736143
411,485.2626669553664
412,485.3976778403129
413,485.5197580523065
414,485.62262537053886
415,485.70145422728916
416,485.7534347128925
417,485.77810517857944
418,485.7773883450746
419,485.7553097460203
420,485.71744143157406
421,485.6701780876838
422,485.6199908121443
423,485.5727907102722
424,485.53347490121035
425,485.50566026221065
426,485.49157241939207
427,485.492052254747
428,485.50664856870105
429,485.53376982141725
430,485.57087391949267
431,485.6146891966269
432,485.6614771943009
433,485.70735390446185
434,485.74866839367627
435,485.7824001257786
436,485.8065019847925
437,485.8201096216574
438,485.8235625783443
439,485.8182213856596
440,485.80610449012687
441,485.78941198410314
442,485.7700450522074
443,485.7492436006303
444,485.72742814199313
445,485.70425997217865
446,485.6788620139371
447,485.6500994118704
448,485.61681824098883
449,485.5779851040739
450,485.5327398803334
451,485.4804246735397
452,485.4206479048346
453,485.35339088332785
454,485.2791122174569
455,485.19879576537096
456,485.1139190828153
457,485.0263534242239
458,484.9382155020571
459,484.8516864688866
460,484.7688179101369
461,484.6913564451787
462,484.62062018164784
463,484.5574448387615
464,484.50219196157155
465,484.45478961595944
466,484.41477116869345
467,484.38129239883006
468,484.35312619991566
469,484.3286427135806
470,484.30578541742375
471,484.28206693951563
472,484.25463289022525
473,484.22045036471235
474,484.1766423715849
475,484.12092122188625
476,484.05201805938884
477,483.9699971706939
478,483.87637768426583
479,483.77403168229745
480,483.6668646267108
481,483.55931272417575
482,483.4557235589209
483,483.35971724319626
484,483.27363299063023
485,483.19813722989716
486,483.13202482887266
487,483.0722209532774
488,483.0139954081829
489,482.9514027762377
490,482.8779316232466
491,482.78729514310635
492,482.6742561698891
493,482.5353679919382
494,482.3695240719277
495,482.17823605623397
496,481.9655965102883
497,481.73792756999114
498,481.50316176208446
499,481.2700353636817
500,481.04719171518246
501,480.84229819314817
502,480.6612846923685
503,480.50780953424396
504,480.38303995463315
505,480.2857951741222
506,480.21304191160596
507,480.16065710827985
508,480.1242965879882
509,480.1001686338789
510,480.0855399928825
511,480.0788909725999
512,480.0797424186145
513,480.0882552616564
514,480.10473147715794
515,480.1291319116006
516,480.16069753161634
517,480.19773280242
518,480.23758146695315
519,480.2767943671332
520,480.31145999810263
521,480.3376435698672
522,480.3518650987671
523,480.35154750196114
524,480.33537478204977
525,480.303507892779
526,480.25761780287536
527,480.2007234275696
528,480.1368625291293
529,480.0706601873636
530,480.0068782906206
531,479.9500229514559
532,479.9040538252354
533,479.8721930075892
534,479.85679853852514
535,479.8592711693434
536,479.87999861249517
537,479.9183743658438
538,479.97292115335375
539,480.0415033259849
540,480.121570934171
541,480.21037588418693
542,480.30512920610937
543,480.4030958362059
544,480.5016330170793
545,480.59818088768367
546,480.69022436246297
547,480.7752601118072
548,480.85080385445275
549,480.9144558132884
550,480.964020678989
551,480.9976675080128
552,481.01411262831374
553,481.0128048199144
554,480.99408346213977
555,480.9592700541718
556,480.9106489835399
557,480.85130819631433
558,480.7848508439602
559,480.7150363348221
560,480.645431104231
561,480.57913292721446
562,480.5185966973642
563,480.4655618510606
564,480.42107088227294
565,480.38556523008435
566,480.3590388753431
567,480.3412182105595
568,480.331724902729
569,480.33018166945317
570,480.33624786090314
571,480.3496030809365
572,480.3699008747333
573,480.39669237152754
574,480.4293119023577
575,480.4667459745854
576,480.5075426898304
577,480.5498169064056
578,480.59136912342166
579,480.62990006447666
580,480.6632844067817
581,480.68985411375576
582,480.7086335558893
583,480.7194816170953
584,480.72313187388784
585,480.721156078672
586,480.71588380667083
587,480.710292057385
588,480.7078503924806
589,480.71228682107767
590,480.7272429268721
591,480.755824675836
592,480.80011219882925
593,480.8607278414028
594,480.93655380981295
595,481.0246541312196
596,481.12042024666323
597,481.21793712159297
598,481.310543361121
599,481.39151936799556
600,481.45479625554987
601,481.4955665872437
602,481.51070365058723
603,481.4989400889954
604,481.4608077659206
605,481.39839673930084
606,481.31503215084217
607,481.21496176563534
608,481.10309126451955
609,480.9847394933612
610,480.86536117438936
611,480.75021787355814
612,480.6440414828206
613,480.55077442725974
614,480.47344944212995
615,480.41420154433365
616,480.3743427394172
617,480.3544255387379
618,480.3542645297682
619,480.3729235390196
620,480.4086852734291
621,480.45902512665594
622,480.5206292108818
623,480.5895106145687
624,480.66126573971235
625,480.7314738180189
626,480.7961899595523
627,480.8524357330982
628,480.89857587948944
629,480.93449615536184
630,480.961550489601
631,480.9822975217069
632,481.0000793147475
633,481.0185091835697
634,481.040937520415
635,481.0699560539495
636,481.10698801980783
637,481.15200839923085
638,481.2034479907341
639,481.2583361119572
640,481.3127027066435
641,481.36219311799874
642,481.4027817717154
643,481.43143966504704
644,481.4466233458901
645,481.4484978442156
646,481.4388692015132
647,481.4208696232615
648,481.3984882365431
649,481.3760548243257
650,481.35776588110116
651,481.3473122731824
652,481.3476413222437
653,481.3608640726017
654,481.3882968804489
655,481.4306075563016
656,481.4880260717426
657,481.5605788819535
658,481.6483085102816
659,481.7514412537458
660,481.8704669429924
661,482.00610289951527
662,482.1591361590699
663,482.33017095754093
664,482.5193381778835
665,482.72603064922373
666,482.9487046289366
667,483.1847523582123
668,483.43043799642544
669,483.6809107009675
670,483.9303350825226
671,484.1721768767113
672,484.3996478890624
673,484.6062676572625
674,484.7864580681883
675,484.9360693438967
676,485.0527522433078
677,485.1361283260756
678,485.18774338067334
679,485.21081593662643
680,485.20982381148497
681,485.1899988702792
682,485.1568057124786
683,485.11546849015116
684,485.07060167622274
685,485.0259956561065
686,484.98458342989574
687,484.94856029242703
688,484.91957007373037
689,484.89884921649474
690,484.88724967478413
691,484.8851249526588
692,484.89212835379493
693,484.9070172020032
694,484.9275720430534
695,484.95071611328603
696,484.97285651931224
697,484.99039004167935
698,485.0002593553461
699,485.0004261879126
700,484.9901478077364
701,484.9700027679205
702,484.94169582259684
703,484.9077406075113
704,484.87113505243144
705,484.83510371546544
706,484.8029138650356
707,484.7777226749422
708,484.76240495440453
709,484.75933493557255
710,484.7701332741689
711,484.79542880131174
712,484.8347051972367
713,484.8862881840285
714,484.9474898481676
715,485.01489399895337
716,485.0847490895464
717,485.1534143109068
718,485.21777215699876
719,485.2755020959512
720,485.3251377499434
721,485.3659047829808
722,485.39741847714896
723,485.41936278095756
724,485.43126361563344
725,485.4324305675971
726,485.4220989666052
727,485.39976225406923
728,485.36563292590773
729,485.3211178214692
730,485.26916829088054
731,485.2143846343099
732,485.1628078492669
733,485.12139788384616
734,485.0972588548682
735,485.0967224438553
736,485.12443835087
737,485.18263659017384
738,485.2707124135826
739,485.38523851004584
740,485.52043040255967
741,485.6689883479945
742,485.82314352995485
743,485.97569014153464
744,486.1208095207594
745,486.2545708565494
746,486.375084524106
747,486.48235227730083
748,486.57788859932475
749,486.6641905106634
750,486.7441330104732
751,486.8203779560157
752,486.89489880100456
753,486.9687204250843
754,487.0419289724948
755,487.11392239802285
756,487.1837893245558
757,487.25067040492246
758,487.3139850425738
759,487.37347535050384
760,487.4290954761827
761,487.48082186556945
762,487.52845865176823
763,487.57148139903245
764,487.60893952741736
765,487.63943401944726
766,487.66118525267524
767,487.67219309377083
768,487.67047091078183
769,487.65431529884677
770,487.62256276400444
771,487.5747917726902
772,487.5114515586972
773,487.43391999321045
774,487.3444965977598
775,487.2463303954575
776,487.14328006843755
777,487.0397066352477
778,486.94020376910004
779,486.8492827678739
780,486.77104730070613
781,486.70890401162103
782,486.66534553862454
783,486.64181161441564
784,486.63860080331494
785,486.65480051111757
786,486.6882337158306
787,486.7354585257138
788,486.7918702788752
789,486.85194276605085
790,486.9096189572988
791,486.95882898586234
792,486.9940762074433
793,487.0110063997931
794,487.006880501795
795,486.9809009283567
796,486.93436702283003
797,486.87064596584065
798,486.79495363297434
799,486.71395077112044
800,486.6351695744132
801,486.56630105214765
802,486.5144032602811
803,486.4851223282308
804,486.4820274095473
805,486.5061399167377
806,486.5557059890665
807,486.6262408540572
808,486.7108629716146
809,486.8009165173687
810,486.8868442453955
811,486.9592256148304
812,487.0098488047343
813,487.0326560763482
814,487.02440916573505
815,486.984971422053
816,486.91717972484525
817,486.82635386341195
818,486.71954428271624
819,486.60464668436623
820,486.4895168644306
821,486.38120146940616
822,486.2853597768253
823,486.2058988166643
824,486.14480286758976
825,486.1021288482654
826,486.07615676974456
827,486.06369968041537
828,486.0605642333656
829,486.06211505565415
830,486.06386154591024
831,486.06197825470036
832,486.05369093166144
833,486.0374940726514
834,486.01319642513994
835,485.9818124225
836,485.9453314612686
837,485.90640429974616
838,485.8679846482672
839,485.83295559757653
840,485.80376551305795
841,485.78210869735113
842,485.7687078877672
843,485.7632623906056
844,485.76459364913734
845,485.7709566169765
846,485.7804277496225
847,485.7912631933641
848,485.8021461960934
849,485.8122869719348
850,485.8213779386521
851,485.8294346508746
852,485.8365719079678
853,485.84277885158605
854,485.84776092954036
855,485.8509025753143
856,485.8513732517736
857,485.84835984238026
858,485.84136972502876
859,485.8305217462433
860,485.8167397309051
861,485.80178937765066
862,485.78813928456907
863,485.77866291536475
864,485.7762330482783
865,485.7832977534466
866,485.80154339402463
867,485.8317162416191
868,485.8736024459625
869,485.9261084497865
870,485.98738030901444
871,486.054938942011
872,486.12584279042807
873,486.19688963794164
874,486.26484434492596
875,486.3266547413417
876,486.3796102937818
877,486.42141091642395
878,486.45014199647886
879,486.4641851762107
880,486.4621173656024
881,486.4426526873828
882,486.4046666113579
883,486.3473184345926
884,486.27026154499725
885,486.17390000462274
886,486.05962023818427
887,485.92991062229197
888,485.78829358912003
889,485.63903861918345
890,485.48668305649545
891,485.3354361896823
892,485.1885743212285
893,485.04795495139126
894,484.913774425042
895,484.78464661275416
896,484.6579978058825
897,484.5306896098986
