frame_number,force
0,648.7858900054679
1,648.8958576002509
2,649.0055870173186
3,649.1148417084064
4,649.2233883716385
5,649.3309985421832
6,649.4374501412925
7,649.5425289673755
8,649.6460301124902
9,649.7477592877203
10,649.8475340412248
11,649.9451848537794
12,650.0405560988254
13,650.1335068571918
14,650.2239115800396
15,650.3116605964944
16,650.3966604647402
17,650.478834167154
18,650.5581211516952
19,650.6344772237908
20,650.707874295664
21,650.7783000026898
22,650.8457571977999
23,650.9102633351538
24,650.9718497542666
25,651.0305608763806
26,651.086453325978
27,651.1395949914081
28,651.1900640392795
29,651.2379478975867
30,651.2833422226864
31,651.3263498650632
32,651.3670798478621
33,651.4056463702084
34,651.4421678448267
35,651.4767659772992
36,651.5095648928998
37,651.5406903158761
38,651.5702688045391
39,651.5984270434319
40,651.6252911919565
41,651.6509862879595
42,651.675635704819
43,651.6993606606101
44,651.722279777465
45,651.7445086887232
46,651.7661596915705
47,651.7873414436157
48,651.8081587026195
49,651.8287121088263
50,651.8490980091578
51,651.8694083223121
52,651.8897304433013
53,651.9101471844853
54,651.9307367477118
55,651.9515727199155
56,651.9727240835743
57,651.9942552338598
58,652.0162259954994
59,652.0386916338308
60,652.0617028560698
61,652.0853058003419
62,652.1095420115688
63,652.1344484049307
64,652.1600572189786
65,652.1863959611935
66,652.2134873491109
67,652.2413492505788
68,652.2699946272899
69,652.2994314858785
70,652.3296628402267
71,652.3606866873879
72,652.3924959983083
73,652.4250787241049
74,652.4584178196604
75,652.4924912884618
76,652.5272722546241
77,652.5627290684014
78,652.5988254496144
79,652.6355206700737
80,652.6727697727567
81,652.7105238234919
82,652.7487301903207
83,652.7873328457838
84,652.8262726876105
85,652.8654878737296
86,652.9049141682327
87,652.9444852957988
88,652.984133302972
89,653.0237889254676
90,653.0633819612349
91,653.1028416492624
92,653.1420970539352
93,653.1810774540351
94,653.2197127344047
95,653.2579337775296
96,653.2956728521091
97,653.3328639955179
98,653.3694433861397
99,653.4053497000994
100,653.4405244457848
101,653.4749122691097
102,653.5084612225693
103,653.5411229918459
104,653.5728530753337
105,653.6036109142971
106,653.6333599736346
107,653.6620677746707
108,653.6897058821428
109,653.7162498480325
110,653.7416791152294
111,653.765976884148
112,653.7891299456217
113,653.8111284839903
114,653.8319658551933
115,653.8516383455851
116,653.8701449179723
117,653.8874869518163
118,653.9036679842247
119,653.9186934572894
120,653.9325704760713
121,653.9453075803655
122,653.956914532024
123,653.9674021179983
124,653.976781967669
125,653.9850663817356
126,653.9922681690981
127,653.9984004881164
128,654.0034766896803
129,654.0075101614675
130,654.0105141750183
131,654.0125017393747
132,654.0134854667912
133,654.0134774569783
134,654.0124892060715
135,654.0105315452477
136,654.0076146124153
137,654.003747859209
138,653.9989400944112
139,653.9931995634304
140,653.9865340617114
141,653.9789510784902
142,653.9704579664541
143,653.9610621326074
144,653.950771245866
145,653.9395934573002
146,653.9275376289677
147,653.9146135666857
148,653.9008322512843
149,653.8862060625551
150,653.8707489905762
151,653.8544768299137
152,653.8374073525422
153,653.8195604548197
154,653.8009582730613
155,653.7816252621755
156,653.7615882328483
157,653.7408763445917
158,653.7195210540895
159,653.6975560203829
160,653.6750169703176
161,653.6519415290642
162,653.6283690212199
163,653.6043402481474
164,653.5798972471617
165,653.5550830382128
166,653.5299413637739
167,653.5045164275542
168,653.4788526372434
169,653.4529943558996
170,653.4269856661532
171,653.400870151304
172,653.3746906974524
173,653.3484893208079
174,653.3223070241733
175,653.2961836861646
176,653.2701579858134
177,653.244267363895
178,653.2185480210452
179,653.1930349516848
180,653.1677620116676
181,653.1427620160366
182,653.118066861677
183,653.0937076687165
184,653.0697149343506
185,653.0461186928322
186,653.0229486753691
187,653.0002344638194
188,652.9780056326487
189,652.9562918746755
190,652.935123107548
191,652.9145295592115
192,652.8945418312495
193,652.8751909386873
194,652.8565083240744
195,652.8385258429997
196,652.8212757176799
197,652.8047904547258
198,652.7891027229136
199,652.7742451874744
200,652.7602502991607
201,652.7471500384326
202,652.7349756168976
203,652.7237571395805
204,652.7135232325693
205,652.7043006407258
206,652.6961137995359
207,652.6889843844797
208,652.6829308411102
209,652.6779678994887
210,652.6741060777198
211,652.671351180908
212,652.6697038034927
213,652.6691588440523
214,652.6697050423693
215,652.6713245494907
216,652.6739925428849
217,652.6776768995552
218,652.6823379390463
219,652.6879282457982
220,652.6943925772277
221,652.7016678610461
222,652.7096832827874
223,652.7183604621042
224,652.727613714079
225,652.7373503901644
226,652.747471292933
227,652.7578711595387
228,652.7684392101547
229,652.7790597590963
230,652.7896128871937
231,652.7999751735681
232,652.8100204829612
233,652.8196208016863
234,652.8286471121692
235,652.8369702940148
236,652.8444620390684
237,652.8509957689729
238,652.856447545761
239,652.8606969682382
240,652.8636280482486
241,652.8651300608419
242,652.8650983614644
243,652.8634351628621
244,652.8600502650581
245,652.854861733068
246,652.8477965181881
247,652.8387910195509
248,652.8277915832482
249,652.8147549366238
250,652.7996485553551
251,652.7824509611315
252,652.7631519484137
253,652.741752739696
254,652.7182660691401
255,652.692716194009
256,652.6651388323556
257,652.6355810245567
258,652.604100916168
259,652.5707674605646
260,652.535660041709
261,652.4988680194888
262,652.4604902017627
263,652.4206342481768
264,652.3794160107026
265,652.3369588148836
266,652.2933926847478
267,652.2488535140444
268,652.2034821871712
269,652.1574236546702
270,652.1108259700449
271,652.063839296551
272,652.0166148945422
273,651.9693041019715
274,651.9220573223594
275,651.8750230349895
276,651.8283468408144
277,651.782170555124
278,651.7366313555666
279,651.6918609921644
280,651.6479850643273
281,651.6051223684133
282,651.5633843182164
283,651.5228744398037
284,651.483687941246
285,651.4459113572532
286,651.4096222687585
287,651.3748890976553
288,651.3417709764341
289,651.3103176912638
290,651.2805696956115
291,651.252558190354
292,651.2263052656874
293,651.201824099815
294,651.1791192092264
295,651.1581867453112
296,651.1390148320302
297,651.1215839394445
298,651.1058672882427
299,651.0918312809564
300,651.0794359558906
301,651.0686354595574
302,651.0593785325972
303,651.0516090030483
304,651.0452662797802
305,651.0402858386155
306,651.0365996945465
307,651.0341368550763
308,651.032823751215
309,651.0325846435571
310,651.033342001223
311,651.0350168512838
312,651.0375290957402
313,651.0407977928725
314,651.0447414009143
315,651.0492779849155
316,651.0543253913738
317,651.0598013981413
318,651.0656238483347
319,651.0717107766584
320,651.0779805354539
321,651.0843519266581
322,651.0907443449966
323,651.0970779370417
324,651.1032737801823
325,651.1092540849892
326,651.1149424235587
327,651.1202639848567
328,651.1251458561717
329,651.1295173282971
330,651.133310221378
331,651.1364592282246
332,651.1389022718056
333,651.140580873413
334,651.1414405277781
335,651.1414310811606
336,651.1405071078801
337,651.1386282801071
338,651.1357597255997
339,651.131872368734
340,651.1269432511677
341,651.120955829073
342,651.1139002438374
343,651.1057735629945
344,651.0965799884596
345,651.0863310297636
346,651.0750456401747
347,651.0627503130536
348,651.0494791349103
349,651.035273791278
350,651.0201835225014
351,651.0042650288603
352,650.9875823270288
353,650.970206561564
354,650.9522157758964
355,650.9336946477143
356,650.9147341938067
357,650.8954314490927
358,650.8758891237594
359,650.8562152413732
360,650.8365227597172
361,650.8169291750274
362,650.7975561092981
363,650.7785288792167
364,650.7599760438505
365,650.7420289267252
366,650.7248211073281
367,650.7084878781382
368,650.6931656657092
369,650.6789914170255
370,650.6661019542992
371,650.6546333022967
372,650.644719992421
373,650.6364943475963
374,650.6300857517363
375,650.6256199071881
376,650.6232180830992
377,650.6229963574262
378,650.625064855723
379,650.6295269909524
380,650.6364787098848
381,650.6460077527546
382,650.6581929339229
383,650.6731034526915
384,650.6907982447983
385,650.7113253856636
386,650.7347215554761
387,650.7610115738609
388,650.7902080090765
389,650.8223108645352
390,650.8573073443451
391,650.8951716990873
392,650.9358651524637
393,650.9793359085355
394,651.025519238245
395,651.0743376431891
396,651.1257010943534
397,651.1795073433823
398,651.2356423031712
399,651.2939804927712
400,651.3543855395025
401,651.4167107300306
402,651.4807996025216
403,651.5464865733052
404,651.6135975928815
405,651.6819508274062
406,651.7513573631244
407,651.8216219326182
408,651.8925436630952
409,651.9639168482668
410,652.035531746236
411,652.1071754056027
412,652.1786325205571
413,652.2496863135174
414,652.320119441307
415,652.389714918314
416,652.4582570481352
417,652.5255323545617
418,652.5913305035067
419,652.655445209241
420,652.7176751205225
421,652.7778246842537
422,652.8357049855301
423,652.8911345632768
424,652.9439402006362
425,652.993957689164
426,653.0410325650959
427,653.0850208137339
428,653.12578953471
429,653.1632175579082
430,653.1971959981857
431,653.2276287368157
432,653.2544328183535
433,653.2775387530783
434,653.2968907172483
435,653.3124466462376
436,653.3241782188045
437,653.3320707333689
438,653.3361228787961
439,653.336346403316
440,653.3327656864602
441,653.3254172202159
442,653.3143490067392
443,653.2996198809584
444,653.281298767361
445,653.2594638811166
446,653.2342018842974
447,653.2056070084132
448,653.1737801548709
449,653.1388279850631
450,653.100862011295
451,653.0599976988574
452,653.0163535888097
453,652.9700504506958
454,652.9212104742013
455,652.8699565083241
456,652.8164113559096
457,652.7606971305056
458,652.7029346813722
459,652.6432430909891
460,652.581739247503
461,652.5185374924775
462,652.4537493424485
463,652.3874832814824
464,652.3198446210255
465,652.2509354222251
466,652.1808544744067
467,652.1096973221565
468,652.0375563333048
469,651.964520800915
470,651.8906770732584
471,651.8161087060294
472,651.7408966309185
473,651.6651193347078
474,651.5888530436237
475,651.5121719085829
476,651.4351481877924
477,651.3578524236984
478,651.280353611462
479,651.202719355924
480,651.125016013539
481,651.0473088153187
482,650.9696619667033
483,650.8921387207175
484,650.8148014220902
485,650.7377115222322
486,650.6609295672
487,650.5845151616845
488,650.5085269113882
489,650.4330223450103
490,650.3580578167011
491,650.2836883904923
492,650.2099677093115
493,650.1369478520817
494,650.0646791825887
495,649.9932101933523
496,649.9225873472687
497,649.8528549197368
498,649.7840548440463
499,649.7162265625545
500,649.6494068856391
501,649.583629860046
502,649.5189266482479
503,649.4553254207004
504,649.3928512633192
505,649.3315261028645
506,649.2713686529779
507,649.2123943835127
508,649.154615515932
509,649.0980410480043
510,649.0426768113189
511,648.988525564872
512,648.9355871270506
513,648.8838585469833
514,648.8333343145273
515,648.7840066062128
516,648.7358655626884
517,648.6888995920725
518,648.643095693238
519,648.5984397931304
520,648.5549170922708
521,648.5125124124538
522,648.4712105404941
523,648.4309965620671
524,648.3918561802758
525,648.3537760142507
526,648.3167438735825
527,648.2807490048505
528,648.2457823074196
529,648.2118365172508
530,648.1789063591805
531,648.1469886691042
532,648.1160824872926
533,648.0861891229462
534,648.0573121887044
535,648.029457602975
536,648.0026335582382
537,647.9768504546911
538,647.9521207998496
539,647.9284590756021
540,647.9058815750818
541,647.8844062130679
542,647.8640523151064
543,647.8448403914078
544,647.8267919014066
545,647.8099290138895
546,647.794274366284
547,647.7798508254165
548,647.7666812509901
549,647.7547882622616
550,647.744194007935
551,647.7349199392625
552,647.7269865868602
553,647.7204133426891
554,647.7152182495503
555,647.7114178008236
556,647.7090267529014
557,647.7080579520843
558,647.7085221769341
559,647.7104279963365
560,647.7137816427777
561,647.7185868996488
562,647.7248450009645
563,647.7325545420537
564,647.7417114007737
565,647.752308670292
566,647.7643366055555
567,647.7777825854708
568,647.7926310916611
569,647.8088637031733
570,647.8264591052467
571,647.8453931094491
572,647.8656386821705
573,647.8871659785285
574,647.9099423790558
575,647.9339325272263
576,647.9590983671665
577,647.9853991826915
578,648.0127916405439
579,648.0412298418044
580,648.0706653855889
581,648.1010474483382
582,648.1323228806028
583,648.164436321872
584,648.1973303331756
585,648.2309455467539
586,648.2652208316597
587,648.3000934736195
588,648.3354993669653
589,648.3713732159807
590,648.4076487425943
591,648.4442588971142
592,648.4811360687571
593,648.5182122929008
594,648.5554194520155
595,648.5926894673856
596,648.6299544795318
597,648.6671470165385
598,648.704200150595
599,648.7410476435566
600,648.77762408246
601,648.8138650060928
602,648.8497070240874
603,648.8850879303515
604,648.9199468128188
605,648.9542241616676
606,648.987861978332
607,649.020803887505
608,649.05299525361
609,649.084383301792
610,649.114917241474
611,649.14454838851
612,649.1732302808587
613,649.2009187829221
614,649.2275721747245
615,649.253151223249
616,649.2776192343325
617,649.3009420848086
618,649.3230882360316
619,649.3440287310584
620,649.3637371783916
621,649.3821897254644
622,649.3993650251393
623,649.4152441984279
624,649.4298107966382
625,649.4430507664489
626,649.454952421965
627,649.4655064283738
628,649.4747058020282
629,649.4825459312517
630,649.4890246207115
631,649.4941421601552
632,649.4979014162609
633,649.500307944674
634,649.5013701180537
635,649.5010992652007
636,649.49950981618
637,649.4966194485045
638,649.4924492295091
639,649.4870237502995
640,649.4803712477864
641,649.4725237133296
642,649.4635169883638
643,649.4533908479976
644,649.4421890727499
645,649.429959506778
646,649.4167540986186
647,649.4026289181237
648,649.3876441416222
649,649.3718639969035
650,649.355356660197
651,649.3381940983885
652,649.3204518509696
653,649.3022087478416
654,649.283546561385
655,649.2645495941957
656,649.2453042071793
657,649.2258982956116
658,649.206420723005
659,649.1869607241644
660,649.1676072897027
661,649.1484485444895
662,649.1295711321386
663,649.1110596167215
664,649.0929959111814
665,649.0754587395448
666,649.0585231378217
667,649.0422599972298
668,649.0267356529026
669,649.0120115208623
670,648.9981437855846
671,648.9851831402337
672,648.9731745814693
673,648.9621572599924
674,648.9521643865678
675,648.9432231918163
676,648.9353549374149
677,648.9285749765216
678,648.9228928614403
679,648.9183124958565
680,648.9148323273927
681,648.9124455746489
682,648.9111404821864
683,648.9109005972693
684,648.9117050632069
685,648.9135289253047
686,648.9163434465407
687,648.920116431094
688,648.9248125546056
689,648.9303937003019
690,648.9368193000934
691,648.9440466800338
692,648.95203141019
693,648.9607276594569
694,648.9700885554618
695,648.9800665482749
696,648.9906137747142
697,649.001682418552
698,649.0132250616375
699,649.0251950216963
700,649.0375466735599
701,649.0502357511601
702,649.0632196277663
703,649.0764575718633
704,649.0899109758116
705,649.1035435539559
706,649.1173215063615
707,649.1312136442376
708,649.1451914735627
709,649.1592292343712
710,649.173303894273
711,649.1873950957968
712,649.2014850582643
713,649.2155584365418
714,649.229602141211
715,649.2436051268646
716,649.257558156525
717,649.2714535501957
718,649.2852849244962
719,649.2990469287259
720,649.3127349810635
721,649.3263450072672
722,649.3398731835543
723,649.3533156853274
724,649.3666684438319
725,649.3799269134721
726,649.393085853365
727,649.4061391277785
728,649.4190795311698
729,649.431898644226
730,649.4445867271987
731,649.4571326559096
732,649.4695239042394
733,649.4817465748964
734,649.4937854780336
735,649.505624255399
736,649.5172455465931
737,649.5286311934946
738,649.5397624783687
739,649.5506203902276
740,649.5611859128023
741,649.5714403264603
742,649.5813655159516
743,649.590944276219
744,649.6001606092602
745,649.609000005529
746,649.6174497031717
747,649.6254989175768
748,649.633139032834
749,649.6403637464726
750,649.6471691596807
751,649.6535538070516
752,649.6595186224429
753,649.6650668404035
754,649.6702038354384
755,649.6749369038579
756,649.6792749949005
757,649.6832283991814
758,649.6868084033922
759,649.6900269208405
760,649.6928961079753
761,649.695427977303
762,649.6976340168046
763,649.6995248252091
764,649.7011097715791
765,649.7023966867524
766,649.7033915928806
767,649.7040984754871
768,649.7045191006488
769,649.7046528786891
770,649.7044967749781
771,649.7040452674657
772,649.7032903492462
773,649.702221573157
774,649.7008261346696
775,649.6990889893642
776,649.6969930017551
777,649.6945191225642
778,649.6916465914281
779,649.6883531615642
780,649.6846153421584
781,649.6804086532492
782,649.675707887012
783,649.6704873689467
784,649.6647212126063
785,649.658383561982
786,649.6514488163424
787,649.6438918331405
788,649.6356881057309
789,649.6268139143817
790,649.6172464512597
791,649.6069639218912
792,649.5959456264485
793,649.5841720244688
794,649.5716247870541
795,649.5582868413198
796,649.5441424124176
797,649.5291770686147
798,649.5133777747099
799,649.4967329584525
800,649.4792325936595
801,649.4608683028414
802,649.4416334816584
803,649.421523447053
804,649.4005356097799
805,649.3786696702342
806,649.3559278343931
807,649.3323150446287
808,649.3078392182557
809,649.2825114855767
810,649.2563464196373
811,649.229362251588
812,649.2015810671214
813,649.17302898015
814,649.1437362802337
815,649.1137375510098
816,649.0830717578718
817,649.0517823037922
818,649.0199170521323
819,648.9875283147147
820,648.9546728027187
821,648.92141153747
822,648.887809717933
823,648.8539365414862
824,648.8198649743387
825,648.7856714681992
826,648.7514356210844
827,648.7172397823606
828,648.6831686045081
829,648.6493085459709
830,648.6157473307896
831,648.5825733718381
832,648.5498751656645
833,648.5177406679695
834,648.4862566591428
835,648.4555081088173
836,648.4255775473574
837,648.3965444510287
838,648.3684846464698
839,648.3414697388189
840,648.3155665662445
841,648.2908366820518
842,648.2673358648026
843,648.2451136575387
844,648.2242129389505
845,648.2046695314317
846,648.1865118527323
847,648.1697606190111
848,648.1544286074351
849,648.1405204861555
850,648.1280327186416
851,648.1169535481138
852,648.1072630663514
853,648.0989333695912
854,648.0919288025087
855,648.086206289346
856,648.0817157493839
857,648.0784005925042
858,648.0761982895934
859,648.0750410115204
860,648.0748563288453
861,648.0755679623044
862,648.0770965721116
863,648.0793605727575
864,648.0822769593271
865,648.0857621313382
866,648.089732700782
867,648.0941062723733
868,648.0988021858184
869,648.1037422119282
870,648.1088511963642
871,648.1140576464913
872,648.1192942584245
873,648.1244983831779
874,648.1296124328167
875,648.1345842292358
876,648.139367299436
877,648.1439211221153
878,648.1482113312209
879,648.1522098825255
880,648.1558951888885
881,648.159252228624
882,648.1622726298434
883,648.164954732303
884,648.1673036272744
885,648.1693311749615
886,648.1710559978825
887,648.1725034474683
888,648.1737055399577
889,648.1747008566426
890,648.1755344031063
891,648.1762574225094
892,648.1769271588784
893,648.1776065672087
894,648.1783639677942
895,648.1792726426255
896,648.1804103721952
897,648.1818589119481
898,648.183703409164
899,648.1860317631189
900,648.1889339336254
901,648.1925012053354
902,648.1968254175074
903,648.2019981712078
904,648.2081100278247
905,648.2152497138719
906,648.2235033470582
907,648.2329536974728
908,648.2436794954789
909,648.2557547946114
910,648.2692483941205
911,648.2842233228299
912,648.3007363843675
913,648.3188377636546
914,648.338570695424
915,648.3599711966344
916,648.3830678650446
917,648.4078817454931
