frame_number,force
0,548.2450600000286
1,548.1805356083887
2,548.118333198787
3,548.0609670124898
4,548.0112395615182
5,547.9721779037127
6,547.9467993372571
7,547.9377564342237
8,547.9469583739541
9,547.9752679823838
10,548.0223348911727
11,548.0865875502986
12,548.1653898704069
13,548.2553451042035
14,548.3526870017776
15,548.4536693282867
16,548.5548802845036
17,548.6534551198279
18,548.7472016754065
19,548.8346660051665
20,548.9151497403174
21,548.9886678038719
22,549.0558292114381
23,549.117643356161
24,549.1752828323047
25,549.2298472591817
26,549.2821616113923
27,549.3326196890946
28,549.3810719766243
29,549.4267682964143
30,549.4683827222241
31,549.5041467268047
32,549.532093736745
33,549.5503858834023
34,549.5576588080719
35,549.5532962615881
36,549.5375590348912
37,549.5115488224026
38,549.477052854284
39,549.4363471232018
40,549.3920231058311
41,549.3468635355803
42,549.3037534600262
43,549.2655909936823
44,549.2351587445268
45,549.2149232545877
46,549.206745000277
47,549.2115136813266
48,549.2287698624401
49,549.2564103277847
50,549.2905741484856
51,549.3257654948901
52,549.3552098626823
53,549.3713937902978
54,549.3667210444028
55,549.3342219540708
56,549.2682572645006
57,549.1651543112745
58,549.0237058698378
59,548.8454598328078
60,548.6347396693747
61,548.3983655908162
62,548.1450904656446
63,547.8848131752472
64,547.6276736599577
65,547.383155902985
66,547.1593187337875
67,546.962239811782
68,546.7957053414476
69,546.6611267736937
70,546.5576371920932
71,546.4823162316743
72,546.4304984790302
73,546.3961333766454
74,546.3721922676957
75,546.3511478701464
76,546.3255515229583
77,546.2886899748169
78,546.235241219776
79,546.1618122801259
80,546.0672558543761
81,545.9527151674765
82,545.8214048243861
83,545.6781742952829
84,545.5289148493956
85,545.37987445362
86,545.2369544536311
87,545.1050751332488
88,544.9876981486765
89,544.8865718065916
90,544.8017248318549
91,544.731689210442
92,544.6738964094932
93,544.6251698181134
94,544.5822278796721
95,544.5421175422836
96,544.5025216314925
97,544.4619212235413
98,544.4196236425868
99,544.3756748881663
100,544.3306737018204
101,544.2855096633177
102,544.2410578135517
103,544.1978657640869
104,544.1558670168101
105,544.1141587741142
106,544.0708932771485
107,544.0233280983755
108,543.9680514835882
109,543.9013600941184
110,543.819738662861
111,543.7203767844924
112,543.6016545600216
113,543.4635380177657
114,543.3078413963846
115,543.1383221297203
116,542.9605727761859
117,542.7816789968324
118,542.6096446326945
119,542.4526456286242
120,542.3182355885609
121,542.212645278228
122,542.1402801657113
123,542.1034515235033
124,542.1023188290342
125,542.1349909903663
126,542.1977261531047
127,542.2851804210064
128,542.3906808552199
129,542.506521511535
130,542.6242880725089
131,542.7352142441467
132,542.8305755167984
133,542.902124976776
134,542.9425575660907
135,542.945965862216
136,542.9082448956374
137,542.8274147859557
138,542.703839745815
139,542.5403213122555
140,542.342039234746
141,542.1163187316606
142,541.8722250524111
143,541.6200144275982
144,541.3704849205983
145,541.1342703620141
146,540.9211223476651
147,540.7392327365015
148,540.5946493330566
149,540.4908316535681
150,540.4283945667138
151,540.4050851469294
152,540.4160077716576
153,540.4540594670008
154,540.5104979425633
155,540.5755656287799
156,540.6391313887203
157,540.6913579589659
158,540.7234140965021
159,540.7282055489454
160,540.7010338117036
161,540.6400653640338
162,540.5465249778179
163,540.4245836945917
164,540.2809610924035
165,540.1242947034198
166,539.964354144396
167,539.8111936162387
168,539.6743310910616
169,539.562011309096
170,539.4805766911429
171,539.4339672903454
172,539.4233962637828
173,539.4472637351572
174,539.5013498048687
175,539.5792745204142
176,539.6731572055962
177,539.7743738575324
178,539.8743127858869
179,539.9650596654606
180,540.0399755361871
181,540.0941425687415
182,540.1246520647479
183,540.1307166393352
184,540.1136044666714
185,540.0764119997009
186,540.0237125715113
187,539.9611328930727
188,539.894904674395
189,539.8314211203084
190,539.7768165473739
191,539.736584519892
192,539.7152455321955
193,539.716069119706
194,539.740855025624
195,539.7897858968337
196,539.8613793822708
197,539.9525834178507
198,540.0590530195225
199,540.1756050226686
200,540.2967850546011
201,540.417431675549
202,540.5331106659202
203,540.6403261567264
204,540.7364843166448
205,540.8196627862683
206,540.8882960170797
207,540.9409052786525
208,540.9759790627429
209,540.9920561488702
210,540.9879997911022
211,540.9633945382158
212,540.9189577909267
213,540.8568459683594
214,540.7807558607706
215,540.6957689219334
216,540.6079448225912
217,540.5237257859612
218,540.4492513723719
219,540.3896931427819
220,540.3486992497833
221,540.3280041141331
222,540.3272290605227
223,540.3438904145429
224,540.3736351117539
225,540.410714696
226,540.4486685104476
227,540.4811285076759
228,540.5026173689095
229,540.5092135199842
230,540.498990695785
231,540.4721795507596
232,540.4310381437409
233,540.3794649410153
234,540.3224322310365
235,540.2653357789663
236,540.2133442521775
237,540.1708092127392
238,540.1407820376041
239,540.124683336663
240,540.1221757862531
241,540.1312859501811
242,540.148793216243
243,540.17085954346
244,540.1938237351275
245,540.2150346884097
246,540.2335577662622
247,540.2505796116906
248,540.2693853176194
249,540.2948822783266
250,540.3327507996671
251,540.388371167497
252,540.4657119497335
253,540.5663809250934
254,540.6890289642224
255,540.8292402861782
256,540.9799471436471
257,541.1323011359432
258,541.2768410730941
259,541.4047354277943
260,541.5088670106952
261,541.5845847428046
262,541.6300526965462
263,541.6462243817948
264,541.6365185954995
265,541.6062789461945
266,541.5620937069224
267,541.5110534510927
268,541.4600296972824
269,541.4150600210886
270,541.3809159224833
271,541.3609047607
272,541.356914073018
273,541.3696527878028
274,541.3990034590895
275,541.444394622399
276,541.5051271132274
277,541.5806167075159
278,541.6705279209997
279,541.7747738940112
280,541.8933677225124
281,542.026145810872
282,542.172430600639
283,542.3307331096632
284,542.4985967050026
285,542.6726436321991
286,542.8488171335523
287,543.0227500044388
288,543.1901638089977
289,543.3472140884157
290,543.4907340873725
291,543.6183750633245
292,543.7286726151672
293,543.8210726352658
294,543.8959352780464
295,543.9545172631131
296,543.9989175264337
297,544.0319586933795
298,544.0569792198024
299,544.0775395746468
300,544.0970850640269
301,544.1186308306585
302,544.1445347984885
303,544.1764088526148
304,544.2151860446415
305,544.2613136852597
306,544.3150001075905
307,544.376431857235
308,544.4459035850649
309,544.5238496187943
310,544.6108077765108
311,544.7073573337345
312,544.8140503666637
313,544.9313245281359
314,545.0593751342273
315,545.1979791356753
316,545.3462865843159
317,545.5026155255518
318,545.6643051448746
319,545.827695272115
320,545.9882891707921
321,546.1411085599345
322,546.2811841772451
323,546.4040827856977
324,546.506376539014
325,546.5859979609822
326,546.6424588198952
327,546.6769258869177
328,546.6921484803945
329,546.6922365090163
330,546.6823013629438
331,546.6679946918398
332,546.6550024292758
333,546.6485593107514
334,546.6530358058852
335,546.6716250674216
336,546.7061402054113
337,546.7569267126813
338,546.8228921477202
339,546.9016514038618
340,546.9897836709167
341,547.0831913159093
342,547.17753427192
343,547.2686929630723
344,547.3532029291104
345,547.4286114887698
346,547.4937252909158
347,547.5487343503979
348,547.5952021766586
349,547.6359053495744
350,547.6745049108233
351,547.7150514993614
352,547.7613692427454
353,547.8164158945307
354,547.8817485236839
355,547.9572059629796
356,548.040854652424
357,548.1291751549574
358,548.2174297501899
359,548.3001464419066
360,548.3716615016026
361,548.4266697936845
362,548.4607361870133
363,548.4707211445187
364,548.4550735546599
365,548.4139531899374
366,548.3491684046693
367,548.2639462156801
368,548.1625812633794
369,548.0500289529905
370,547.9315101116814
371,547.8121773240994
372,547.6968638904742
373,547.5899083785544
374,547.4950287676094
375,547.4152092094672
376,547.3525586530137
377,547.3081132183536
378,547.2815960751827
379,547.2712111855886
380,547.2735918318119
381,547.284012845208
382,547.2969034884347
383,547.3065982517585
384,547.3081802307888
385,547.2982391126037
386,547.2753867435532
387,547.2404273752124
388,547.1961477315427
389,547.1467669921348
390,547.0971595534651
391,547.0520112359767
392,547.0150691892919
393,546.9885998037553
394,546.9731087738892
395,546.9673315013546
396,546.9684742147695
397,546.9726677296464
398,546.9755764058424
399,546.9730751690892
400,546.9618752075659
401,546.9399738746283
402,546.9068439776721
403,546.8633423938455
404,546.8113767900692
405,546.753412487896
406,546.6919323296606
407,546.6289730028693
408,546.5658386359067
409,546.5030398772216
410,546.4404449473477
411,546.3775806776504
412,546.3139996613394
413,546.2496358033536
414,546.1850937211784
415,546.1218410654952
416,546.0622878646693
417,546.0097443351661
418,545.9682500895664
419,545.9422656049994
420,545.9362212029537
421,545.9539422361814
422,545.9980118335105
423,546.069177086207
424,546.1659252277733
425,546.284335232161
426,546.4182536715103
427,546.5597815098844
428,546.7000156511135
429,546.8299612900415
430,546.9415023027292
431,547.0282920204908
432,547.0864304470833
433,547.1148375542351
434,547.1152951819735
435,547.0921819523945
436,547.0519569030098
437,547.0024655828478
438,546.9521498774302
439,546.9092382394341
440,546.8809801022775
441,546.8729713108858
442,546.8886001462378
443,546.9286384207109
444,546.9910189695906
445,547.0708637768045
446,547.1608233865938
447,547.2517418792702
448,547.3335881217464
449,547.3965278988748
450,547.4319830178032
451,547.4335422921644
452,547.3976385719395
453,547.323950030629
454,547.2154997604513
455,547.0784289439043
456,546.9214355823773
457,546.7549139936053
458,546.589884052433
459,546.4368387932223
460,546.3046533271946
461,546.1996921829141
462,546.1252281754473
463,546.0812375042307
464,546.0645719164227
465,546.0694579673292
466,546.0882521529189
467,546.1123768828375
468,546.1333535354815
469,546.1438240298636
470,546.1384214033461
471,546.114341724707
472,546.0715111586862
473,546.0123312149921
474,545.9410866212268
475,545.8631676582271
476,545.7842673466157
477,545.7096733130709
478,545.6437128095242
479,545.58935280344
480,545.5479233058164
481,545.5189326926671
482,545.4999779659828
483,545.4868006797037
484,545.4735651886225
485,545.4534110884763
486,545.4192609052469
487,545.3647845830188
488,545.2853697198891
489,545.1789301542763
490,545.0464016750811
491,544.8918242401307
492,544.7219920859278
493,544.5457401438564
494,544.3729910286556
495,544.2136984617377
496,544.0768074971272
497,543.9693327865594
498,543.8956424045019
499,543.8570203153822
500,543.8515555240359
501,543.8743703188679
502,543.9181639850849
503,543.9740153542522
504,544.0323512544662
505,544.0839543189204
506,544.1208754732963
507,544.1371467364411
508,544.129245683931
509,544.0963152904023
510,544.0401643245592
511,543.9650560273728
512,543.8772639745278
513,543.7843796372991
514,543.694411741047
515,543.6147922314213
516,543.5514553716675
517,543.5081587632467
518,543.4861604735237
519,543.4842759874304
520,543.4992573131555
521,543.5263962253963
522,543.5602484155228
523,543.5953803586577
524,543.627044090961
525,543.6516935528753
526,543.6672795457689
527,543.6733002708797
528,543.6706318640663
529,543.6612045586585
530,543.6476170173182
531,543.6327880856695
532,543.6197210433013
533,543.6114014485128
534,543.610791339878
535,543.6208461013557
536,543.6444708715273
537,543.6843499283766
538,543.7426322114625
539,543.8205310380488
540,543.917952214262
541,544.0332586286631
542,544.1632206410313
543,544.3031429291309
544,544.4471374849065
545,544.5885210248267
546,544.7203212503324
547,544.835861188711
548,544.9293617154459
549,544.9964793512769
550,545.0346922285289
551,545.0434627407973
552,545.0241412412532
553,544.9796301820232
554,544.9138841569991
555,544.8313527296807
556,544.7364747092441
557,544.633314456024
558,544.5253919643927
559,544.4156966928849
560,544.3068124265562
561,544.2010538429705
562,544.1005413699762
563,544.0071984319143
564,543.9227044887618
565,543.8484516185002
566,543.7855340569317
567,543.7347727247608
568,543.6967626863545
569,543.6719324906712
570,543.6606058559543
571,543.6630485704954
572,543.679473320127
573,543.7099749276335
574,543.7543813965482
575,543.8120275697655
576,543.881486756435
577,543.9603284885745
578,544.0449924172447
579,544.1308595275964
580,544.2125546851505
581,544.2844426519551
582,544.3412168222211
583,544.3784588048655
584,544.39307196901
585,544.3835385930887
586,544.3499904390749
587,544.2941076856613
588,544.2188799181447
589,544.1282787401753
590,544.0268930827217
591,543.91956166742
592,543.811021459495
593,543.7055924404524
594,543.6069255577073
595,543.5178335170225
596,543.4402077751947
597,543.3750150457546
598,543.3223642571841
599,543.2816333048901
600,543.2516429010691
601,543.2308633848686
602,543.2176363757163
603,543.2103838179829
604,543.207767801235
605,543.2087671882526
606,543.2126580313275
607,543.2189192300318
608,543.2271165351186
609,543.2368235329543
610,543.2476066394893
611,543.2590524426893
612,543.2707877676619
613,543.2824543619253
614,543.2936354647474
615,543.3037624009038
616,543.3120409066937
617,543.3174333590617
618,543.318726075842
619,543.314701007768
620,543.3044070377483
621,543.2874898343559
622,543.2645128720203
623,543.2371969857232
624,543.2085126622128
625,543.1825763451751
626,543.1643343906251
627,543.1590529487181
628,543.1716548339303
629,543.2059706652009
630,543.2640171493966
631,543.3454521379947
632,543.447336730833
633,543.5642566517802
634,543.6887675118652
635,543.8120756882065
636,543.9248505707919
637,544.0180676770692
638,544.0837992194581
639,544.115895246515
640,544.1105194814534
641,544.0665105667351
642,543.9855427890569
643,543.8720710896627
644,543.7330559883732
645,543.577467217824
646,543.4155692047375
647,543.2580098785621
648,543.114768409344
649,542.9940630047121
650,542.9013682411572
651,542.8387203694452
652,542.8044700662335
653,542.7935638519481
654,542.7983161479074
655,542.8095172518422
656,542.8176589197951
657,542.81407565338
658,542.7918768587303
659,542.746630058054
660,542.6768036864411
661,542.5839778246195
662,542.4727957447196
663,542.3505919698321
664,542.2266429012061
665,542.1110674483133
666,542.0135178057693
667,541.9418763974022
668,541.9011823211137
669,541.8929639550792
670,541.9150805780844
671,541.962095147744
672,542.0261261445488
673,542.0980596057307
674,542.1689358290746
675,542.2312713597153
676,542.2800741605863
677,542.3133783809625
678,542.3322373220141
679,542.3402225829581
680,542.342557002303
681,542.34505738705
682,542.353086201775
683,542.3707043648396
684,542.4001685102845
685,542.4418315897603
686,542.4944150289492
687,542.5555518809626
688,542.6224595786069
689,542.6925826614671
690,542.7640562161482
691,542.8358931848627
692,542.9078847195835
693,542.9802847975833
694,543.0533943518855
695,543.1271626226365
696,543.2009003274848
697,543.2731635696847
698,543.3418252135589
699,543.4043096555147
700,543.4579375425988
701,543.5003134124614
702,543.5296906259674
703,543.5452639931066
704,543.5473660034974
705,543.5375615908705
706,543.5186359743824
707,543.4944573465459
708,543.4696914814871
709,543.4493656905541
710,543.438326273862
711,543.4406812850973
712,543.4593281210672
713,543.4956225888108
714,543.5491938168236
715,543.6178925899733
716,543.697876218756
717,543.7838477559916
718,543.8694655381156
719,543.9479239740251
720,544.0126753647281
721,544.0582130861907
722,544.0807906102812
723,544.0789446275833
724,544.0537369723454
725,544.0087008117358
726,543.9495274001264
727,543.8835427732279
728,543.8190173043099
729,543.7643523963598
730,543.7272085563898
731,543.7136677283429
732,543.7275404755062
733,543.7699213806593
734,543.8390630872009
735,543.9305885630977
736,544.0380021859556
737,544.1534078339472
738,544.2683167095473
739,544.374439203669
740,544.4643897595705
741,544.5322653571783
742,544.5740742223279
743,544.5880001116755
744,544.5745001701456
745,544.5362465488104
746,544.4779208744491
747,544.405855682997
748,544.3275066641079
749,544.2507571240427
750,544.1831055453692
751,544.1308439893804
752,544.0983650970451
753,544.0877226976396
754,544.0985254175165
755,544.1281865837685
756,544.1725038706287
757,544.2264991550288
758,544.2854048392245
759,544.3456396597177
760,544.4055949713214
761,544.4660736758183
762,544.5302877809622
763,544.6034023391892
764,544.6916893929904
765,544.801418704481
766,544.9376594680531
767,545.103188340378
768,545.2976890264135
769,545.5173934957647
770,545.7552539111193
771,546.0016388537828
772,546.2454303794548
773,546.4753069217472
774,546.6809787995112
775,546.8542008935655
776,546.9894723244862
777,547.0843895940177
778,547.139636302331
779,547.1586066738275
780,547.1467093256067
781,547.1104738818676
782,547.0566381529284
783,546.9913875833957
784,546.9198565370401
785,546.8459215415389
786,546.7722516080878
787,546.7005364705101
788,546.6317894301494
789,546.5666240247133
790,546.5054360283534
791,546.4484738323453
792,546.3958284307544
793,546.347394818021
794,546.3028444814479
795,546.2616239896112
796,546.22297878519
797,546.1859961341274
798,546.1496579082698
799,546.11289049526
800,546.0746016904873
801,546.0337034676081
802,545.9891244682418
803,545.939810798562
804,545.8847106472178
805,545.8227529776486
806,545.7528565172889
807,545.6740151982129
808,545.5854789301908
809,545.4869945556751
810,545.3790323022566
811,545.2629304513213
812,545.1409307501984
813,545.0161086800035
814,544.8922103760893
815,544.7734084542701
816,544.6639982804602
817,544.5680720811218
818,544.4892195476391
819,544.4302996198958
820,544.393302069471
821,544.3792751904275
822,544.3882629633932
823,544.4192010065236
824,544.4697669908927
825,544.5362343673181
826,544.6134034219766
827,544.6946763583414
828,544.7723194427886
829,544.8379241472342
830,544.8830370653386
831,544.8998784862996
832,544.8820361116559
833,544.8250329413336
834,544.7267262136388
835,544.5875542058671
836,544.4106610732506
837,544.201893942
838,543.9696261650145
839,543.724358417843
840,543.4780846362329
841,543.2434510039006
842,543.0327613998883
843,542.8569015265434
844,542.7242879008413
845,542.639992281648
846,542.6052073514078
847,542.6171688145237
848,542.6695406926025
849,542.7531580283709
850,542.8569635604597
851,542.9689925551528
852,543.0773216415741
853,543.1709502253476
854,543.2405974712427
855,543.2793833808918
856,543.2833430915705
857,543.2517143983971
858,543.1869480844565
859,543.0944243093271
860,542.9819090197379
861,542.8588291799243
862,542.7354629913746
863,542.6221314693495
864,542.5284576764487
865,542.4627394596957
866,542.4314584280175
867,542.4389237987384
868,542.4870355278587
869,542.575155228561
870,542.7000930460055
871,542.8562409315088
872,543.0358905638337
873,543.2297567102238
874,543.427687645181
875,543.6194990915758
876,543.7958369581479
877,543.9489701403838
878,544.0734317378792
879,544.1664443820899
880,544.2280754239483
881,544.2610899100681
882,544.2705209826099
883,544.2630390022819
884,544.2462290014947
885,544.2278647359219
886,544.2152277734882
887,544.2145021114452
888,544.2302860933345
889,544.2652816283916
890,544.3202190358566
891,544.3940382485497
892,544.4842820446768
893,544.5876008419517
894,544.7002569222776
895,544.8185491935877
896,544.9391271262651
897,545.0591918861926
898,545.176581444989
899,545.2897238942277
900,545.397457614472
901,545.4987683448562
902,545.592541035721
903,545.6774222322437
904,545.7518334241353
905,545.8141025340093
906,545.8626311331867
907,545.8960131745774
908,545.9130616168457
909,545.9127552305416
910,545.8941651045404
911,545.8564453104383
912,545.7989591342595
913,545.721554507277
914,545.6249261685523
915,545.510947713744
916,545.3828404577245
917,545.2450688104494
