acceleration,velocity,displacement
0.06261042413764394,0.0,0.0
0.057359639815567846,5.998503197660589e-05,2.9992515988302945e-08
0.052217252123322816,0.00011477347794605123,1.173717709496315e-07
0.04728365071853113,0.0001645239293669782,2.570204746061462e-07
0.04264427301039482,0.00020948789123144117,4.440263849053558e-07
0.03836431719297888,0.000249992186333128,6.737664236876405e-07
0.034485168774724566,0.0002864169293169797,9.419709815126943e-07
0.03102237229551854,0.00031917069985210126,1.2447647960972348e-06
0.027965100163448,0.0003486644360815845,1.5786823640640778e-06
0.025277259200556148,0.0003752856157635866,1.940657389986663e-06
0.022900391736138236,0.0003993744412319338,2.3279874184844235e-06
0.020758335011729467,0.00042120380460586765,2.738276541403324e-06
0.01876335080824392,0.00044096464751585437,3.1693607674641853e-06
0.01682330334665028,0.0004587579745933015,3.619222078518763e-06
0.014849422194214631,0.0004745943373637339,4.085898234497281e-06
0.012764077657544844,0.0004884010872896136,4.567395946823955e-06
0.010507813331303621,0.0005000370327840379,5.061615006860781e-06
0.008044803841313968,0.0005093133413703467,5.566290193937973e-06
0.005366076949486234,0.0005160187817657468,6.07895625550602e-06
0.0024901830596868392,0.0005199469117703334,6.59693910227406e-06
-0.000538737901005727,0.000520922634349674,7.117373875334064e-06
-0.003655463531961137,0.0005188255336331906,7.637247959325496e-06
-0.006780622143364357,0.0005136074907955278,8.153464471539856e-06
-0.009829486245136465,0.0005053024366012774,8.66291943523826e-06
-0.0127214467452166,0.0004940269701061009,9.162584138591948e-06
-0.015388581794984363,0.0004799719558360004,9.649583601562999e-06
-0.01778190929348405,0.0004633867102917662,1.0121262934626883e-05
-0.019874670233451804,0.0004445584205282983,1.0575235500036914e-05
-0.021662832064478926,0.00042378966937933293,1.100940954499073e-05
-0.023163387538173257,0.0004013765595780068,1.14219926594694e-05
-0.024410954071092852,0.00037758938877337374,1.181147563364509e-05
-0.025453026859032016,0.0003526573983083113,1.2176599027185933e-05
-0.02634422831424785,0.00032675877072167134,1.2516307111700923e-05
-0.02714003241839358,0.0003000166403553506,1.2829694817239435e-05
-0.02789069323872668,0.0002725012775267905,1.3115953776180506e-05
-0.028636341123375705,0.0002442377603457393,1.337432329511677e-05
-0.029404186709076036,0.0002152174964295134,1.3604050923504395e-05
-0.030208407256702846,0.00018541119944662397,1.3804365271442464e-05
-0.031052730647215913,0.0001547806304946646,1.3974461186413108e-05
-0.0319351358047007,0.00012328669726870627,1.4113494850294793e-05
-0.032853602079262155,9.089232832672484e-05,1.4220584363092508e-05
-0.033811680829582795,5.7559686872302365e-05,1.4294810370692021e-05
-0.034822860377554166,2.3242416268733878e-05,1.433521142226254e-05
-0.035912992179954736,-1.2125510010020574e-05,1.4340769875391895e-05
-0.03712027743500182,-4.864214481749885e-05,1.4310386047978136e-05
-0.038492569160291895,-8.64485681151457e-05,1.4242840691511814e-05
-0.04008209693060766,-0.00012573590116059547,1.4136748456873943e-05
-0.041938147410383333,-0.00016674602333109097,1.39905074946281e-05
-0.04409871910077968,-0.00020976445658667248,1.3802252254669218e-05
-0.046582617520469896,-0.00025510512489729725,1.3569817463927233e-05
-0.04938365027840078,-0.0003030882587967326,1.3290720772080217e-05
-0.05246835014282535,-0.00035401425900734567,1.2962169513178178e-05
-0.05577797588397356,-0.0004081374220207451,1.2581093672664134e-05
-0.05923456685833917,-0.0004656436933919015,1.214420311495781e-05
-0.0627498733349095,-0.0005266359134885258,1.1648063311517596e-05
-0.06623535746641498,-0.0005911285288891881,1.1089181090328739e-05
-0.06961130469277199,-0.0006590518599687816,1.0464090895899755e-05
-0.07281341260153187,-0.0007302642186159335,9.769432856607397e-06
-0.07579594482972529,-0.0008045688973315621,9.00201629863365e-06
-0.07853145799467309,-0.0008817325987437613,8.158865550595988e-06
-0.08100795654917231,-0.000961502306015684,7.237248098216266e-06
-0.08322481211386584,-0.001043618690347203,6.234687600034822e-06
-0.08518872590436954,-0.0011278254593563208,5.14896552518306e-06
-0.08691049192746259,-0.001213875068272237,3.9781152613687815e-06
-0.08840265789123862,-0.0013015316431815875,2.7204119056418694e-06
-0.08967779194295633,-0.001390571868098685,1.3743601500017332e-06
-0.09074714713098035,-0.0014807843376356533,-6.131795286543585e-08
-0.09161984519972664,-0.0015719678338010068,-1.587694038583766e-06
-0.09230286368797616,-0.0016639291882448583,-3.2056425496066987e-06
-0.09280197363709664,-0.0017564816069073946,-4.915847947182825e-06
-0.09312350876067216,-0.001849444348106279,-6.718810924689662e-06
-0.09327657884614271,-0.0019426443919096864,-8.614855294697644e-06
-0.09327512480854314,-0.0020359202437370293,-1.0604137612521004e-05
-0.09313918651083283,-0.0021291273993967173,-1.2686661434087877e-05
-0.09289497819741159,-0.0022221444817508394,-1.4862297374661655e-05
-0.09257370289198534,-0.002314878822295538,-1.7130809026684845e-05
-0.09220937747177964,-0.0024072703624774205,-1.9491883619071325e-05
-0.09183627205587962,-0.00249929318724125,-2.1945165393930662e-05
-0.09148677324739014,-0.002590954709892885,-2.449028934249773e-05
-0.091190350882028,-0.002682293271957594,-2.7126913333422968e-05
-0.09097376038827748,-0.002773375327592747,-2.9854747633198137e-05
-0.09086186165222043,-0.002864293138612996,-3.267358186630101e-05
-0.09087800530818033,-0.0029551630720931962,-3.5583309971654106e-05
-0.09104323881540206,-0.0030461236941549874,-3.85839533547782e-05
-0.09137434010496544,-0.003137332483615171,-4.167568144366328e-05
-0.09188121894506769,-0.0032289602631401875,-4.485882781704096e-05
-0.0925643205155258,-0.0033211830328704842,-4.8133899465046296e-05
-0.09341263122848707,-0.0034141715087424905,-5.150157673585278e-05
-0.0944028925575621,-0.003508079270635515,-5.496270212554178e-05
-0.0955004827650715,-0.0036030309582968318,-5.851825724000796e-05
-0.09666199357861674,-0.003699112196468676,-6.216932881739071e-05
-0.09783901809214547,-0.003796362702304057,-6.591706626677707e-05
-0.0989823691160004,-0.00389477339590813,-6.976263431588317e-05
-0.10004592700604706,-0.003994287543969154,-7.370716478582182e-05
-0.10098952903288629,-0.00409480527198862,-7.77517111938007e-05
-0.10178076139523058,-0.0041961904172026785,-8.189720903839635e-05
-0.10239606426127731,-0.004298278830030932,-8.614444366201315e-05
-0.10282181587150074,-0.004400887770097321,-9.049402696207728e-05
-0.10305569705462764,-0.004503826526560385,-9.494638411040614e-05
-0.10310784680568762,-0.004606908298490543,-9.950175152293161e-05
-0.10300077647875505,-0.0047099626101327645,-0.00010416018697724326
-0.10276725555618174,-0.004812846626150233,-0.00010892159159538476
-0.10244630666236856,-0.004915453407259508,-0.00011378574161208963
-0.10207839391335823,-0.005017715757547372,-0.00011875232619449308
-0.10170118426836514,-0.005119605546638234,-0.00012382098684658588
-0.10134673937743453,-0.005221129508461134,-0.00012899135437413557
-0.10104012910860113,-0.005322322942704152,-0.00013426308059971822
-0.1007988998459837,-0.005423242457181444,-0.00013963586329966102
-0.10063279082968317,-0.005523958302519277,-0.00014510946367951138
-0.10054331918407086,-0.005624546357526154,-0.0001506837160095341
-0.1005231169687041,-0.005725079575602541,-0.00015635852897609843
-0.10055521727881869,-0.005825618742726303,-0.00016213387813526287
-0.10061289315975547,-0.00592620279794559,-0.0001680097889055988
-0.10066095026228564,-0.00602683971965661,-0.0001739863101643999
-0.10065917746180093,-0.006127499783518653,-0.00018006347991598754
-0.100567820637921,-0.006228113282568514,-0.00018624128644903113
-0.1003538655771537,-0.006328574125676051,-0.00019251963015315342
-0.09999632159007188,-0.006428749219259664,-0.00019889829182562126
-0.09948902421316258,-0.0065284918921612815,-0.00020537691238133173
-0.0988404583148176,-0.0066276566334252714,-0.000211954986644125
-0.09807104139705962,-0.00672611238328121,-0.00021863187115247825
-0.09720878296671391,-0.0068237522954630965,-0.0002254068034918504
-0.09628437174636198,-0.006920498872819634,-0.00023227892907599177
-0.0953267198269551,-0.007016304418606293,-0.00023924733072170474
-0.09435973107269156,-0.0071111476440561166,-0.00024631105675303595
-0.09340053157855491,-0.00720502777538174,-0.0002534691444627549
-0.09245887004991364,-0.007297957476195974,-0.00026072063708854374
-0.09153716199787738,-0.007389955492219869,-0.00026806459357275165
-0.09063076076828666,-0.007481039453602951,-0.00027550009104566306
-0.08972833706463115,-0.007571219002519411,-0.00028302622027372425
-0.08881252599899501,-0.007660489434051223,-0.0002906420744920096
-0.08786109087529939,-0.007748826242488371,-0.0002983467323302794
-0.0868487156739271,-0.007836181145762984,-0.0003061392360244051
-0.0857492706213471,-0.007922480138910622,-0.00031401856666674185
-0.08453818543599174,-0.008007623866939291,-0.0003219836186696668
-0.08319458478528803,-0.008091490252049931,-0.0003300331757291614
-0.08170308712578231,-0.008173939088005466,-0.0003381658903991891
-0.08005543743492977,-0.008254818350285822,-0.00034638026911833474
-0.07825221912453789,-0.008333972178565555,-0.0003546746643827604
-0.07630473004466418,-0.008411250653150156,-0.0003630472757986183
-0.07423681093851439,-0.008486521423641745,-0.00037149616183701424
-0.07208608684947337,-0.008559682872535739,-0.000380019263985103
-0.0699038827525801,-0.008630677857336766,-0.0003886144443500392
-0.06775322792781087,-0.008699506412676961,-0.00039727953648504606
-0.06570488688213175,-0.008766235470081932,-0.0004060124074264255
-0.06383194914749912,-0.008831003888096748,-0.0004148110271055149
-0.062203831195188054,-0.00889402177826809,-0.00042367353993869733
-0.0608804684056254,-0.008955563928068497,-0.00043259833279186565
-0.0599071819490957,-0.009015957753245858,-0.0004415840936325228
-0.05931052703451233,-0.009075566607737662,-0.00045062985581301456
-0.05909550607434749,-0.009134769624292093,-0.00045973502392902945
-0.05924466194097455,-0.009193939708299754,-0.0004688993785953254
-0.05971944376307235,-0.009253421761151777,-0.00047812305933005113
-0.060463767912197854,-0.009313513366989412,-0.0004874065268941217
-0.061409138425906944,-0.009374449820158464,-0.0004967505084876956
-0.06248041889023573,-0.009436394598816535,-0.0005061559306971832
-0.06360143742069126,-0.009499435526972,-0.0005156238457600774
-0.0646998266551909,-0.009563586159009941,-0.0005251553566030684
-0.0657106924213714,-0.009628791418548223,-0.0005347515453918474
-0.06657892103333221,-0.009694936225275575,-0.0005444134092137593
-0.06726023635986009,-0.009761855803972172,-0.0005541418052283832
-0.06772141670930697,-0.009829346630506755,-0.0005639374064456226
-0.06794023141583631,-0.009897177454569327,-0.0005738006684881606
-0.0679056097875445,-0.009965100375171017,-0.0005837318074030308
-0.06761832552203371,-0.010032862342825806,-0.0005937307887620292
-0.06709206425199311,-0.010100217537712819,-0.0006037973287022986
-0.06635428346506346,-0.010166940711571346,-0.0006139309078269406
-0.06544610090784639,-0.010232840903757801,-0.0006241307986346051
-0.06442069900590598,-0.010297774303714678,-0.0006343961062383414
-0.06334015701004148,-0.010361654731722651,-0.0006447258207560601
-0.06227084932888516,-0.010424460234892114,-0.0006551188782393675
-0.06127744486008619,-0.0104862343819866,-0.0006655742255478068
-0.06041539368525373,-0.010547080801259271,-0.0006760908831394297
-0.059722088503956425,-0.010607149542353877,-0.0006866679983112363
-0.05920775441285501,-0.010666614463812283,-0.0006973048803143193
-0.05884804344281655,-0.01072564236274012,-0.0007080010087275956
-0.05858062527996804,-0.010784356697101512,-0.0007187560082575164
-0.05830752449129044,-0.01084280077198714,-0.0007295695869920608
-0.05790381211111073,-0.01090090644028834,-0.0007404414405981985
-0.057231946854916824,-0.010958474319771355,-0.0007513711309782284
-0.05615988645739416,-0.01101517023642751,-0.0007623579532563278
-0.054580219788320304,-0.011070540289550368,-0.0007734008085193168
-0.052427109084308615,-0.011124043953986683,-0.0007844981006410853
-0.04968786187456602,-0.011175101439466121,-0.0007956476733378117
-0.04640662934455778,-0.011223148685075682,-0.0008068467984000827
-0.04267919107005286,-0.011267691595282988,-0.000818092218540262
-0.03863976138570787,-0.011308351071510868,-0.0008293802398736589
-0.03444248413781805,-0.011344892194272631,-0.0008407068615065507
-0.030241142801755626,-0.011377234007742418,-0.0008520679246075581
-0.026170584998603783,-0.011405439871642598,-0.0008634592615472507
-0.02233274144958301,-0.011429691534866691,-0.0008748768272505053
-0.018789069010212822,-0.011450252440096589,-0.0008863167992379869
-0.015559888626489288,-0.01146742691891494,-0.0008977756389174927
-0.012629735269155066,-0.011481521730862762,-0.0009092501132423815
-0.009956832281755312,-0.011492815014638218,-0.000920737281615132
-0.007484367875663307,-0.011501535614716927,-0.0009322344569298095
-0.005151497849534421,-0.011507853547579525,-0.0009437391515109577
-0.002902741558622674,-0.011511880667283604,-0.0009552490186183893
-0.0006951417093680806,-0.0115136796089176,-0.0009667617987564899
0.001497161189569445,-0.0115132785991775,-0.0009782752778605373
0.003681247172613181,-0.011510689394996408,-0.0009897872618576243
0.0058467094878717745,-0.011505925416666165,-0.0010012955692634557
0.007969523690242944,-0.011499017300077108,-0.0010127980406218274
0.010017670292925421,-0.011490023703085524,-0.0010242925611234088
0.011957543728936983,-0.011479036096074592,-0.001035777091022989
0.013760260480977348,-0.011466177193969635,-0.0010472496976680111
0.015407144497923714,-0.011451593491480184,-0.001058708583010736
0.01689383355506126,-0.011435443002453692,-0.001070152101257703
0.018232580495414916,-0.011417879795428453,-0.001081578762656644
0.01945245801447054,-0.01139903727617351,-0.001092987221192445
0.020597390210448062,-0.011379012352061051,-0.0011043762460065621
0.021722207249696347,-0.01135785255333098,-0.001115744678459258
0.022887138211119887,-0.011335547880600571,-0.0011270913786762238
0.024151274378670037,-0.011312028674305676,-0.001138415166953677
0.025565618893611454,-0.011287170227669535,-0.0011497147664046646
0.027166452122342075,-0.011260804192161558,-0.0011609887536145802
0.028969838189191598,-0.011232736047005792,-0.0011722355237341639
0.03096806907026394,-0.011202767093376064,-0.0011834532753043547
0.033128666456941624,-0.011170718725612462,-0.001194640018213849
0.03539628682264857,-0.011136456248972667,-0.0012057936057011415
0.0376974869593326,-0.011099909362081675,-0.0012169117885066686
0.039947832323436176,-0.011061086702440291,-0.0012279922865389295
0.042060470185662266,-0.011020082551185742,-0.0012390328711657426
0.04395517597807658,-0.010977074728103872,-0.0012500314498053874
0.04556688112990178,-0.010932313699549882,-0.0012609861440192143
0.04685268543737608,-0.010886103916266243,-0.0012718953528271224
0.047796491986553134,-0.010838779327554279,-0.0012827577944490326
0.04841081068079728,-0.010790675676220603,-0.00129357252195092
0.04873573374861957,-0.010742102404005895,-0.0013043389109910332
0.04883528158792399,-0.010693316896337624,-0.0013150566206412049
0.04879134059250415,-0.01064450358524741,-0.0013257255308819975
0.048695561516709104,-0.010595760134192802,-0.0013363456627417175
0.048639839874389475,-0.010547092433497253,-0.0013469170890255625
0.04870616446989555,-0.010498419431325111,-0.0013574398449579736
0.04895673868503034,-0.010449587979747649,-0.00136791384866351
0.0494254893637747,-0.010400396865723246,-0.0013783388410862456
0.05011226510471226,-0.010350627988489002,-0.0013887143535133517
0.05098091988310052,-0.010300081395995095,-0.0013990397082055937
0.0519619654593423,-0.010248609953323874,-0.0014093140538802532
0.05295963823605083,-0.010196149151476177,-0.0014195364334326532
0.05386227661489457,-0.010142738194050704,-0.0014297058771054166
0.05455423484884064,-0.010088529938318836,-0.0014398215111716013
0.05492753095510712,-0.010033789055416863,-0.001449882670668469
0.054891975151150074,-0.009978879302363734,-0.0014598890048473593
0.054383232646348915,-0.009924241698464984,-0.0014698405653477736
0.05336879358429778,-0.009870365685349661,-0.001479737869039681
0.05185200454930624,-0.00981775528628286,-0.0014895819295254972
0.04987412554016723,-0.009766892221238123,-0.0014993742532792577
0.04751397764768776,-0.009718198169644195,-0.001509116798474699
0.044884503303739054,-0.009671998929168481,-0.0015188118970241053
0.04212571725314044,-0.009628493818890041,-0.0015284621433981345
0.03939402920883448,-0.009587733945659054,-0.001538070257280409
0.03684863003063559,-0.00954961261603932,-0.0015476389305612583
0.03463643561005574,-0.009513870083218974,-0.0015571706719108875
0.03287771954027528,-0.009480113005643808,-0.0015666676634553188
0.031654661595758096,-0.009447846815075791,-0.0015761316433656786
0.031004424724646127,-0.009416517271915588,-0.0015855638254091743
0.030917335326403228,-0.009385556391890064,-0.001594964862241077
0.03133983671791408,-0.009354427805867906,-0.001604334854339956
0.03218142659219535,-0.00932266717421285,-0.0016136734018299963
0.033324617686367866,-0.009289914152073569,-0.0016229796924931395
0.03463679214288634,-0.009255933447158941,-0.0016322526162927558
0.03598261946984803,-0.009220623741352574,-0.0016414908948870115
0.037235618828089866,-0.009184014622203605,-0.0016506932140687896
0.038287560837826154,-0.009146253032370648,-0.0016598583478960767
0.039054754305361386,-0.009107581874799054,-0.0016689852653496615
0.039480862742725026,-0.00906831406627501,-0.0016780732133201985
0.039536636333336046,-0.00902880531673698,-0.0016871217730117045
0.039217527067401926,-0.00898942823503661,-0.0016961308897875914
0.03854026122969082,-0.008950549340888065,-0.0017051008785755536
0.03753905138856665,-0.008912509684578936,-0.0017140324080882872
0.03626156719518206,-0.008875609375287061,-0.0017229264676182202
0.034764461044965285,-0.008840096361166987,-0.0017317843204864474
0.03310840414000139,-0.008806159928574505,-0.0017406074486313182
0.03135313277925998,-0.008773929160114874,-0.0017493974931756628
0.029553439910673003,-0.008743475873769908,-0.0017581561956926052
0.027756892121212146,-0.008714820707753965,-0.0017668853439833671
0.026003371775285066,-0.008687940575805716,-0.001775586724625147
0.02432583561486246,-0.008662775972110641,-0.0017842620828991051
0.022751342022223106,-0.008639237383292099,-0.0017929130895768064
0.021301491342691714,-0.008617210966609641,-0.0018015413137517573
0.01999182363692442,-0.008596564309119833,-0.001810148201389622
0.01883031842687179,-0.008577153238087935,-0.0018187350601632259
0.017815798932864398,-0.008558830179408066,-0.001827303051871974
0.016937402781757892,-0.008541453578550755,-0.0018358531937509534
0.01617599885635443,-0.008524896877731699,-0.0018443863689790946
0.01550764770245034,-0.008509055054452297,-0.0018529033449451867
0.014908438629535514,-0.008493847011286304,-0.001861404795978056
0.014359615587581769,-0.008479212984177746,-0.0018698913259757879
0.013851839325503938,-0.008465107256721203,-0.0018783634860962373
0.013387703923411086,-0.008451487485096745,-0.0018868217834671463
0.012982130620046654,-0.008438302567825016,-0.0018952666784936073
0.012660669404887075,-0.008425481167812549,-0.001903698570361426
0.012455841433697361,-0.008412922912393256,-0.0019121177724015289
0.012401724048457062,-0.00840049412965218,-0.0019205244809225516
0.01252736091328577,-0.008388029587171308,-0.0019289187427809634
0.012850133108572536,-0.008375340840160379,-0.0019373004279946292
0.01337053911794024,-0.008362230504047122,-0.0019456692136667329
0.014069716245440546,-0.008348510376365432,-0.001954024584106939
0.014910503407807406,-0.008334020266538808,-0.001962365849428391
0.015841959633628732,-0.00831864403501809,-0.0019706921815791697
0.016806331283983268,-0.008302319889559283,-0.0019790026635414584
0.0177469923064789,-0.008285043227764051,-0.0019872963451001203
