frame_number,force
0,612.2659900000398
1,612.175397150834
2,612.0836627983313
3,611.9899752156894
4,611.8941624369215
5,611.7969415534004
6,611.700046211405
7,611.6061759225272
8,611.5187456848208
9,611.4414648423451
10,611.3778192076594
11,611.3305540409475
12,611.3012521986758
13,611.2900793860313
14,611.2957394259284
15,611.3156501702472
16,611.3463112475933
17,611.3837941974314
18,611.4242600827349
19,611.4644065092598
20,611.5017586062809
21,611.5347437001909
22,611.5625330192038
23,611.5846967920601
24,611.6007847246997
25,611.6099823687085
26,611.6109832407468
27,611.6021567976999
28,611.5820016508802
29,611.5497787688572
30,611.5061494536783
31,611.4536181755057
32,611.396611428224
33,611.341111571687
34,611.2938889683605
35,611.2614921697492
36,611.2492191110443
37,611.2602814743561
38,611.295302458607
39,611.3521964887763
40,611.4264113976573
41,611.5114789940046
42,611.5997946751967
43,611.6835145254413
44,611.7554340031043
45,611.8097190883169
46,611.842400985105
47,611.8516003471095
48,611.83749682877
49,611.8020960870628
50,611.7488648468625
51,611.6823005384266
52,611.6074795045121
53,611.5296025531075
54,611.4535454951618
55,611.3834348931048
56,611.3223009934343
57,611.2718840808931
58,611.2326535587378
59,611.2040394907389
60,611.1848119122493
61,611.1735061417963
62,611.1687854550711
63,611.1696549002023
64,611.175494226691
65,611.1859443334974
66,611.2007230095295
67,611.2194432879579
68,611.2414740532553
69,611.2658426381247
70,611.291154537195
71,611.3155106690892
72,611.3364376719951
73,611.3508875243084
74,611.3553765716201
75,611.3463073486085
76,611.3204564080869
77,611.2755342759143
78,611.2106650943215
79,611.1266385004442
80,611.0258625797328
81,610.9120499425994
82,610.7897459594323
83,610.6638339501285
84,610.5391256746716
85,610.4200821061968
86,610.3106456967384
87,610.214140805336
88,610.1332183695089
89,610.0698498975801
90,610.0253778853129
91,610.0006012283992
92,609.9958459901111
93,610.0109747578892
94,610.0453216898742
95,610.0975836534983
96,610.1657299477071
97,610.2470006730697
98,610.338044257079
99,610.4352067111032
100,610.5349397534412
101,610.6342512226947
102,610.7310923044752
103,610.8245771218611
104,610.9149659492364
105,611.0033999547678
106,611.0914307495941
107,611.1804304992783
108,611.2709992980423
109,611.3625036803754
110,611.4528689256281
111,611.5386953380585
112,611.615684010258
113,611.6792732715503
114,611.7253405235834
115,611.7508350650681
116,611.7542628362281
117,611.736002801576
118,611.6984588207716
119,611.6460378092354
120,611.5849254076066
121,611.52263481065
122,611.4673396353998
123,611.427054863837
124,611.4087791020296
125,611.4177309178416
126,611.456786605966
127,611.5261677256392
128,611.623364909049
129,611.7432501786399
130,611.8783402784701
131,612.0192180954854
132,612.1551570297836
133,612.2749818500098
134,612.3681338967291
135,612.4258211735759
136,612.4420657891264
137,612.4144419596048
138,612.3443425271513
139,612.2367143326197
140,612.0993269386247
141,611.9417327926216
142,611.7741080121561
143,611.6061462469858
144,611.4461501160368
145,611.3004353503187
146,611.1731145486211
147,611.0662562081352
148,610.9803381250778
149,610.9148492531814
150,610.8688585085829
151,610.841390100168
152,610.8315292558584
153,610.8382897471703
154,610.8603504160629
155,610.8957877834007
156,610.9419074177478
157,610.9952330696394
158,611.0516689025848
159,611.1068125993265
160,611.1563642270771
161,611.1965533556602
162,611.2245117830894
163,611.238556633702
164,611.2383912275801
165,611.2252381803307
166,611.2018820842059
167,611.1725569745945
168,611.1426159051163
169,611.1179769546244
170,611.1044162458842
171,611.1068283784701
172,611.1285789485538
173,611.171042178835
174,611.2333690941155
175,611.3124908007403
176,611.4033458045487
177,611.4993238337645
178,611.592912165682
179,611.6764992816384
180,611.7432512338733
181,611.7879494584048
182,611.8076718321843
183,611.8022110146624
184,611.7741515382262
185,611.7285674591016
186,611.672362273225
187,611.613349386393
188,611.5592327100363
189,611.5166566124847
190,611.490452120624
191,611.4831468482805
192,611.4947607928721
193,611.5228805281454
194,611.56297957989
195,611.6089336111077
196,611.6536704285156
197,611.689892145211
198,611.710803512963
199,611.7107765993115
200,611.6858812142808
201,611.6342190663134
202,611.5560257658187
203,611.4535485994585
204,611.330752498086
205,611.1929246916665
206,611.0462292751481
207,610.8972304543614
208,610.7523929055284
209,610.6175865851052
210,610.4976502917515
211,610.3960810570421
212,610.3149040323815
213,610.2547385037163
214,610.2150208475314
215,610.1943007141115
216,610.1905220527719
217,610.2012437900282
218,610.2238168780741
219,610.2555657844877
220,610.2939987120831
221,610.3370188428248
222,610.3830776018337
223,610.4312220600978
224,610.4810290065004
225,610.5324631070732
226,610.5857227881885
227,610.6411313008466
228,610.6990984747893
229,610.7601420176761
230,610.8249302956556
231,610.89429439694
232,610.9691611331175
233,611.050388571045
234,611.1385336687014
235,611.2336168366941
236,611.3349458093378
237,611.441035092406
238,611.5496436044576
239,611.6579548577398
240,611.762903814073
241,611.8615991034097
242,611.9517423153347
243,612.0319516160168
244,612.1019437064853
245,612.1625729516052
246,612.2157445714653
247,612.2642147002396
248,612.3112833545582
249,612.3603967186577
250,612.4147043159799
251,612.4766415227471
252,612.5476070929194
253,612.6277844387405
254,612.716132177695
255,612.8105479974411
256,612.9081835395599
257,613.0058571670085
258,613.100484496299
259,613.1894314496719
260,613.2707031754094
261,613.342928447118
262,613.4051746831922
263,613.4566939056899
264,613.4967151660868
265,613.5243584884311
266,613.5386809681961
267,613.5388213897975
268,613.5242059263912
269,613.4947964322203
270,613.4513697881688
271,613.3957932601442
272,613.3312237197189
273,613.2621450413085
274,613.194185689697
275,613.1337102456642
276,613.0872276851161
277,613.0606935815226
278,613.0588031131872
279,613.0843763904552
280,613.1379239343337
281,613.2174511846492
282,613.3185304658607
283,613.4346474465809
284,613.5578071744229
285,613.6793445405577
286,613.7908310848628
287,613.8849351723032
288,613.9560994297962
289,614.000944722308
290,614.01837369206
291,614.0094050229092
292,613.9768020421241
293,613.924563862452
294,613.8573449998985
295,613.7798794597104
296,613.6964960707003
297,613.6107931352292
298,613.5254875150713
299,613.4424017028741
300,613.3625372307525
301,613.2861979554112
302,613.2131423960035
303,613.1427473928903
304,613.0741634156633
305,613.0064429085845
306,612.938632790077
307,612.8698440476531
308,612.799333554493
309,612.7266317020822
310,612.6517149475544
311,612.5751749575836
312,612.4983064558845
313,612.4230393690689
314,612.3516727261557
315,612.2864158298446
316,612.2287958611108
317,612.1790418328816
318,612.1355899812925
319,612.0948547991253
320,612.0513613804867
321,611.998253961039
322,611.9281102469319
323,611.8339199482517
324,611.7100470078215
325,611.553010039311
326,611.3619815633266
327,611.1389853403363
328,610.8888233751445
329,610.6187824395687
330,610.3381703855864
331,610.0577297567972
332,609.7889733134492
333,609.5434823303414
334,609.332205958036
335,609.1647978205679
336,609.0490191789612
337,608.9902303274815
338,608.9909952537065
339,609.0508327772134
340,609.1661393911742
341,609.3302885014414
342,609.533904634268
343,609.7653216668083
344,610.011231520501
345,610.2575003133153
346,610.4900964151757
347,610.6960647787087
348,610.8644873155998
349,610.987364762654
350,611.0603357365617
351,611.083132749675
352,611.0596802126153
353,610.9977702603746
354,610.9083091508129
355,610.8042045387803
356,610.6990423188745
357,610.6057526181078
358,610.5354652297319
359,610.4966997860965
360,610.4949428533199
361,610.5325701003005
362,610.6090156876965
363,610.7210898297901
364,610.8633872347499
365,611.0287846815373
366,611.2090565819036
367,611.3956100426184
368,611.580265781934
369,611.7559498611913
370,611.9171679709146
371,612.0602006594871
372,612.1830377372318
373,612.2851321451403
374,612.3670856453864
375,612.4303678866311
376,612.4771165382765
377,612.510000840017
378,612.5320977987557
379,612.5467437879997
380,612.5573580526192
381,612.5672556649786
382,612.5794673262272
383,612.5965709678059
384,612.6205278681482
385,612.6525158389737
386,612.6927653622583
387,612.7404222252139
388,612.79347794711
389,612.8488243113957
390,612.902482771812
391,612.9500168422406
392,612.9870732068119
393,613.0099543821035
394,613.016119034175
395,613.0045210465668
396,612.9757206042037
397,612.9317332874388
398,612.8756341450621
399,612.8109955421445
400,612.7412839823694
401,612.669343141714
402,612.5970450549393
403,612.5251312780424
404,612.453228284483
405,612.3800131407862
406,612.3035053814443
407,612.2214500311514
408,612.131737828643
409,612.0327971350706
410,611.923896923167
411,611.8053233204623
412,611.6784300602562
413,611.5455965504037
414,611.410126770389
415,611.2760873658921
416,611.1480557763722
417,611.030764046208
418,610.9286684906655
419,610.8455144456376
420,610.7839782988211
421,610.7454499439003
422,610.7299747649289
423,610.7363317760478
424,610.7622103174829
425,610.8044598047644
426,610.8593979692521
427,610.9231511079258
428,610.9919744845436
429,611.062493023907
430,611.1318278071076
431,611.1976175278066
432,611.2579810891361
433,611.3114835992502
434,611.357155987255
435,611.3945774786276
436,611.423979838716
437,611.4463084711778
438,611.4631955437081
439,611.4768420307605
440,611.4898320665765
441,611.5049007621906
442,611.5246607317883
443,611.5512862399086
444,611.5861688114389
445,611.6295853560493
446,611.6804394115933
447,611.7361368458221
448,611.7926399383448
449,611.8447124854227
450,611.8863329675067
451,611.911228405842
452,611.9134757458062
453,611.8881176651541
454,611.8317285449117
455,611.7428533219088
456,611.6222557685949
457,611.4729579490682
458,611.3000985513838
459,611.1106544250424
460,610.9130543246083
461,610.7166861874499
462,610.5312859342029
463,610.3662158336268
464,610.2296872178664
465,610.1280219971911
466,610.0650537960113
467,610.0417505292173
468,610.0561131063079
469,610.1033692738673
470,610.1764373808206
471,610.2665990554364
472,610.3643064877177
473,610.460054119272
474,610.5452507044386
475,610.613022147388
476,610.6588561611703
477,610.6809850052564
478,610.680419327563
479,610.6606026342944
480,610.6267329120617
481,610.5848673598392
482,610.5409702448395
483,610.5000761946245
484,610.4657179460082
485,610.4397057113479
486,610.4222537151416
487,610.4123582306889
488,610.4082795970625
489,610.4079871020826
490,610.4094778816166
491,610.4109502402025
492,610.4108666961419
493,610.4079608922747
494,610.4012307234551
495,610.3899427501968
496,610.3736620112713
497,610.3523094334879
498,610.3262343629069
499,610.2962808817252
500,610.263826457719
501,610.2307753384164
502,610.19949461883
503,610.172688970493
504,610.1532181520906
505,610.1438661665987
506,610.147076615641
507,610.1646834102538
508,610.1976861585288
509,610.246126763433
510,610.3090999534248
511,610.3848804605358
512,610.4711054160176
513,610.5649450383394
514,610.6632300586715
515,610.7625511341822
516,610.8593699474653
517,610.9501708251537
518,611.0316481893626
519,611.1008969212617
520,611.1555734356875
521,611.1940224523895
522,611.2153887014437
523,611.2197277538298
524,611.2081009983227
525,611.1826162104581
526,611.1463772927124
527,611.1033242581664
528,611.0579569843401
529,611.0149466049521
530,610.9786645686069
531,610.9526974815549
532,610.9394384186398
533,610.9398345000062
534,610.9533332982471
535,610.9780263131807
536,611.0109527173756
537,611.0485095693463
538,611.0869143047478
539,611.1226689097454
540,611.1529719936566
541,611.1760219892839
542,611.1911676496852
543,611.1988940175415
544,611.2006702699849
545,611.1987135182569
546,611.1957297528713
547,611.1946786687168
548,611.198578333089
549,611.210330828707
550,611.2325304031142
551,611.2672266246901
552,611.3156536990169
553,611.3779817694767
554,611.4531715002327
555,611.5390052816869
556,611.6323270352601
557,611.7294614589705
558,611.8267266590063
559,611.9209249477306
560,612.009705334546
561,612.0917296821991
562,612.1666246471063
563,612.2347499274748
564,612.296851761188
565,612.3536883161636
566,612.4057042202655
567,612.4528053493904
568,612.4942611869709
569,612.5287467636698
570,612.5545188385853
571,612.5696944567406
572,612.5725744807019
573,612.5619461439982
574,612.5373113498486
575,612.4990129484924
576,612.4482606902603
577,612.3870858442386
578,612.3182653346477
579,612.2452396670066
580,612.1720171367947
581,612.1030411048644
582,612.0430039807261
583,611.9965988447799
584,611.9681986598648
585,611.961461197935
586,611.9788873157052
587,612.0213966006927
588,612.0879988816486
589,612.1756214842898
590,612.2791225287885
591,612.391503976898
592,612.5043268701012
593,612.6083089091424
594,612.6940593938135
595,612.7528932499184
596,612.7776579817073
597,612.7634915474574
598,612.7084108148106
599,612.6136306648457
600,612.4835473104482
601,612.325378041877
602,612.1485093232286
603,611.9636447784114
604,611.7818570206532
605,611.6136372756188
606,611.4680148071867
607,611.3517958450278
608,611.2689611933281
609,611.2202718499661
610,611.2031522015345
611,611.2119176647385
612,611.2383650991028
613,611.2726654235022
614,611.304429334521
615,611.3237928548614
616,611.322394250962
617,611.2941589668058
618,611.2358378398095
619,611.1472497688051
620,611.0311932950493
621,610.8930383219407
622,610.7400767189389
623,610.5807599186417
624,610.4239513582685
625,610.2782688223269
626,610.1515189465981
627,610.0501843710808
628,609.9789396656785
629,609.9402214619317
630,609.9339162162175
631,609.9572373362851
632,610.004854784539
633,610.0693230919919
634,610.14181742091
635,610.2131270200803
636,610.2747880968499
637,610.32018712684
638,610.3454455880858
639,610.3499167814357
640,610.3361875874223
641,610.3095710596683
642,610.2771766376478
643,610.2467317743183
644,610.2253831484203
645,610.2187086870442
646,610.2301134284844
647,610.2606735307053
648,610.3093698560014
649,610.3735678355804
650,610.4495863272206
651,610.533236917858
652,610.6202630963738
653,610.7066485317621
654,610.788805631032
655,610.8636958438616
656,610.9289417173801
657,610.9829520075949
658,611.0250293658052
659,611.0554159471947
660,611.0752605111131
661,611.0865182700345
662,611.0917875565144
663,611.0940580021377
664,611.0963384986753
665,611.1011798083337
666,611.110184474795
667,611.123645116482
668,611.1404285379191
669,611.1581424767837
670,611.1735373888827
671,611.1830506614738
672,611.1834014036359
673,611.1721641415019
674,611.1482590241768
675,611.1122909942619
676,611.0666708210122
677,611.0154717330648
678,610.9640157617288
679,610.918237550684
680,610.883928581816
681,610.8659992422939
682,610.8678911751402
683,610.8912297527088
684,610.9357438710238
685,610.9994188262507
686,611.0788084521978
687,611.1694262109856
688,611.2661530916979
689,611.3636249371589
690,611.4565842577236
691,611.5401995028082
692,611.6103614600574
693,611.6639569447756
694,611.6991014972748
695,611.7152991551357
696,611.7134959182441
697,611.6960036026663
698,611.6662892917898
699,611.6286471002439
700,611.5877858053384
701,611.5483746177373
702,611.5145924340801
703,611.4897272268959
704,611.475874603372
705,611.473785622133
706,611.4829019394618
707,611.5015814473475
708,611.5274702767314
709,611.5579427959988
710,611.5905270350071
711,611.6232568387003
712,611.6549242624872
713,611.6852207594935
714,611.714750595227
715,611.7448978865308
716,611.7775438284779
717,611.814655651897
718,611.8577979646049
719,611.9076504344877
720,611.9636423130555
721,612.0238141744743
722,612.0849787591869
723,612.1431785843951
724,612.1943452347616
725,612.2349901805267
726,612.2627420678817
727,612.2766038854261
728,612.2769019384375
729,612.2649855414165
730,612.2427845018207
731,612.212347558479
732,612.1754811817734
733,612.1335787023027
734,612.087667218544
735,612.0386247530854
736,611.9874712065002
737,611.9356298206434
738,611.8850737213112
739,611.8382957437543
740,611.7980740816636
741,611.76706317406
742,611.7473051717332
743,611.739796772566
744,611.7442359657601
745,611.759019042654
746,611.7814835827692
747,611.8083259910392
748,611.8360856794619
749,611.8615893981814
750,611.8822772111995
751,611.896369059878
752,611.9028680525457
753,611.9014298347835
754,611.8921513469878
755,611.875339434222
756,611.851306219195
757,611.8202123882597
758,611.781962913027
759,611.7361654817291
760,611.6821750756476
761,611.6192413374162
762,611.5467426717001
763,611.4644537297228
764,611.3727762287638
765,611.2728743429975
766,611.1666834615655
767,611.0567905000676
768,610.9462119050798
769,610.8381212981168
770,610.7355876821275
771,610.6413609149898
772,610.5576981691438
773,610.4862051566244
774,610.4276904496102
775,610.3820734060932
776,610.3484009948912
777,610.3250011393583
778,610.3097550469178
779,610.3004406697867
780,610.2950921297897
781,610.2923248682264
782,610.2915852926302
783,610.2932922777723
784,610.2988380644169
785,610.3104087458945
786,610.3305902778771
787,610.3617674214391
788,610.4053980262911
789,610.4613188840184
790,610.5272632879261
791,610.5987231674846
792,610.6692041228863
793,610.7308532014196
794,610.7753972158587
795,610.7952840220177
796,610.7848598379318
797,610.7413733536403
798,610.6656097730842
799,610.5620329216663
800,610.4384211253905
801,610.3050762617236
802,610.1737366731554
803,610.0563358463181
804,609.9637400036574
805,609.9045904629571
806,609.884379136663
807,609.9048832600914
808,609.9640514659877
809,610.0563604216738
810,610.1735786921325
811,610.3058201087908
812,610.4427502970983
813,610.5748064284884
814,610.6942859799132
815,610.7961637893123
816,610.8785268232808
817,610.942574132788
818,610.9921940087823
819,611.0331852620144
820,611.0722414728225
821,611.1158686489222
822,611.1694323460791
823,611.2365012329817
824,611.3185740466469
825,611.4151776818519
826,611.5242408111353
827,611.6426050613484
828,611.7665411825403
829,611.8921747477782
830,612.015771609697
831,612.1338765488085
832,612.2433357105168
833,612.3412585510753
834,612.424984138436
835,612.4921102547265
836,612.5406196933001
837,612.5690925281689
838,612.5769364535266
839,612.5645336890856
840,612.5332240590465
841,612.485111010907
842,612.4227481926406
843,612.3488039150176
844,612.265799751722
845,612.1759833236492
846,612.0813403245729
847,611.9837023790939
848,611.8848863822184
849,611.7868105641732
850,611.6915571439129
851,611.6013707481637
852,611.518588205279
853,611.4454971928409
854,611.384129094124
855,611.3360079188152
856,611.3019009059866
857,611.2816423832134
858,611.2741099287628
859,611.2773926775758
860,611.2891093419898
861,611.3067602930764
862,611.3279921978525
863,611.3507223352641
864,611.3731590011212
865,611.393798281298
866,611.4114561982726
867,611.4253433915866
868,611.4351508650547
869,611.4411039697893
870,611.4439463487553
871,611.444824231182
872,611.4450554228869
873,611.4457957940767
874,611.447660092464
875,611.4503949437616
876,611.4527114443063
877,611.4523497505428
878,611.4463854764027
879,611.431730276831
880,611.405744090937
881,611.3668551053299
882,611.3150657445063
883,611.2522222744641
884,611.1819642445716
885,611.1093457032205
886,611.0401966449193
887,610.9803333083039
888,610.934731190912
889,610.9067754156557
890,610.8977116632858
891,610.9064139916134
892,610.929536864416
893,610.962032414151
894,610.997924756128
895,611.0311782420605
896,611.0564936653326
897,611.0699082915675
898,611.0691389911245
899,611.0536682999036
900,611.0246142251733
901,610.9844390322597
902,610.9365431652928
903,610.8847742874142
904,610.8328846007483
905,610.7840019890089
906,610.7402132092335
907,610.7023504589727
908,610.6700233662021
909,610.6418816749945
910,610.6160573784609
911,610.5907125731666
912,610.5645947590248
913,610.5374827413052
914,610.5104201724507
915,610.485688967128
916,610.4665413838943
917,610.4567458442349
918,610.4600067158462
