frame_number,force
0,539.3683711725809
1,539.4120372949869
2,539.4553437358907
3,539.498289715634
4,539.5408784873094
5,539.583117215241
6,539.625016842667
7,539.6665919534145
8,539.7078606315713
9,539.7488443223242
10,539.7895676967024
11,539.8300585226219
12,539.8703475438663
13,539.9104683672332
14,539.9504573561309
15,539.9903535271028
16,540.0301984450543
17,540.0700361137137
18,540.1099128595042
19,540.1498772087504
20,540.1899797597806
21,540.2302730531741
22,540.2708114448365
23,540.3116509870099
24,540.3528493213539
25,540.3944655863052
26,540.4365603387239
27,540.4791954877281
28,540.5224342367146
29,540.566341028151
30,540.6109814852501
31,540.6564223452618
32,540.7027313804612
33,540.7499773043406
34,540.7982296615868
35,540.8475587011799
36,540.8980352327586
37,540.9497304675162
38,541.0027158462705
39,541.0570628585137
40,541.1128428565307
41,541.170126867789
42,541.2289854073854
43,541.2894882912616
44,541.3517044503726
45,541.4157017455307
46,541.4815467821629
47,541.5493047243583
48,541.6190391087005
49,541.6908116598042
50,541.7646821102329
51,541.840708027308
52,541.9189446486382
53,541.9994447275541
54,542.0822583895019
55,542.1674330009239
56,542.255013052731
57,542.345040060375
58,542.4375524813939
59,542.5325856496002
60,542.6301717236213
61,542.7303396467636
62,542.8331151150273
63,542.9385205502126
64,543.0465750755299
65,543.157294492447
66,543.270691259609
67,543.3867744766511
68,543.5055498765995
69,543.6270198300676
70,543.751183363172
71,543.878036189715
72,544.0075707571949
73,544.139776305753
74,544.2746389391688
75,544.4121417072408
76,544.5522646991402
77,544.6949851475827
78,544.8402775440369
79,544.9881137656055
80,545.1384632141929
81,545.2912929675335
82,545.4465679396062
83,545.6042510456543
84,545.7643033654977
85,545.9266842987815
86,546.0913517071074
87,546.2582620396178
88,546.4273704395117
89,546.5986308290787
90,546.7719959712449
91,546.9474175071952
92,547.1248459718322
93,547.304230790317
94,547.48552025898
95,547.6686615128679
96,547.8536004810195
97,548.0402818298953
98,548.2286488950521
99,548.4186436007936
100,548.6102063671593
101,548.80327600363
102,548.9977895896525
103,549.1936823435746
104,549.3908874835527
105,549.5893360857814
106,549.7889569464248
107,549.9896764538654
108,550.1914184777078
109,550.3941042806342
110,550.59765245862
111,550.8019789139777
112,551.0069968642155
113,551.2126168881538
114,551.4187470096422
115,551.6252928188379
116,551.832157631181
117,552.0392426841779
118,552.246447371262
119,552.453669510758
120,552.6608056472332
121,552.8677513822976
122,553.0744017316993
123,553.2806515051599
124,553.4863957048218
125,553.6915299373246
126,553.895950833458
127,554.0995564683493
128,554.3022467743425
129,554.5039239381204
130,554.7044927735194
131,554.9038610622487
132,555.101939856377
133,555.2986437387947
134,555.4938910405989
135,555.6876040170513
136,555.8797089858665
137,556.0701364328856
138,556.2588210907468
139,556.4457019961625
140,556.6307225310273
141,556.8138304519587
142,556.9949779121288
143,557.1741214784576
144,557.3512221464896
145,557.5262453545554
146,557.6991609979239
147,557.8699434424029
148,558.0385715352168
149,558.2050286092604
150,558.3693024755992
151,558.5313853988484
152,558.6912740507335
153,558.8489694382228
154,559.0044768040468
155,559.1578054993461
156,559.3089688303126
157,559.4579838821405
158,559.6048713238279
159,559.7496551965842
160,559.8923626874347
161,560.033023888571
162,560.1716715424675
163,560.308340772946
164,560.4430688029305
165,560.5758946598897
166,560.7068588695915
167,560.8360031380791
168,560.9633700213141
169,561.0890025819373
170,561.2129440329091
171,561.3352373681627
172,561.4559249807596
173,561.5750482693061
174,561.6926472336114
175,561.8087600610825
176,561.9234227063492
177,562.0366684677838
178,562.1485275653218
179,562.2590267243679
180,562.3681887712941
181,562.476032247627
182,562.5825710519996
183,562.687814120207
184,562.7917651534
185,562.8944224025811
186,562.9957785148844
187,563.0958204443194
188,563.1945294270175
189,563.2918810186461
190,563.3878451900744
191,563.482386477099
192,563.5754641807613
193,563.6670326153454
194,563.7570414006052
195,563.8454357931037
196,563.9321570494985
197,564.0171428129516
198,564.1003275128203
199,564.1816427672114
200,564.261017777783
201,564.3383797066359
202,564.4136540265866
203,564.4867648387333
204,564.5576351547165
205,564.6261871443927
206,564.6923423517725
207,564.7560218828751
208,564.8171465690305
209,564.8756371085644
210,564.9314141892338
211,564.9843985937474
212,565.0345112911469
213,565.0816735169977
214,565.1258068446465
215,565.1668332484912
216,565.204675159142
217,565.2392555100737
218,565.2704977758011
219,565.2983260024185
220,565.3226648323304
221,565.3434395259469
222,565.3605759838024
223,565.3740007728219
224,565.3836411602992
225,565.3894251584799
226,565.3912815814973
227,565.3891401150763
228,565.3829313982297
229,565.3725871154527
230,565.3580400979952
231,565.3392244337481
232,565.3160755865208
233,565.2885305261806
234,565.2565278711028
235,565.2200080441571
236,565.1789134434432
237,565.1331886290902
238,565.0827805272921
239,565.0276386520266
240,564.9677153436079
241,564.9029660218242
242,564.8333494504636
243,564.7588280095861
244,564.6793679715997
245,564.5949397768466
246,564.505518304149
247,564.4110831319422
248,564.3116187864798
249,564.2071149751181
250,564.0975668045027
251,563.9829749851757
252,563.8633460253145
253,563.7386924166145
254,563.609032814619
255,563.4743922144561
256,563.3348021214439
257,563.1903007145261
258,563.0409329991037
259,562.8867509450242
260,562.7278136058144
261,562.5641872165966
262,562.3959452698529
263,562.2231685697582
264,562.0459452670779
265,561.8643708775114
266,561.6785482865592
267,561.4885877432508
268,561.2946068435158
269,561.0967305020075
270,560.8950909093458
271,560.6898274705233
272,560.4810867196965
273,560.2690222063452
274,560.0537943475297
275,559.8355702408613
276,559.6145234332695
277,559.3908336419513
278,559.164686425939
279,558.9362728090437
280,558.705788856954
281,558.4734352125822
282,558.239416594381
283,558.0039412627183
284,557.767220459996
285,557.5294678311834
286,557.2908988324481
287,557.0517301359733
288,556.8121790382904
289,556.5724628775793
290,556.3327984631899
291,556.0934015190311
292,555.8544861418716
293,555.6162642758818
294,555.3789452055563
295,555.1427350698863
296,554.9078364005115
297,554.6744476851512
298,554.4427629553212
299,554.2129713950695
300,553.9852569657872
301,553.7597980412949
302,553.5367670475771
303,553.3163301029874
304,553.0986466572832
305,552.8838691306178
306,552.6721425556359
307,552.4636042267111
308,552.2583833601421
309,552.0566007679164
310,551.8583685460433
311,551.6637897774658
312,551.472958249702
313,551.2859581882377
314,551.1028640075759
315,550.9237400823813
316,550.748640541471
317,550.5776090876835
318,550.4106788468514
319,550.247872249139
320,550.089200946036
321,549.9346657664977
322,549.7842567161993
323,549.6379530245848
324,549.4957232449892
325,549.3575254130642
326,549.2233072678454
327,549.0930065383981
328,548.966551297576
329,548.8438603830881
330,548.7248438844418
331,548.6094036923913
332,548.4974341058033
333,548.3888224895499
334,548.2834499756488
335,548.1811921981335
336,548.0819200505822
337,547.9855004546924
338,547.8917971289742
339,547.8006713480742
340,547.7119826847296
341,547.6255897274161
342,547.541350767381
343,547.4591244492133
344,547.3787703798691
345,547.3001496925299
346,547.2231255637207
347,547.1475636842724
348,547.0733326865327
349,547.0003045313841
350,546.9283548588174
351,546.8573633051442
352,546.7872137890157
353,546.7177947679105
354,546.6489994667935
355,546.5807260809112
356,546.5128779549153
357,546.4453637406269
358,546.3780975356354
359,546.3109990043052
360,546.2439934814137
361,546.1770120566924
362,546.1099916365034
363,546.042874977386
364,545.9756106858051
365,545.9081531794116
366,545.8404626072773
367,545.7725047291124
368,545.7042507555769
369,545.6356771531666
370,545.5667654178752
371,545.4975018222611
372,545.4278771409231
373,545.3578863596886
374,545.2875283736511
375,545.2168056783765
376,545.1457240574991
377,545.0742922689632
378,545.0025217312806
379,544.9304262101427
380,544.8580215048146
381,544.7853251336213
382,544.7123560187947
383,544.6391341723569
384,544.5656803856756
385,544.4920159256191
386,544.4181622405283
387,544.3441406802253
388,544.2699722358672
389,544.1956773067326
390,544.1212755012037
391,544.046785478253
392,543.972224834057
393,543.8976100361393
394,543.8229564049407
395,543.7482781406223
396,543.6735883919622
397,543.5988993643562
398,543.5242224645311
399,543.4495684800142
400,543.3749477913253
401,543.3003706140533
402,543.2258472665796
403,543.1513884577012
404,543.0770055871391
405,543.0027110509269
406,542.9285185429733
407,542.8544433439187
408,542.7805025889604
409,542.7067155075001
410,542.6331036289013
411,542.5596909500046
412,542.4865040611661
413,542.4135722284009
414,542.3409274298484
415,542.2686043456301
416,542.1966403016904
417,542.1250751702577
418,542.0539512310497
419,541.9833129971523
420,541.9132070077945
421,541.8436815885676
422,541.7747865792803
423,541.7065730303704
424,541.6390928694435
425,541.5723985395197
426,541.5065426102217
427,541.4415773627383
428,541.3775543490538
429,541.3145239258763
430,541.2525347640592
431,541.1916333351147
432,541.1318633777122
433,541.0732653488298
434,541.0158758661267
435,540.9597271495986
436,540.9048464713974
437,540.8512556229499
438,540.798970408446
439,540.7480001735314
440,540.6983473774495
441,540.6500072157005
442,540.6029672986879
443,540.5572073904301
444,540.5126992107465
445,540.469406304258
446,540.4272839794355
447,540.3862793205492
448,540.3463312751103
449,540.3073708192929
450,540.2693212030764
451,540.232098274964
452,540.1956108837245
453,540.1597613527997
454,540.1244460223251
455,540.0895558537869
456,540.0549770927192
457,540.020591985436
458,539.9862795463662
459,539.9519163725547
460,539.9173775009757
461,539.8825373026052
462,539.8472704051542
463,539.8114526345231
464,539.7749619638453
465,539.737679458429
466,539.6994902047386
467,539.6602842116965
468,539.6199572730512
469,539.5784117800439
470,539.5355574738135
471,539.4913121269786
472,539.4456021440371
473,539.3983630708285
474,539.3495400043229
475,539.2990878955527
476,539.2469717407006
477,539.1931666579402
478,539.137657850054
479,539.0804404547057
480,539.0215192854802
481,538.9609084675897
482,538.8986309726389
483,538.8347180573114
484,538.7692086118795
485,538.7021484265961
486,538.6335893870303
487,538.5635886120482
488,538.4922075493778
489,538.4195110437687
490,538.3455663926381
491,538.2704424040877
492,538.1942084716693
493,538.11693367886
494,538.0386859442165
495,537.9595312161043
496,537.8795327237101
497,537.7987502884432
498,537.7172396970167
499,537.6350521353129
500,537.5522336814521
501,537.468824857472
502,537.3848602410534
503,537.3003681405322
504,537.215370336948
505,537.129881896112
506,537.0439110526145
507,536.9574591670487
508,536.8705207573888
509,536.7830836051562
510,536.695128936762
511,536.6066316800859
512,536.5175607955256
513,536.4278796793235
514,536.3375466352244
515,536.246515408678
516,536.1547357759773
517,536.0621541791513
518,535.9687143965732
519,535.8743582392497
520,535.7790262631545
521,535.6826584882446
522,535.5851951148986
523,535.4865772287592
524,535.3867474857311
525,535.2856507702645
526,535.1832348212824
527,535.0794508201732
528,534.9742539341759
529,534.867603807635
530,534.7594649942912
531,534.6498073259776
532,534.5386062157128
533,534.4258428952265
534,534.3115045880633
535,534.1955846196155
536,534.0780824648459
537,533.9590037333087
538,533.8383600898673
539,533.7161691089444
540,533.5924540610115
541,533.4672436325015
542,533.3405715835822
543,533.2124763509768
544,533.0830006046407
545,532.9521907678206
546,532.820096510394
547,532.6867702257377
548,532.5522665016451
549,532.4166415957826
550,532.2799529258134
551,532.1422585837145
552,532.0036168828169
553,531.864085944422
554,531.7237233285755
555,531.5825857112733
556,531.4407286086358
557,531.2982061478011
558,531.1550708842987
559,531.0113736658951
560,530.8671635428244
561,530.7224877237375
562,530.5773915756382
563,530.4319186646558
564,530.2861108332214
565,530.1400083086502
566,529.993649838458
567,529.8470728486018
568,529.7003136215603
569,529.5534074912
570,529.4063890504094
571,529.2592923659058
572,529.1121511933835
573,528.9649991860754
574,528.817870090799
575,528.6707979272363
576,528.5238171481491
577,528.3769627797418
578,528.2302705417444
579,528.0837769463768
580,527.9375193752587
581,527.791536133786
582,527.645866482678
583,527.5005506457708
584,527.3556297921116
585,527.2111459896207
586,527.0671421273614
587,526.9236618039755
588,526.7807491811737
589,526.6384488031357
590,526.4968053849148
591,526.3558635750535
592,526.2156676991377
593,526.0762614916406
594,525.9376878232163
595,525.7999884301265
596,525.6632036522832
597,525.527372186426
598,525.3925308604703
599,525.2587144334599
600,525.1259554233133
601,524.9942839629107
602,524.8637276849498
603,524.7343116369858
604,524.6060582287262
605,524.4789872128634
606,524.3531156987809
607,524.2284581965034
608,524.1050266871656
609,523.98283071611
610,523.8618775050396
611,523.7421720798905
612,523.6237174110731
613,523.5065145626409
614,523.3905628469447
615,523.2758599814106
616,523.1624022440541
617,523.0501846242171
618,522.9392009651303
619,522.8294440958085
620,522.7209059513548
621,522.6135776820039
622,522.5074497512105
623,522.4025120217445
624,522.2987538269941
625,522.1961640236851
626,522.0947310227982
627,521.9944427973677
628,521.8952868678782
629,521.7972502669841
630,521.7003194851532
631,521.604480398296
632,521.509718178107
633,521.4160171857307
634,521.3233608492224
635,521.2317315251494
636,521.1411103448085
637,521.0514770459243
638,520.9628097908749
639,520.8750849719673
640,520.7882770032735
641,520.7023580980407
642,520.6172980315828
643,520.5330638916346
644,520.4496198205347
645,520.3669267554662
646,520.2849421739061
647,520.2036198513817
648,520.1229096379674
649,520.0427572592953
650,519.9631041477004
651,519.8838873095335
652,519.8050392353666
653,519.7264878602983
654,519.648156581615
655,519.5699643408292
656,519.491825776722
657,519.4136514552124
658,519.3353481805418
659,519.2568193907873
660,519.177965639501
661,519.0986851640771
662,519.0188745395727
663,518.9384294136399
664,518.8572453142292
665,518.7752185178682
666,518.6922469636796
667,518.608231197283
668,518.5230753290246
669,518.4366879920731
670,518.3489832872655
671,518.259881702862
672,518.1693109985717
673,518.0772070444262
674,517.9835146061632
675,517.8881880694564
676,517.7911920954748
677,517.6925022000445
678,517.592105248594
679,517.4899998597024
680,517.3861967118421
681,517.2807187505067
682,517.1736012953832
683,517.0648920486691
684,516.9546510058962
685,516.842950270277
686,516.729873771425
687,516.6155168897884
688,516.4999859892969
689,516.3833978622263
690,516.2658790917451
691,516.1475653387079
692,516.0286005601703
693,515.9091361683473
694,515.7893301403922
695,515.6693460905806
696,515.5493523163535
697,515.4295208283369
698,515.3100263728606
699,515.1910454545012
700,515.0727553660788
701,514.9553332339294
702,514.8389550862743
703,514.7237949516413
704,514.6100239929917
705,514.4978096822714
706,514.3873150198557
707,514.278697803461
708,514.1721099510604
709,514.0676968818593
710,513.9655969584584
711,513.865940992255
712,513.7688518131275
713,513.6744439034453
714,513.5828230954929
715,513.4940863308532
716,513.4083214805052
717,513.3256072253258
718,513.2460129978105
719,513.1695989864783
720,513.0964162044789
721,513.0265066236083
722,512.9599033741956
723,512.8966310098848
724,512.8367058345771
725,512.7801362877249
726,512.7269233842701
727,512.677061206188
728,512.6305374427682
729,512.5873339759709
730,512.5474275057859
731,512.5107902090139
732,512.4773904234245
733,512.4471933476955
734,512.4201617460931
735,512.396256646099
736,512.3754380173568
737,512.3576654208434
738,512.3428986174017
739,512.3310981248015
740,512.3222257131886
741,512.3162448308407
742,512.3131209554939
743,512.312821870402
744,512.3153178678843
745,512.3205818856657
746,512.3285895824556
747,512.3393193589721
748,512.3527523293409
749,512.3688722464175
750,512.3876653840609
751,512.4091203797456
752,512.4332280412673
753,512.4599811211916
754,512.4893740624998
755,512.5214027191619
756,512.5560640561066
757,512.593355833934
758,512.633276284473
759,512.6758237836538
760,512.7209965278123
761,512.7687922186349
762,512.8192077610805
763,512.8722389779957
764,512.9278803442028
765,512.9861247413342
766,513.046963233174
767,513.1103848605655
768,513.176376455406
769,513.2449224748194
770,513.3160048586968
771,513.3896029150682
772,513.4656932371116
773,513.5442496535551
774,513.6252432125643
775,513.708642198874
776,513.7944121842847
777,513.88251611169
778,513.9729144123339
779,514.0655651556731
780,514.1604242314038
781,514.2574455634283
782,514.3565813552699
783,514.4577823659498
784,514.5609982151263
785,514.6661777162307
786,514.7732692357686
787,514.8822210755421
788,514.9929818725366
789,515.1055010091329
790,515.2197290246489
791,515.3356180184363
792,515.453122035103
793,515.5721974237939
794,515.6928031655858
795,515.8149011656745
796,515.9384565098509
797,516.0634376872912
798,516.1898167833932
799,516.3175696468298
800,516.4466760342013
801,516.5771197343392
802,516.708888673345
803,516.841975001235
804,516.9763751613449
805,517.1120899436352
806,517.249124522042
807,517.3874884743801
808,517.5271957821855
809,517.6682648077123
810,517.8107182454044
811,517.954583044989
812,518.0998903031142
813,518.2466751205899
814,518.3949764227369
815,518.5448367407784
816,518.6963019526421
817,518.8494209821936
818,519.0042454566286
819,519.1608293221872
820,519.3192284185534
821,519.4795000126063
822,519.641702292667
823,519.8058938250462
824,519.9721329757864
825,520.14047730241
826,520.3109829232062
827,520.4837038743574
828,520.6586914669098
829,520.8359936556928
830,521.0156544311492
831,521.1977132433749
832,521.3822044658874
833,521.5691569048793
834,521.758593358167
835,521.9505302269538
836,522.1449771830819
837,522.3419368946053
838,522.5414048127668
839,522.7433690231259
840,522.9478101624544
841,523.1547014016737
842,523.36400849422
843,523.5756898886422
844,523.7896969030465
845,524.005973956833
846,524.2244588527722
847,524.445083100889
848,524.6677722753958
849,524.8924463973888
850,525.1190203391175
851,525.3474042491638
852,525.5775040000235
853,525.8092216596178
854,526.042455986881
855,526.2771029498142
856,526.5130562626642
857,526.750207937147
858,526.9884488410308
859,527.2276692563654
860,527.4677594294486
861,527.7086101048484
862,527.9501130358597
863,528.1921614636691
864,528.4346505577155
865,528.677477810705
866,528.9205433835762
867,529.1637503982222
868,529.4070051784787
869,529.6502174419671
870,529.8933004460522
871,530.1361710901244
872,530.3787499741101
873,530.6209614107288
874,530.8627333880673
875,531.1039974802632
876,531.3446887069395
877,531.5847453453217
878,531.8241087016665
879,532.0627228500053
880,532.3005343460181
881,532.537491922631
882,532.7735461725437
883,533.008649221826
884,533.2427543980049
885,533.4758158956912
886,533.7077884428923
887,533.9386269716466
888,534.1682862970749
889,534.3967208089184
890,534.6238841791222
891,534.8497290883402
892,535.0742069737672
893,535.2972678007876
894,535.5188598616721
895,535.7389296056382
896,535.9574215054643
897,536.1742779661521
898,536.3894392807646
899,536.6028436377954
900,536.8144271834251
901,537.0241241403077
902,537.2318669813862
903,537.4375866528438
904,537.6412128362321
905,537.8426742379363
906,538.04189889491
907,538.238814487712
908,538.4333486534863
909,538.625429291985
910,538.8149848579067
911,539.0019446340391
912,539.1862389824597
913,539.3677995744525
914,539.5465596024533
915,539.7224539785811
916,539.8954195244245
917,540.0653951561001
