frame_number,force
0,539.3537763600941
1,539.3976134010886
2,539.4411642783003
3,539.4844233805965
4,539.5273888290692
5,539.5700624277048
6,539.612449602824
7,539.6545593341574
8,539.6964040799699
9,539.7379996981621
10,539.7793653650423
11,539.8205234932674
12,539.8614996500182
13,539.9023224756437
14,539.9430236018569
15,539.9836375674969
16,540.024201729462
17,540.0647561668843
18,540.1053435776136
19,540.1460091671378
20,540.1868005310549
21,540.2277675332335
22,540.2689621826648
23,540.3104385122695
24,540.352252462344
25,540.39446177018
26,540.4371258660707
27,540.4803057746614
28,540.5240640194555
29,540.5684645274449
30,540.6135725305431
31,540.6594544608776
32,540.7061778377974
33,540.753811145309
34,540.8024236992891
35,540.8520855042784
36,540.9028671001321
37,540.9548393994756
38,541.0080735177323
39,541.0626405981798
40,541.1186116346552
41,541.176057293991
42,541.2350477394052
43,541.2956524554162
44,541.3579400745308
45,541.4219782056674
46,541.4878332639743
47,541.5555703017802
48,541.6252528410764
49,541.6969427087715
50,541.7706998764086
51,541.8465823059245
52,541.9246458026112
53,542.0049438760474
54,542.0875276096793
55,542.1724455400056
56,542.2597435466605
57,542.3494647546206
58,542.4416494490748
59,542.5363350024667
60,542.6335558123382
61,542.7333432481506
62,542.83572560517
63,542.940728063564
64,543.0483726511399
65,543.1586782089332
66,543.2716603601219
67,543.3873314839229
68,543.5057006966513
69,543.62677384183
70,543.7505534904618
71,543.8770389517543
72,544.006226293993
73,544.1381083749892
74,544.2726748815314
75,544.4099123774041
76,544.5498043596913
77,544.6923313232398
78,544.8374708333814
79,544.9851976072687
80,545.1354836041694
81,545.2882981244443
82,545.4436079157083
83,545.6013772832964
84,545.7615682012394
85,545.9241404199355
86,546.0890515674889
87,546.2562572426627
88,546.4257110979428
89,546.5973649112774
90,546.7711686453081
91,546.9470704938461
92,547.1250169166741
93,547.3049526646391
94,547.4868207970376
95,547.670562692671
96,547.8561180552553
97,548.0434249134603
98,548.232419615657
99,548.4230368192275
100,548.6152094740708
101,548.8088687999427
102,549.0039442576949
103,549.2003635153661
104,549.3980524112542
105,549.5969349171588
106,549.7969331055947
107,549.9979671249096
108,550.1999551861207
109,550.4028135650696
110,550.6064566231292
111,550.8107968490655
112,551.0157449237488
113,551.2212098084791
114,551.4270988570089
115,551.6333179511129
116,551.8397716596405
117,552.0463634209638
118,552.2529957482136
119,552.459570455944
120,552.665988906402
121,552.8721522734436
122,553.0779618219927
123,553.2833192006946
124,553.4881267450598
125,553.6922877878827
126,553.8957069730632
127,554.0982905683711
128,554.2999467722032
129,554.5005860090234
130,554.7001212081157
131,554.8984680607322
132,555.0955452517225
133,555.2912746631323
134,555.4855815489162
135,555.6783946815295
136,555.869646472447
137,556.0592730694376
138,556.2472144337729
139,556.4334144005613
140,556.6178207251784
141,556.8003851184106
142,556.9810632725005
143,557.1598148798215
144,557.3366036454875
145,557.5113972947833
146,557.6841675757903
147,557.8548902568497
148,558.0235451175514
149,558.1901159309227
150,558.3545904337711
151,558.5169602820197
152,558.6772209882936
153,558.8353718396929
154,558.9914157945594
155,559.145359358224
156,559.297212439014
157,559.4469881866886
158,559.5947028156288
159,559.7403754146487
160,559.8840277446184
161,560.0256840244774
162,560.1653707059162
163,560.3031162371134
164,560.4389508162635
165,560.572906135796
166,560.7050151179681
167,560.8353116420977
168,560.9638302634255
169,561.0906059236048
170,561.2156736530087
171,561.3390682652648
172,561.4608240446432
173,561.5809744270799
174,561.6995516757503
175,561.8165865524076
176,561.9321079862949
177,562.0461427431308
178,562.1587150971063
179,562.2698465090448
180,562.3795553142967
181,562.4878564248824
182,562.5947610515663
183,562.7002764522913
184,562.8044057131984
185,562.907147567323
186,563.0084962544286
187,563.1084414237425
188,563.2069680797555
189,563.3040565698053
190,563.3996826111991
191,563.4938173554419
192,563.586427487558
193,563.6774753588079
194,563.7669191507622
195,563.8547130676776
196,563.9408075528765
197,564.0251495238218
198,564.1076826199543
199,564.1883474570002
200,564.2670818813251
201,564.343821218174
202,564.4184985084953
203,564.491044730611
204,564.5613890050735
205,564.6294587830366
206,564.6951800197372
207,564.7584773351591
208,564.8192741638725
209,564.8774928956793
210,564.9330550083529
211,564.9858811937329
212,565.0358914786999
213,565.0830053426566
214,565.1271418327224
215,565.1682196770608
216,565.2061573961183
217,565.2408734113814
218,565.2722861515178
219,565.3003141562507
220,565.3248761789007
221,565.3458912891032
222,565.3632789776071
223,565.3769592652266
224,565.3868528179106
225,565.3928810694943
226,565.3949663530032
227,565.3930320405779
228,565.3870026913675
229,565.3768042063058
230,565.3623639887217
231,565.3436111103033
232,565.3204764826753
233,565.2928930352573
234,565.2607959000526
235,565.2241226038743
236,565.1828132685062
237,565.1368108193449
238,565.0860612029832
239,565.0305136137523
240,564.9701207284568
241,564.90483894769
242,564.8346286415492
243,564.7594543972939
244,564.6792852663085
245,564.59409500752
246,564.5038623242618
247,564.4085710916838
248,564.3082105723191
249,564.2027756183375
250,564.0922668601019
251,563.9766908816698
252,563.8560603845972
253,563.7303943415909
254,563.5997181411408
255,563.4640637234622
256,563.3234697071942
257,563.1779815054101
258,563.0276514286749
259,562.872538772414
260,562.7127098860731
261,562.5482382223734
262,562.3792043660245
263,562.2056960422087
264,562.0278081059379
265,561.8456425139392
266,561.6593082808646
267,561.4689214212058
268,561.2746048773853
269,561.076488433339
270,560.8747086118314
271,560.6694085530354
272,560.4607378716271
273,560.2488524895318
274,560.0339144413347
275,559.8160916493307
276,559.5955576654976
277,559.3724913784869
278,559.1470766849853
279,558.9195021262229
280,558.6899604916382
281,558.4586483925289
282,558.2257658089198
283,557.9915156131223
284,557.7561030738395
285,557.5197353452867
286,557.2826209464182
287,557.0449692356221
288,556.8069898857938
289,556.5688923635958
290,556.330885415402
291,556.0931765614686
292,555.8559715995224
293,555.6194741191348
294,555.3838850287332
295,555.1494020975459
296,554.9162195146858
297,554.6845274667173
298,554.4545117336708
299,554.2263533020925
300,554.0002279927002
301,553.7763060996882
302,553.5547520388155
303,553.3357240022509
304,553.1193736196577
305,552.9058456266341
306,552.6952775428093
307,552.4877993624024
308,552.283533259889
309,552.0825933126646
310,551.8850852415933
311,551.6911061697059
312,551.5007443993542
313,551.3140792086169
314,551.1311806682413
315,550.9521094806862
316,550.77691684298
317,550.6056443352327
318,550.4383238367193
319,550.2749774714288
320,550.1156175849522
321,549.9602467546634
322,549.8088578353885
323,549.6614340431511
324,549.5179490799012
325,549.3783673020687
326,549.242643935212
327,549.1107253361577
328,548.9825493031537
329,548.8580454337264
330,548.7371355289263
331,548.6197340414627
332,548.5057485641679
333,548.3950803544359
334,548.2876248894286
335,548.1832724457811
336,548.0819086965997
337,547.9834153182086
338,547.8876705995061
339,547.7945500476557
340,547.7039269847232
341,547.6156731305178
342,547.5296591672726
343,547.44575528209
344,547.3638316835443
345,547.2837590897249
346,547.2054091862518
347,547.1286550541039
348,547.0533715682176
349,546.9794357685262
350,546.9067272052514
351,546.8351282598869
352,546.7645244427929
353,546.6948046680471
354,546.6258615062549
355,546.5575914162082
356,546.4898949564553
357,546.4226769779438
358,546.3558467988678
359,546.2893183625062
360,546.2230103780644
361,546.156846443396
362,546.090755147286
363,546.0246701481153
364,545.95853022551
365,545.8922793021985
366,545.8258664346167
367,545.7592457723523
368,545.6923764878109
369,545.6252226783256
370,545.5577532433886
371,545.489941739955
372,545.4217662190167
373,545.3532090468325
374,545.2842567141205
375,545.2148996360339
376,545.1451319450952
377,545.0749512786892
378,545.0043585621921
379,544.933357788194
380,544.8619557917301
381,544.7901620213629
382,544.71798830653
383,544.6454486224127
384,544.5725588541509
385,544.4993365623958
386,544.4258007523612
387,544.3519716491228
388,544.2778704828602
389,544.2035192884929
390,544.1289407242533
391,544.0541579131615
392,543.9791943103379
393,543.9040735977504
394,543.8288196064796
395,543.7534562653204
396,543.6780075739603
397,543.6024975990556
398,543.5269504918791
399,543.4513905264623
400,543.3758421571081
401,543.3003300936566
402,543.2248793920464
403,543.1495155568058
404,543.074264651347
405,542.9991534113408
406,542.9242093560318
407,542.8494608922524
408,542.7749374062289
409,542.7006693389872
410,542.6266882420307
411,542.5530268107868
412,542.4797188939939
413,542.4067994777023
414,542.334304642952
415,542.2622714967092
416,542.1907380765668
417,542.1197432309524
418,542.0493264774836
419,541.9795278420099
420,541.9103876798589
421,541.8419464798105
422,541.7742446511159
423,541.7073222943189
424,541.6412189570343
425,541.5759733758404
426,541.5116232052433
427,541.4482047344217
428,541.385752592258
429,541.3242994411181
430,541.2638756600525
431,541.2045090185643
432,541.1462243428551
433,541.089043177508
434,541.0329834466887
435,540.9780591198297
436,540.924279887226
437,540.8716508511021
438,540.8201722376482
439,540.7698391353559
440,540.7206412646002
441,540.672562782678
442,540.6255821275286
443,540.5796719024924
444,540.534798804032
445,540.4909235942638
446,540.4480011200544
447,540.4059803801746
448,540.3648046418145
449,540.3244116076703
450,540.2847336343362
451,540.2456980015762
452,540.2072272305768
453,540.1692394481777
454,540.1316487936388
455,540.094365864526
456,540.05729819851
457,540.020350788215
458,539.983426626585
459,539.9464272802294
460,539.9092534876504
461,539.8718057782435
462,539.8339851067328
463,539.7956934966129
464,539.7568346854597
465,539.7173147646599
466,539.6770428060179
467,539.6359314678161
468,539.5938975732016
469,539.550862654097
470,539.5067534539892
471,539.4615023829829
472,539.4150479186684
473,539.3673349467498
474,539.3183150360378
475,539.2679466433808
476,539.2161952454719
477,539.1630333960643
478,539.1084407086257
479,539.0524037656219
480,538.9949159564009
481,538.9359772461689
482,538.8755938788836
483,538.8137780172128
484,538.7505473233716
485,538.6859244859752
486,538.6199366998836
487,538.5526151076256
488,538.4839942117577
489,538.414111267583
490,538.3430056655998
491,538.2707183130627
492,538.1972910237494
493,538.1227659241794
494,538.0471848833452
495,537.9705889717686
496,537.8930179543813
497,537.8145098201586
498,537.7351003497347
499,537.6548227209003
500,537.573707151453
501,537.491780579444
502,537.4090663820484
503,537.3255841353493
504,537.2413494175928
505,537.1563736579825
506,537.0706640324086
507,536.9842234070832
508,536.8970503308165
509,536.8091390764431
510,536.7204797317263
511,536.6310583398287
512,536.5408570889081
513,536.4498545495021
514,536.3580259572752
515,536.2653435375661
516,536.1717768670453
517,536.0772932668192
518,535.9818582207706
519,535.8854358129036
520,535.7879891776724
521,535.6894809574201
522,535.5898737610911
523,535.489130618514
524,535.3872154249967
525,535.2840933717955
526,535.1797313587481
527,535.0740983853935
528,534.9671659162494
529,534.8589082154015
530,534.749302645988
531,534.6383299314838
532,534.525974377272
533,534.4122240522331
534,534.2970709307596
535,534.1805109957428
536,534.0625443027446
537,533.9431750048941
538,533.8224113373437
539,533.700265559806
540,533.576753856233
541,533.4518961922149
542,533.3257161326403
543,533.1982406238402
544,533.0694997454277
545,532.9395264375001
546,532.8083562091151
547,532.6760268341814
548,532.5425780410889
549,532.408051202402
550,532.2724890307403
551,532.1359352866242
552,531.9984345034823
553,531.8600317340214
554,531.7207723208104
555,531.5807016925514
556,531.4398651864818
557,531.2983078968821
558,531.1560745496772
559,531.013209403258
560,530.8697561756027
561,530.7257579974362
562,530.5812573905185
563,530.4362962693035
564,530.290915963436
565,530.1451572582099
566,529.9990604503051
567,529.8526654166237
568,529.7060116944822
569,529.5591385714216
570,529.412085182315
571,529.2648906104955
572,529.117593988881
573,528.9702345970023
574,528.8228519504353
575,528.6754858801338
576,528.5281766003268
577,528.3809647645363
578,528.2338915094857
579,528.0869984864134
580,527.9403278792415
581,527.7939224093184
582,527.6478253265582
583,527.5020803864189
584,527.3567318115437
585,527.2118242364153
586,527.0674026332333
587,526.9235122175335
588,526.7801983328638
589,526.637506315012
590,526.4954813376191
591,526.3541682422831
592,526.2136113571692
593,526.0738543085173
594,525.9349398293259
595,525.7969095692064
596,525.6598039092869
597,525.5236617860686
598,525.3885205278516
599,525.2544157063916
600,525.1213810051071
601,524.9894481041783
602,524.8586465828104
603,524.7290038395352
604,524.6005450318254
605,524.4732930358273
606,524.3472684258571
607,524.2224894721415
608,524.0989721546249
609,523.9767301905819
610,523.8557750739684
611,523.7361161245967
612,523.6177605452209
613,523.5007134845722
614,523.3849781043934
615,523.2705556485749
616,523.1574455124937
617,523.0456453105849
618,522.9351509402536
619,522.8259566407885
620,522.7180550468817
621,522.6114372371222
622,522.5060927778187
623,522.4020097617071
624,522.2991748400474
625,522.1975732460212
626,522.0971888076851
627,521.9980039498802
628,521.8999996857115
629,521.8031555988216
630,521.7074498175958
631,521.612858982113
632,521.5193582044474
633,521.4269210228481
634,521.3355193502302
635,521.24512341732
636,521.1557017108647
637,521.067220907536
638,520.9796458042401
639,520.892939245223
640,520.8070620457246
641,520.7219729116198
642,520.6376283549909
643,520.5539826067978
644,520.4709875292148
645,520.3885925312885
646,520.3067444921003
647,520.2253876955499
648,520.1444637804512
649,520.0639117092022
650,519.9836677581661
651,519.9036655331217
652,519.8238360135189
653,519.7441076295393
654,519.6644063759586
655,519.5846559666378
656,519.5047780332086
657,519.4246923710109
658,519.3443172345138
659,519.2635696835491
660,519.1823659809357
661,519.100622041343
662,519.0182539301014
663,518.9351784088199
664,518.8513135222643
665,518.7665792186393
666,518.6808979938297
667,518.5941955495529
668,518.5064014555632
669,518.4174498067148
670,518.327279866516
671,518.235836689592
672,518.1430717162173
673,518.0489433328385
674,517.9534173931879
675,517.856467695028
676,517.7580764076932
677,517.6582344455103
678,517.5569417821658
679,517.4542077015204
680,517.3500509814753
681,517.2445000091121
682,517.1375928268508
683,517.0293771102897
684,516.9199100786032
685,516.8092583382117
686,516.697497660397
687,516.5847126938763
688,516.4709966140983
689,516.3564507119695
690,516.2411839256481
691,516.1253123197428
692,516.0089585168422
693,515.8922510870883
694,515.775323902536
695,515.6583154637942
696,515.5413682063977
697,515.4246277935796
698,515.308242401179
699,515.192361999834
700,515.0771376395683
701,514.9627207421171
702,514.8492624063459
703,514.7369127315897
704,514.6258201629546
705,514.516130862055
706,514.4079881064902
707,514.3015317214134
708,514.1968975464982
709,514.0942169412918
710,513.993616331361
711,513.8952167969558
712,513.7991337052781
713,513.7054763868005
714,513.6143478554718
715,513.5258445722766
716,513.4400562516952
717,513.3570657111308
718,513.2769487639961
719,513.1997741575
720,513.1256035561564
721,513.054491571808
722,512.9864858404651
723,512.9216271453561
724,512.8599495844858
725,512.8014807803171
726,512.7462421292092
727,512.6942490886153
728,512.6455115001073
729,512.6000339457925
730,512.5578161348083
731,512.518853315656
732,512.4831367092326
733,512.4506539564712
734,512.4213895736201
735,512.3953254077259
736,512.3724410849779
737,512.3527144448864
738,512.3361219534013
739,512.3226390881015
740,512.3122406889999
741,512.3049012697568
742,512.3005952861039
743,512.299297360636
744,512.3009824652944
745,512.3056260644112
746,512.3132042218888
747,512.3236936759592
748,512.337071884228
749,512.3533170408973
750,512.3724080677765
751,512.3943245809199
752,512.4190468349833
753,512.4465556473399
754,512.4768323039103
755,512.5098584488426
756,512.545615960643
757,512.5840868179049
758,512.6252529582532
759,512.6690961343583
760,512.7155977706799
761,512.7647388240673
762,512.8164996508306
763,512.8708598825365
764,512.9277983122299
765,512.9872927918813
766,513.0493201409577
767,513.1138560656009
768,513.1808750881675
769,513.250350487828
770,513.3222542541783
771,513.3965570565751
772,513.4732282315058
773,513.5522357890662
774,513.6335464386135
775,513.7171256334506
776,513.8029376346063
777,513.8909455937896
778,513.9811116553049
779,514.07339707651
780,514.1677623664954
781,514.2641674427807
782,514.3625718056537
783,514.4629347294683
784,514.5652154700801
785,514.6693734875494
786,514.775368682891
787,514.8831616467995
788,514.9927139170624
789,515.1039882401213
790,515.2169488312467
791,515.3315616273187
792,515.4477945264191
793,515.5656176092551
794,515.6850033387151
795,515.8059267354334
796,515.9283655289414
797,516.0523002855047
798,516.177714514785
799,516.3045947577399
800,516.4329306577139
801,516.5627150158933
802,516.6939438317368
803,516.8266163288799
804,516.9607349672057
805,517.0963054417831
806,517.2333366688032
807,517.3718407576758
808,517.5118329678096
809,517.6533316485094
810,517.7963581605165
811,517.9409367776349
812,518.08709456677
813,518.2348612448176
814,518.3842690111189
815,518.5353523544836
816,518.6881478340568
817,518.8426938337151
818,518.999030290116
819,519.1571983948013
820,519.3172402708842
821,519.4791986250439
822,519.6431163758432
823,519.8090362597882
824,519.9770004172045
825,520.147049961153
826,520.3192245342404
827,520.4935618598353
828,520.6700972952126
829,520.848863394205
830,521.029889486235
831,521.2132012775985
832,521.3988204797787
833,521.5867644684997
834,521.7770459762778
835,521.9696728205516
836,522.1646476691856
837,522.3619678452051
838,522.56162517275
839,522.7636058660001
840,522.9678904621237
841,523.1744537984625
842,523.3832650336091
843,523.5942877116504
844,523.807479868112
845,524.0227941748033
846,524.2401781193059
847,524.4595742138667
848,524.6809202282966
849,524.9041494423373
850,525.129190914792
851,525.355969768808
852,525.5844074939738
853,525.8144222659007
854,526.045929283111
855,526.2788411199923
856,526.513068093528
857,526.7485186404647
858,526.9850997006079
859,527.2227171013199
860,527.4612759381748
861,527.7006809468663
862,527.9408368615024
863,528.1816487543687
864,528.4230223523762
865,528.6648643260046
866,528.9070825476675
867,529.149586317946
868,529.3922865597755
869,529.6350959819371
870,529.8779292136236
871,530.1207029112427
872,530.3633358372579
873,530.6057489094593
874,530.8478652185102
875,531.0896100123687
876,531.3309106479168
877,531.5716965121218
878,531.8118989166971
879,532.0514509710736
880,532.2902874383955
881,532.5283445785498
882,532.7655599814137
883,533.0018723928894
884,533.2372215358732
885,533.4715479281017
886,533.7047926988813
887,533.9368974070179
888,534.16780386254
889,534.3974539548057
890,534.6257894892764
891,534.852752034838
892,535.0782827832647
893,535.302322422473
894,535.5248110256542
895,535.7456879590204
896,535.9648918114178
897,536.1823603492344
898,536.398030499803
899,536.6118383660278
900,536.8237192743486
901,537.033607857125
902,537.2414381686178
903,537.4471438311012
904,537.650658205188
905,537.8519145773081
906,538.0508463577277
907,538.2473872837462
908,538.4414716236558
909,538.6330343773117
910,538.8220114692508
911,539.0083399310173
912,539.1919580709937
913,539.3728056320724
914,539.5508239390826
915,539.725956038624
916,539.898146834017
917,540.0673432176847
