frame_number,force
0,688.0797200071535
1,688.1050622073793
2,688.1303496011494
3,688.1555277571329
4,688.1805429860993
5,688.2053426925833
6,688.229875705261
7,688.2540925807618
8,688.2779458756529
9,688.3013903810586
10,688.3243833142654
11,688.3468844618873
12,688.3688562698151
13,688.3902638764527
14,688.4110750876806
15,688.4312602943216
16,688.4507923353716
17,688.4696463129184
18,688.4877993672031
19,688.5052304221017
20,688.5219199122811
21,688.5378495037734
22,688.5530018198306
23,688.5673601833468
24,688.5809083855796
25,688.5936304884269
26,688.605510664582
27,688.6165330772847
28,688.6266817998843
29,688.6359407752046
30,688.6442938151683
31,688.6517246414699
32,688.6582169676454
33,688.6637546215402
34,688.6683217052445
35,688.6719027875749
36,688.6744831225294
37,688.6760488861697
38,688.676587424135
39,688.6760875020698
40,688.6745395512903
41,688.6719359023717
42,688.6682710007092
43,688.6635416005015
44,688.6577469361904
45,688.6508888722701
46,688.64297203325
47,688.6340039157354
48,688.623994984561
49,688.6129587547324
50,688.6009118604983
51,688.5878741123823
52,688.5738685428305
53,688.5589214414283
54,688.5430623814681
55,688.526324241009
56,688.5087432230455
57,688.4903588801307
58,688.4712141480846
59,688.4513553912373
60,688.4308324585967
61,688.4096987471208
62,688.3880112655307
63,688.3658306903376
64,688.3432214051157
65,688.3202515141501
66,688.2969928218708
67,688.2735207700215
68,688.2499143258112
69,688.2262558164673
70,688.2026307080597
71,688.179127328586
72,688.1558365368179
73,688.1328513393287
74,688.1102664587172
75,688.0881778567364
76,688.066682216974
77,688.0458763927089
78,688.0258568263844
79,688.0067189477576
80,687.9885565580036
81,687.9714612065131
82,687.9555215660461
83,687.9408228112763
84,687.9274460061165
85,687.9154675056787
86,687.9049583783649
87,687.8959838527019
88,687.8886027931375
89,687.8828672091996
90,687.8788218024916
91,687.876503555509
92,687.8759413655162
93,687.8771557263507
94,687.8801584613714
95,687.8849525117236
96,687.8915317850912
97,687.8998810705044
98,687.9099760241875
99,687.9217832298966
100,687.9352603351725
101,687.9503562630059
102,687.9670114967938
103,687.9851584348241
104,688.004721808495
105,688.02561915607
106,688.0477613414898
107,688.0710531063572
108,688.0953936431729
109,688.1206771792821
110,688.1467935636658
111,688.1736288522367
112,688.2010658906706
113,688.2289848960238
114,688.2572640391264
115,688.2857800292519
116,688.3144087011892
117,688.3430256033895
118,688.371506585124
119,688.3997283804549
120,688.4275691863136
121,688.4549092307658
122,688.4816313262681
123,688.50762140199
124,688.5327690091809
125,688.5569677942254
126,688.5801159355885
127,688.6021165429424
128,688.6228780187236
129,688.6423143834661
130,688.6603455659978
131,688.6768976581707
132,688.691903132328
133,688.705301019231
134,688.7170370450109
135,688.7270637274582
136,688.7353404337085
137,688.7418334019798
138,688.7465157290302
139,688.7493673233521
140,688.7503748232003
141,688.7495314788938
142,688.7468369999835
143,688.7422973692836
144,688.7359246270996
145,688.7277366302787
146,688.7177567920274
147,688.7060138096035
148,688.6925413872508
149,688.6773779603915
150,688.6605664243516
151,688.642153868067
152,688.6221913115496
153,688.6007334456514
154,688.5778383735291
155,688.5535673547371
156,688.5279845542635
157,688.5011567991786
158,688.4731533447014
159,688.4440456501665
160,688.4139071645253
161,688.382813120918
162,688.3508403401516
163,688.3180670431681
164,688.2845726725682
165,688.2504377228812
166,688.2157435783932
167,688.180572355959
168,688.1450067486087
169,688.1091298646792
170,688.0730250574004
171,688.0367757412647
172,688.000465193312
173,687.9641763390981
174,687.9279915244682
175,687.8919922755314
176,687.8562590507778
177,687.8208709911437
178,687.7859056752588
179,687.7514388873187
180,687.7175444040473
181,687.6842938056686
182,687.6517563143817
183,687.6199986629629
184,687.5890849954721
185,687.5590768008637
186,687.5300328784855
187,687.5020093329468
188,687.4750595954062
189,687.4492344686462
190,687.4245821935792
191,687.4011485349686
192,687.3789768846874
193,687.3581083819361
194,687.3385820510053
195,687.3204349576769
196,687.3037023846111
197,687.2884180240991
198,687.2746141839625
199,687.2623219998258
200,687.2515716447313
201,687.2423925255293
202,687.2348134552107
203,687.2288627914545
204,687.2245685335974
205,687.2219583725191
206,687.221059690564
207,687.221899511506
208,687.2245044034486
209,687.228900339959
210,687.2351125261488
211,687.2431651968825
212,687.2530813945473
213,687.2648827341511
214,687.2785891632966
215,687.2942187232647
216,687.3117873154458
217,687.3313084754784
218,687.3527931561383
219,687.3762495193079
220,687.4016827371149
221,687.4290948021462
222,687.4584843460601
223,687.4898464649984
224,687.5231725492912
225,687.5584501142605
226,687.5956626287027
227,687.6347893383034
228,687.6758050826835
229,687.7186801060897
230,687.7633798623799
231,687.8098648153757
232,687.8580902366091
233,687.9080060039138
234,687.9595564055312
235,688.0126799550526
236,688.0673092228652
237,688.1233706900465
238,688.1807846305649
239,688.2394650266798
240,688.2993195206866
241,688.3602494043486
242,688.4221496462891
243,688.4849089574753
244,688.5484098953472
245,688.6125290076166
246,688.6771370170567
247,688.7420990487758
248,688.8072749017509
249,688.8725193667965
250,688.9376825934133
251,689.002610507935
252,689.067145285075
253,689.1311258743524
254,689.1943885819821
255,689.2567677079409
256,689.3180962371229
257,689.3782065825072
258,689.4369313769381
259,689.4941043086878
260,689.5495609946801
261,689.6031398840878
262,689.6546831838465
263,689.7040377964474
264,689.7510562595345
265,689.7955976765711
266,689.8375286281581
267,689.8767240542529
268,689.9130680981391
269,689.9464549030881
270,689.9767893524223
271,690.0039877438128
272,690.0279783893483
273,690.0487021337921
274,690.066112784394
275,690.0801774468733
276,690.0908767637459
277,690.0982050527427
278,690.102170344323
279,690.1027943178568
280,690.1001121359026
281,690.0941721758319
282,690.0850356589764
283,690.072776179817
284,690.0574791406777
285,690.0392410998483
286,690.0181690426433
287,689.9943795858999
288,689.9679981272099
289,689.9391579510068
290,689.907999304227
291,689.874668454132
292,689.8393167396944
293,689.802099626011
294,689.7631757691554
295,689.7227060971027
296,689.6808529109136
297,689.6377790092185
298,689.593646838342
299,689.5486176702581
300,689.5028508108059
301,689.4565028408205
302,689.4097268927804
303,689.3626719652061
304,689.3154822765222
305,689.2682966595025
306,689.2212479967852
307,689.1744626974413
308,689.1280602144659
309,689.0821526035598
310,689.0368441245969
311,688.992230888327
312,688.9484005517952
313,688.9054320664973
314,688.8633954831494
315,688.8223518159076
316,688.7823529673136
317,688.7434417139732
318,688.7056517524101
319,688.6690078046996
320,688.6335257842051
321,688.5992130223613
322,688.5660685572332
323,688.534083483688
324,688.5032413643061
325,688.4735186999048
326,688.4448854584414
327,688.4173056608068
328,688.3907380214648
329,688.3651366406912
330,688.3404517431056
331,688.3166304543975
332,688.293617605259
333,688.2713565493523
334,688.2497899810653
335,688.2288607385753
336,688.2085125777934
337,688.1886909030163
338,688.1693434408339
339,688.1504208452858
340,688.131877224579
341,688.1136705825223
342,688.0957631704015
343,688.0781217469073
344,688.0607177455354
345,688.0435273512284
346,688.026531490682
347,688.0097157428468
348,687.9930701771899
349,687.976589127337
350,687.9602709073786
351,687.9441174781625
352,687.9281340716798
353,687.9123287829784
354,687.8967121403573
355,687.881296665314
356,687.86609643343
357,687.8511266460773
358,687.8364032210204
359,687.821942408199
360,687.807760435299
361,687.7938731858471
362,687.7802959103899
363,687.7670429692342
364,687.7541276037313
365,687.7415617324788
366,687.7293557693973
367,687.7175184625473
368,687.7060567552314
369,687.6949756731243
370,687.6842782421191
371,687.6739654416547
372,687.6640361980482
373,687.6544874215723
374,687.6453140891023
375,687.6365093713125
376,687.6280648005614
377,687.6199704736385
378,687.6122152827274
379,687.6047871679633
380,687.5976733852914
381,687.5908607836564
382,687.5843360859884
383,687.5780861691212
384,687.572098338492
385,687.5663605939586
386,687.5608618832429
387,687.5555923394273
388,687.550543498652
389,687.5457084938652
390,687.5410822204104
391,687.5366614693512
392,687.5324450246889
393,687.5284337214425
394,687.5246304634081
395,687.5210402019904
396,687.5176698797419
397,687.5145283432033
398,687.5116262291111
399,687.5089758266303
400,687.5065909169701
401,687.5044865910436
402,687.5026790455604
403,687.5011853579481
404,687.5000232410316
405,687.4992107795938
406,687.4987661521341
407,687.498707341572
408,687.4990518383374
409,687.4998163387561
410,687.5010164408392
411,687.5026663384224
412,687.504778513872
413,687.5073634303507
414,687.5104292266267
415,687.5139814193342
416,687.5180226186986
417,687.5225522643682
418,687.5275663885343
419,687.5330574137869
420,687.5390139926873
421,687.5454208948494
422,687.5522589458891
423,687.5595050215052
424,687.5671320994189
425,687.575109371697
426,687.5834024196799
427,687.591973452974
428,687.6007816126672
429,687.6097833372071
430,687.6189327873547
431,687.6281823246266
432,687.6374830361116
433,687.6467852976142
434,687.6560393662878
435,687.6651959928511
436,687.6742070424427
437,687.6830261128679
438,687.6916091397259
439,687.6999149793832
440,687.7079059622704
441,687.7155484098935
442,687.7228131092036
443,687.7296757381165
444,687.7361172364641
445,687.7421241174621
446,687.7476887157605
447,687.7528093694309
448,687.7574905350579
449,687.7617428373039
450,687.7655830563698
451,687.7690340580864
452,687.7721246718146
453,687.7748895211503
454,687.7773688119323
455,687.7796080813978
456,687.7816579115225
457,687.7835736086819
458,687.7854148510078
459,687.787245304535
460,687.789132209443
461,687.7911459380639
462,687.7933595266979
463,687.7958481838671
464,687.7986887783942
465,687.8019593110533
466,687.8057383730371
467,687.8101045933333
468,687.8151360761349
469,687.8209098296433
470,687.8275011896953
471,687.8349832451343
472,687.843426275251
473,687.8528972112276
474,687.8634591327711
475,687.8751708088221
476,687.8880862885853
477,687.9022545467993
478,687.9177191851679
479,687.9345181899172
480,687.9526837433222
481,687.972242084903
482,687.9932134161244
483,688.0156118412904
484,688.0394453373656
485,688.064715746939
486,688.0914187911588
487,688.1195441022103
488,688.1490752766646
489,688.1799899514208
490,688.2122599035083
491,688.2458511745033
492,688.280724220039
493,688.3168340846332
494,688.3541306013813
495,688.3925586149813
496,688.432058225806
497,688.4725650531102
498,688.5140105168274
499,688.5563221387122
500,688.5994238640153
501,688.6432364043237
502,688.6876776009301
503,688.732662806626
504,688.7781052827582
505,688.8239166080261
506,688.8700070953875
507,688.9162862130524
508,688.962663005032
509,689.0090465066831
510,689.0553461513014
511,689.1014721647472
512,689.1473359461363
513,689.1928504336557
514,689.2379304553059
515,689.2824930644663
516,689.3264578596626
517,689.3697472873642
518,689.412286926832
519,689.4540057571329
520,689.4948364076774
521,689.5347153941905
522,689.5735833416988
523,689.6113851952119
524,689.6480704174797
525,689.683593171577
526,689.7179124843632
527,689.750992385799
528,689.7828020191538
529,689.8133157180404
530,689.8425130473839
531,689.8703788065261
532,689.8969029934347
533,689.9220807292866
534,689.9459121428038
535,689.9684022141346
536,689.9895605790466
537,690.0094012955126
538,690.0279425759893
539,690.045206489572
540,690.0612186387632
541,690.0760078156629
542,690.0896056416867
543,690.102046193683
544,690.1133656182078
545,690.1236017351819
546,690.1327936324479
547,690.1409812540288
548,690.1482049869088
549,690.1545052531009
550,690.1599221147579
551,690.164494899829
552,690.1682618546799
553,690.1712598289873
554,690.173523997399
555,690.1750876216114
556,690.1759818553652
557,690.1762355933754
558,690.175875363503
559,690.1749252597252
560,690.1734069119215
561,690.1713394873814
562,690.1687397184392
563,690.1656219508925
564,690.1619982087291
565,690.1578782718557
566,690.1532697648353
567,690.1481782559448
568,690.1426073668221
569,690.1365588929195
570,690.1300329336215
571,690.1230280289864
572,690.1155412990785
573,690.1075685823548
574,690.0991045707556
575,690.0901429398074
576,690.0806764720513
577,690.0706971724031
578,690.0601963752484
579,690.0491648446397
580,690.0375928698286
581,690.025470357922
582,690.0127869237833
583,689.9995319752895
584,689.9856947910497
585,689.9712645885273
586,689.9562305825942
587,689.9405820365199
588,689.9243083085713
589,689.9073988978768
590,689.8898434932767
591,689.8716320286595
592,689.8527547477826
593,689.8332022806953
594,689.812965732614
595,689.7920367846775
596,689.7704078048554
597,689.7480719666671
598,689.7250233734603
599,689.7012571867284
600,689.6767697580971
601,689.6515587656155
602,689.6256233553211
603,689.598964288666
604,689.5715840959091
605,689.5434872356802
606,689.5146802616948
607,689.4851719982615
608,689.4549737258125
609,689.4240993759391
610,689.392565733088
611,689.3603926381468
612,689.3276031881804
613,689.2942239265391
614,689.2602850180756
615,689.2258204048898
616,689.1908679386714
617,689.155469486217
618,689.1196710048841
619,689.0835225847492
620,689.0470784544759
621,689.0103969485638
622,688.9735404344287
623,688.9365751984353
624,688.899571290751
625,688.8626023298921
626,688.8257452687138
627,688.7890801239148
628,688.7526896708068
629,688.7166591045102
630,688.6810756682252
631,688.6460282491988
632,688.611606943889
633,688.5779025958395
634,688.5450063125322
635,688.5130089701536
636,688.4820007171627
637,688.4520704884752
638,688.4233055418526
639,688.3957910266821
640,688.3696095931845
641,688.3448410479534
642,688.3215620601584
643,688.2998459214983
644,688.2797623613278
645,688.2613774158905
646,688.2447533477945
647,688.2299486096991
648,688.2170178451948
649,688.2060119198811
650,688.1969779762503
651,688.1899595068576
652,688.1849964411572
653,688.1821252422404
654,688.1813790105464
655,688.1827875921118
656,688.1863776884683
657,688.1921729638475
658,688.2001941437918
659,688.2104590985266
660,688.2229829046468
661,688.2377778793931
662,688.2548535830589
663,688.274216787285
664,688.2958714099852
665,688.3198184201559
666,688.3460557166576
667,688.3745779845584
668,688.4053765323682
669,688.4384391144848
670,688.4737497448726
671,688.5112885091917
672,688.5510313826967
673,688.5929500605398
674,688.6370118062093
675,688.6831793229734
676,688.731410652301
677,688.7816591022942
678,688.8338732085654
679,688.8879967300293
680,688.9439686822002
681,689.001723409626
682,689.0611906967473
683,689.1222959138851
684,689.1849601936046
685,689.2491006327195
686,689.3146305163837
687,689.381459562745
688,689.4494941889022
689,689.5186378003674
690,689.5887911062682
691,689.6598524615755
692,689.7317182366398
693,689.804283213665
694,689.8774410091702
695,689.9510845206905
696,690.0251063949041
697,690.0993995131942
698,690.1738574895098
699,690.2483751743653
700,690.3228491579647
701,690.397178265002
702,690.4712640339901
703,690.5450111751154
704,690.6183280022045
705,690.6911268359028
706,690.7633243762696
707,690.8348420436438
708,690.905606286921
709,690.975548858498
710,691.0446070550945
711,691.1127239230469
712,691.1798484252835
713,691.2459355657223
714,691.3109464661839
715,691.3748483912645
716,691.4376147176581
717,691.4992248458998
718,691.5596640542418
719,691.6189232959221
720,691.6769989422003
721,691.7338924743575
722,691.7896101286595
723,691.844162498934
724,691.89756410145
725,691.9498329061001
726,692.0009898369485
727,692.0510582447762
728,692.1000633548255
729,692.1480316944829
730,692.1949905076896
731,692.2409671647409
732,692.2859885770648
733,692.3300806260547
734,692.3732676133683
735,692.4155717382087
736,692.4570126058945
737,692.4976067716437
738,692.5373673234855
739,692.5763035082392
740,692.6144204045927
741,692.6517186473701
742,692.6881942065372
743,692.7238382228385
744,692.7586368994689
745,692.7925714468524
746,692.825618076404
747,692.8577480391543
748,692.8889277056654
749,692.9191186843077
750,692.9482779757377
751,692.9763581621014
752,693.0033076296032
753,693.0290708227383
754,693.0535885282729
755,693.076798187233
756,693.0986342334193
757,693.1190284571197
758,693.1379103926255
759,693.1552077276361
760,693.1708467313848
761,693.1847526964407
762,693.196850387235
763,693.2070644872259
764,693.2153200368325
765,693.2215428558195
766,693.2256599459163
767,693.2275998710194
768,693.227293112818
769,693.2246723995017
770,693.2196730051261
771,693.21223301767
772,693.2022935748091
773,693.1897990677854
774,693.1746973155119
775,693.1569397131001
776,693.1364813604247
777,693.1132811760758
778,693.087302000389
779,693.058510689784
780,693.0268782044332
781,692.9923796920967
782,692.9549945722129
783,692.9147066254691
784,692.8715040946203
785,692.8253798018696
786,692.7763312868358
787,692.7243609673501
788,692.6694763233199
789,692.6116901017182
790,692.551020538648
791,692.4874915928195
792,692.4211331839721
793,692.351981429627
794,692.280078873574
795,692.2054746995071
796,692.1282249237373
797,692.0483925625057
798,691.9660477719872
799,691.8812679615793
800,691.7941378823757
801,691.7047496924529
802,691.6132029992559
803,691.5196048773525
804,691.4240698570864
805,691.3267198765266
806,691.227684186876
807,691.1270992014996
808,691.0251082809365
809,690.9218614494043
810,690.8175150411256
811,690.7122312768098
812,690.6061777721875
813,690.4995269823193
814,690.3924555876039
815,690.285143829323
816,690.1777748035188
817,690.0705337219871
818,689.9636071485763
819,689.8571822181815
820,689.7514458450615
821,689.6465839265265
822,689.5427805479057
823,689.440217195259
824,689.3390719832772
825,689.2395189062483
826,689.1417271189237
827,689.0458602518277
828,688.9520757633678
829,688.8605243301008
830,688.7713492765309
831,688.6846860460553
832,688.6006617147758
833,688.5193945499809
834,688.4409936150837
835,688.365558422401
836,688.2931786343944
837,688.223933813426
838,688.1578932200931
839,688.0951156607254
840,688.0356493854399
841,687.9795320391127
842,687.9267906685101
843,687.8774417892496
844,687.831491515984
845,687.7889357583914
846,687.7497604845724
847,687.7139420524612
848,687.6814476085704
849,687.652235551665
850,687.6262560571132
851,687.6034516561173
852,687.583757862815
853,687.567103841209
854,687.55341310315
855,687.5426042284911
856,687.5345915991568
857,687.5292861399824
858,687.5265960604027
859,687.5264275920615
860,687.5286857178804
861,687.5332748877437
862,687.5400997147827
863,687.5490656447396
864,687.5600795897382
865,687.5730505174072
866,687.587889986794
867,687.6045126238715
868,687.6228365315094
869,687.6427836309144
870,687.6642799328547
871,687.6872557372548
872,687.7116457598033
873,687.7373891849907
874,687.7644296466804
875,687.7927151393229
876,687.8221978644772
877,687.8528340182293
878,687.8845835258412
879,687.9174097310392
880,687.9512790487538
881,687.9861605912829
882,688.0220257781065
883,688.0588479387602
884,688.0966019166698
885,688.1352636802025
886,688.1748099457225
887,688.215217816428
888,688.2564644406616
889,688.2985266943726
890,688.3413808935446
891,688.3850025424309
892,688.4293661221261
893,688.47444492225
894,688.5202109171472
895,688.566634686849
896,688.6136853816704
897,688.661330727883
898,688.7095370710153
899,688.7582694531259
900,688.8074917203716
901,688.8571666569374
902,688.9072561411779
903,688.957721320041
904,689.0085227982245
905,689.0596208385288
906,689.1109755695292
907,689.1625471965481
908,689.2142962123501
909,689.266183604918
910,689.3181710605752
911,689.3702211609605
912,689.4222975718117
913,689.4743652208379
914,689.526390461948
915,689.5783412238058
916,689.6301871414117
917,689.6818996696057
