frame_number,force
0,538.4408242751146
1,538.3905600130403
2,538.340914535723
3,538.2919879989915
4,538.2438770200089
5,538.1966745560877
6,538.1504697866175
7,538.1053479952735
8,538.0613904508024
9,538.0186742848322
10,537.9772723644703
11,537.9372531566088
12,537.8986805805557
13,537.8616138461067
14,537.8261072753945
15,537.7922101087554
16,537.7599662974052
17,537.7294142886632
18,537.7005868121378
19,537.6735106770171
20,537.6482065910766
21,537.624689011416
22,537.602966035621
23,537.5830393400155
24,537.5649041687573
25,537.5485493740448
26,537.5339575044718
27,537.521104936271
28,537.5099620411002
29,537.5004933840448
30,537.492657945847
31,537.4864093630226
32,537.4816961786393
33,537.4784620964647
34,537.4766462328264
35,537.4761833630246
36,537.4770041611387
37,537.4790354332553
38,537.4822003453621
39,537.4864186489366
40,537.4916069091502
41,537.4976787419108
42,537.5045450664031
43,537.5121143794321
44,537.5202930570332
45,537.5289856878151
46,537.5380954413388
47,537.5475244732628
48,537.5571743669861
49,537.5669466094785
50,537.5767430973603
51,537.5864666684556
52,537.5960216540785
53,537.6053144478578
54,537.6142540873532
55,537.6227528447235
56,537.6307268222052
57,537.6380965474658
58,537.644787563487
59,537.650731007451
60,537.6558641727305
61,537.6601310476455
62,537.6634828248197
63,537.6658783758488
64,537.6672846868829
65,537.6676772510349
66,537.6670404133937
67,537.6653676642848
68,537.6626618763707
69,537.6589354811127
70,537.6542105803222
71,537.6485189895785
72,537.6419022121378
73,537.6344113439555
74,537.626106911932
75,537.6170586481442
76,537.6073452026598
77,537.5970537969924
78,537.5862798199912
79,537.5751263681082
80,537.5637037321653
81,537.5521288324946
82,537.540524603444
83,537.5290193269283
84,537.5177459136847
85,537.5068411310002
86,537.4964447769031
87,537.4866988024203
88,537.4777463849133
89,537.469730956737
90,537.4627951946876
91,537.4570799769283
92,537.4527233152604
93,537.4498592719364
94,537.4486168718284
95,537.449119022276
96,537.4514814535054
97,537.4558116918305
98,537.4622080765467
99,537.4707588305263
100,537.4815411944795
101,537.4946206351572
102,537.5100501375365
103,537.527869590049
104,537.5481052708175
105,537.5707694422968
106,537.5958600615337
107,537.6233606128835
108,537.653240068735
109,537.6854529813311
110,537.7199397057835
111,537.7566267518716
112,537.7954272601503
113,537.8362415955324
114,537.8789580489188
115,537.9234536356774
116,537.9695949794424
117,538.0172392702659
118,538.0662352866395
119,538.1164244708225
120,538.1676420465479
121,538.2197181678432
122,538.2724790872209
123,538.3257483304812
124,538.3793478640348
125,538.4330992399657
126,538.4868247049058
127,538.5403482610656
128,538.593496670627
129,538.6461003974875
130,538.6979944829434
131,538.7490193541242
132,538.7990215653373
133,538.8478544728945
134,538.895378844278
135,538.9414634034388
136,538.9859853156019
137,539.0288306164879
138,539.0698945916104
139,539.1090821108679
140,539.1463079222515
141,539.1814969067527
142,539.2145842949989
143,539.2455158447308
144,539.2742479766634
145,539.3007478646153
146,539.3249934747786
147,539.3469735491811
148,539.3666875294917
149,539.384145418513
150,539.3993675775579
151,539.412384458654
152,539.4232362715711
153,539.4319725871059
154,539.4386518796134
155,539.4433410129316
156,539.4461146743093
157,539.4470547611493
158,539.446249725942
159,539.4437938858268
160,539.4397867041831
161,539.4343320518441
162,539.4275374547441
163,539.419513333798
164,539.4103722425407
165,539.4002281085917
166,539.3891954853995
167,539.3773888203156
168,539.3649217444141
169,539.3519063895745
170,539.3384527392972
171,539.3246680206631
172,539.3106561450005
173,539.2965172041835
174,539.2823470283982
175,539.2682368096401
176,539.2542727930694
177,539.240536035975
178,539.2271022321612
179,539.214041598535
180,539.201418820387
181,539.1892930516365
182,539.1777179655684
183,539.1667418505511
184,539.1564077447262
185,539.146753604224
186,539.1378125007333
187,539.1296128452858
188,539.122178635399
189,539.115529722432
190,539.1096820955834
191,539.1046481785124
192,539.100437134272
193,539.0970551743611
194,539.0945058681112
195,539.092790448654
196,539.0919081111534
197,539.0918562985726
198,539.0926309708443
199,539.0942268548533
200,539.0966376741355
201,539.0998563578643
202,539.1038752286807
203,539.1086861690601
204,539.1142807665244
205,539.1206504384561
206,539.1277865365969
207,539.1356804296184
208,539.1443235606638
209,539.1537074767753
210,539.1638238286682
211,539.1746643411533
212,539.1862207555166
213,539.1984847454224
214,539.2114478081548
215,539.225101133421
216,539.2394354519997
217,539.2544408661269
218,539.2701066633899
219,539.2864211167918
220,539.3033712754428
221,539.3209427521194
222,539.3391195146381
223,539.3578836872476
224,539.377215366418
225,539.3970924531802
226,539.4174905020143
227,539.4383825845536
228,539.4597391654693
229,539.4815279881681
230,539.503713969381
231,539.5262591036866
232,539.5491223802571
233,539.5722597139694
234,539.59562389221
235,539.6191645384856
236,539.6428280947828
237,539.6665578260249
238,539.6902938511083
239,539.7139732052312
240,539.737529937677
241,539.76089524837
242,539.7839976656034
243,539.8067632663017
244,539.8291159391628
245,539.8509776899593
246,539.8722689870872
247,539.8929091442554
248,539.9128167363305
249,539.9319100438091
250,539.9501075211683
251,539.9673282844864
252,539.9834926141544
253,539.9985224686777
254,540.0123420050387
255,540.0248781000245
256,540.0360608659652
257,540.0458241539419
258,540.0541060376753
259,540.0608492716331
260,540.0660017172307
261,540.0695167314191
262,540.07135351241
263,540.071477397585
264,540.0698601086347
265,540.0664799388786
266,540.0613218779599
267,540.0543776701364
268,540.0456458041189
269,540.0351314343611
270,540.0228462356278
271,540.0088081944682
272,539.9930413427195
273,539.9755754392118
274,539.956445606698
275,539.9356919319802
276,539.9133590381866
277,539.8894956387084
278,539.8641540818824
279,539.8373898941115
280,539.8092613273091
281,539.7798289149422
282,539.7491550397676
283,539.7173035156774
284,539.6843391857415
285,539.6503275381624
286,539.6153343413309
287,539.5794252986476
288,539.5426657234492
289,539.5051202345444
290,539.4668524736767
291,539.427924847234
292,539.3883982950623
293,539.3483320893046
294,539.307783666104
295,539.2668084927743
296,539.2254599723871
297,539.1837893867126
298,539.1418458772548
299,539.0996764629458
300,539.0573260925069
301,539.0148377302628
302,538.9722524760166
303,538.9296097209101
304,538.8869473407198
305,538.8443019257687
306,538.8017090434099
307,538.7592035256255
308,538.7168197713619
309,538.6745920515662
310,538.632554805267
311,538.5907429175506
312,538.5491919738253
313,538.5079384877585
314,538.4670201019542
315,538.4264757612093
316,538.3863458588153
317,538.3466723572227
318,538.3074988852179
319,538.2688708137832
320,538.2308353113494
321,538.1934413764897
322,538.1567398433517
323,538.1207833533538
324,538.0856262863043
325,538.0513246448984
326,538.0179358877141
327,537.9855187067421
328,537.9541327463105
329,537.9238382616174
330,537.894695717176
331,537.8667653279949
332,537.840106548783
333,537.8147775183647
334,537.7908344676083
335,537.7683310998693
336,537.74731795389
337,537.7278417603699
338,537.7099448046175
339,537.693664308428
340,537.6790318443932
341,537.6660727950633
342,537.6548058676714
343,537.645242672836
344,537.6373873732888
345,537.6312364066558
346,537.6267782847397
347,537.6239934704455
348,537.6228543325411
349,537.6233251780084
350,537.6253623616652
351,537.6289144725673
352,537.6339225963353
353,537.6403206522497
354,537.6480358038555
355,537.6569889419276
356,537.6670952390289
357,537.6782647753854
358,537.6904032357464
359,537.7034126755537
360,537.7171923520375
361,537.7316396123812
362,537.7466508278075
363,537.7621223603103
364,537.7779515481751
365,537.7940376966034
366,537.8102830594238
367,537.8265937966825
368,537.8428808916443
369,537.8590610104706
370,537.8750572890336
371,537.8908000339048
372,537.9062273282317
373,537.9212855374493
374,537.9359297133212
375,537.950123896379
376,537.9638413163339
377,537.9770644889613
378,537.9897852081975
379,538.0020044344194
380,538.0137320829963
381,538.0249867194666
382,538.0357951684862
383,538.046192043785
384,538.0562192066658
385,538.0659251611145
386,538.0753643938593
387,538.0845966675204
388,538.0936862747994
389,538.1027012621147
390,538.1117126325051
391,538.1207935396881
392,538.1300184869436
393,538.1394625451724
394,538.1492006037769
395,538.1593066662102
396,538.1698531994592
397,538.1809105438223
398,538.1925463864296
399,538.204825299117
400,538.2178083386276
401,538.2315527052633
402,538.2461114556412
403,538.2615332660399
404,538.2778622441199
405,538.2951377876271
406,538.3133944888389
407,538.3326620834464
408,538.3529654425604
409,538.3743246063281
410,538.3967548572325
411,538.4202668307794
412,538.4448666608541
413,538.4705561561029
414,538.4973330022776
415,538.5251909841862
416,538.5541202200615
417,538.584107400831
418,538.6151360270466
419,538.647186637339
420,538.6802370240566
421,538.7142624334904
422,538.749235749073
423,538.7851276561947
424,538.8219067875876
425,538.859539849183
426,538.8979917276785
427,538.9372255819885
428,538.9772029207277
429,539.0178836671107
430,539.0592262118265
431,539.101187454147
432,539.1437228319832
433,539.1867863424305
434,539.230330554808
435,539.2743066179781
436,539.3186642633655
437,539.3633518051608
438,539.4083161397415
439,539.4535027470297
440,539.4988556970839
441,539.5443176654481
442,539.5898299605739
443,539.6353325661964
444,539.680764201407
445,539.7260624014735
446,539.7711636228146
447,539.8160033753184
448,539.86051638407
449,539.9046367804094
450,539.9482983198405
451,539.9914346231042
452,540.0339794375805
453,540.0758669182438
454,540.1170319289226
455,540.157410364683
456,540.1969394950287
457,540.2355583260356
458,540.2732079780797
459,540.3098320747139
460,540.3453771373393
461,540.3797929793908
462,540.4130330931109
463,540.4450550222372
464,540.4758207152468
465,540.5052968554668
466,540.5334551654961
467,540.5602726836818
468,540.5857320102555
469,540.6098215206611
470,540.6325355437638
471,540.6538745029284
472,540.6738450182518
473,540.6924599682388
474,540.7097385085613
475,540.7257060443067
476,540.7403941508791
477,540.7538404381561
478,540.7660883531468
479,540.7771869185001
480,540.7871904076561
481,540.7961579615489
482,540.8041531554582
483,540.8112435267099
484,540.8175000739566
485,540.8229967372018
486,540.8278098658067
487,540.8320176805307
488,540.8356997354763
489,540.8389363860641
490,540.8418082692131
491,540.8443958013922
492,540.8467786992059
493,540.84903552596
494,540.8512432665473
495,540.8534769320621
496,540.8558091949853
497,540.8583100558261
498,540.8610465426464
499,540.8640824453391
500,540.8674780865106
501,540.8712901305607
502,540.8755714323315
503,540.8803709264215
504,540.885733557728
505,540.8917002527247
506,540.8983079293437
507,540.9055895414784
508,540.913574152616
509,540.9222870323329
510,540.931749769391
511,540.9419803956652
512,540.9529935157615
513,540.96480043782
514,540.9774093018832
515,540.9908252037352
516,541.0050503142418
517,541.0200839961377
518,541.0359229210025
519,541.0525611886674
520,541.0699904500558
521,541.0882000332579
522,541.1071770721379
523,541.1269066369557
524,541.1473718668043
525,541.1685541037734
526,541.1904330288359
527,541.2129867997812
528,541.2361921918044
529,541.2600247409233
530,541.2844588891012
531,541.3094681286605
532,541.3350251433975
533,541.3611019448832
534,541.3876700038562
535,541.414700377343
536,541.4421638317316
537,541.4700309610097
538,541.4982722986683
539,541.5268584216202
540,541.5557600443343
541,541.5849481008661
542,541.6143938118768
543,541.6440687336185
544,541.6739447864741
545,541.7039942620293
546,541.7341898097104
547,541.7645044063127
548,541.7949113135703
549,541.8253840297643
550,541.8558962412379
551,541.8864217788499
552,541.9169345829506
553,541.9474086788099
554,541.9778181634615
555,542.0081372052482
556,542.038340058611
557,542.0684010978873
558,542.098294874249
559,542.1279961991763
560,542.1574802563814
561,542.1867227425307
562,542.2157000358123
563,542.2443893899958
564,542.2727691497274
565,542.3008189807531
566,542.3285201075755
567,542.3558555513938
568,542.3828103628119
569,542.4093718458839
570,542.4355297715906
571,542.4612765792597
572,542.4866075639527
573,542.5115210471953
574,542.5360185283342
575,542.5601048144568
576,542.5837881276753
577,542.6070801889348
578,542.6299962772448
579,542.6525552629199
580,542.6747796135846
581,542.696695372493
582,542.7183321097698
583,542.7397228479593
584,542.76090396362
585,542.7819150668204
586,542.8027988601724
587,542.8236009780949
588,542.8443698053409
589,542.8651562720192
590,542.8860136212835
591,542.9069971462899
592,542.928163895094
593,542.9495723451047
594,542.9712820513975
595,542.993353275009
596,543.0158465985643
597,543.0388225375913
598,543.0623411564505
599,543.0864616974781
600,543.1112422305443
601,543.136739328148
602,543.1630077689698
603,543.1901002709917
604,543.2180672539752
605,543.2469566299262
606,543.2768136186901
607,543.3076805843086
608,543.339596887461
609,543.3725987511292
610,543.4067191399712
611,543.4419876567587
612,543.4784304601226
613,543.5160702072762
614,543.5549260250344
615,543.5950135130538
616,543.6363447841197
617,543.6789285466232
618,543.7227702337883
619,543.7678721826178
620,543.8142338628168
621,543.8618521521621
622,543.9107216505495
623,543.9608350214831
624,544.0121833480414
625,544.0647564903066
626,544.1185434323352
627,544.1735326086858
628,544.2297122033451
629,544.287070417405
630,544.345595705377
631,544.4052769827429
632,544.4661038088655
633,544.5280665498221
634,544.5911565251615
635,544.655366141012
636,544.7206890095679
637,544.7871200525071
638,544.8546555842847
639,544.9232933708685
640,544.9930326599521
641,545.0638741794546
642,545.1358201020113
643,545.208873974354
644,545.2830406123248
645,545.358325964782
646,545.434736952142
647,545.5122812868374
648,545.5909672835033
649,545.6708036668659
650,545.7517993853345
651,545.8339634377057
652,545.9173047187375
653,546.0018318869327
654,546.0875532555278
655,546.1744767062257
656,546.2626096247965
657,546.3519588576362
658,546.442530688153
659,546.5343308316634
660,546.6273644477501
661,546.7216361695213
662,546.8171501493914
663,546.913910120917
664,547.0119194761518
665,547.111181357864
666,547.2116987655046
667,547.3134746731016
668,547.4165121565252
669,547.520814526927
670,547.6263854665796
671,547.7332291627416
672,547.8413504344458
673,547.9507548463804
674,548.0614488035206
675,548.1734396196338
676,548.2867355520352
677,548.401345794453
678,548.5172804204025
679,548.6345502712599
680,548.7531667857569
681,548.8731417704053
682,548.9944871131792
683,549.1172144454953
684,549.2413347601222
685,549.3668579950098
686,549.4937925947078
687,549.6221450616084
688,549.7519195090093
689,549.8831172276379
690,550.0157362768412
691,550.1497711103555
692,550.2852122440396
693,550.4220459700317
694,550.5602541197147
695,550.699813876932
696,550.8406976424835
697,550.9828729506103
698,551.1263024380623
699,551.2709438666586
700,551.4167502007989
701,551.5636697416943
702,551.7116463198494
703,551.8606195467252
704,552.0105251257062
705,552.1612952212859
706,552.312858883531
707,552.4651425225659
708,552.61807042561
709,552.771565307431
710,552.9255488839053
711,553.0799424573073
712,553.2346675007146
713,553.3896462278739
714,553.5448021349287
715,553.7000605019225
716,553.8553488442925
717,554.0105973067463
718,554.1657389936405
719,554.3207102316424
720,554.4754507624995
721,554.6299038661897
722,554.7840164170299
723,554.9377388768821
724,555.0910252301613
725,555.2438328651767
726,555.3961224059591
727,555.5478574985854
728,555.6990045562865
729,555.8495324681841
730,555.9994122770147
731,556.1486168313007
732,556.297120417111
733,556.4448983742047
734,556.5919267013336
735,556.7381816558864
736,556.8836393537277
737,557.0282753756609
738,557.1720643869776
739,557.314979775812
740,557.4569933144954
741,557.5980748458328
742,557.7381919935409
743,557.8773098939558
744,558.0153909454397
745,558.1523945725447
746,558.288277003125
747,558.4229910575564
748,558.5564859498062
749,558.688707100509
750,558.8195959630565
751,558.9490898653532
752,559.0771218717132
753,559.2036206702496
754,559.3285104906064
755,559.4517110557698
756,559.5731375710222
757,559.6927007530601
758,559.8103069023808
759,559.925858021768
760,560.0392519830584
761,560.1503827435189
762,560.2591406122721
763,560.365412566371
764,560.4690826152346
765,560.5700322109135
766,560.6681406999787
767,560.7632858111077
768,560.8553441711526
769,560.9441918415649
770,561.0297048662878
771,561.11175982184
772,561.1902343607849
773,561.2650077411369
774,561.3359613361401
775,561.4029791208756
776,561.4659481338754
777,561.524758912773
778,561.5793059028132
779,561.6294878365186
780,561.6752080831111
781,561.7163749678474
782,561.752902063525
783,561.7847084580951
784,561.8117190031287
785,561.8338645478216
786,561.8510821625664
787,561.8633153551697
788,561.8705142817524
789,561.8726359533046
790,561.8696444379094
791,561.8615110579343
792,561.8482145808679
793,561.8297414017071
794,561.806085713915
795,561.7772496653108
796,561.743243494942
797,561.7040856468846
798,561.6598028570877
799,561.6104302098627
800,561.5560111611184
801,561.4965975256437
802,561.4322494257648
803,561.3630351991959
804,561.2890312654627
805,561.2103219528512
806,561.126999290302
807,561.0391627696067
808,560.946919082324
809,560.8503818342072
810,560.7496712392631
811,560.6449137962734
812,560.5362419516084
813,560.4237937520821
814,560.3077124901433
815,560.1881463418501
816,560.065247997011
817,559.9391742808593
818,559.8100857669901
819,559.678146381392
820,559.5435229972323
821,559.4063850199318
822,559.2669039621255
823,559.1252530083577
824,558.9816065696467
825,558.8361398282915
826,558.6890282736065
827,558.5404472297898
828,558.3905713776189
829,558.2395742718923
830,558.0876278566991
831,557.9349019808344
832,557.7815639156884
833,557.627777877542
834,557.4737045559185
835,557.3195006501743
836,557.1653184178531
837,557.0113052397446
838,556.8576032072871
839,556.7043487375647
840,556.551672219939
841,556.3996976970269
842,556.2485425818763
843,556.0983174126573
844,555.9491256455734
845,555.8010634861465
846,555.6542197589798
847,555.5086758163728
848,555.3645054861399
849,555.2217750586436
850,555.0805433128677
851,554.9408615814406
852,554.8027738542578
853,554.6663169191726
854,554.5315205363779
855,554.3984076414906
856,554.2669945716636
857,554.137291309237
858,554.0093017380549
859,553.8830239083463
860,553.7584503069825
861,553.6355681309221
862,553.5143595624746
863,553.3948020454284
864,553.276868561084
865,553.1605279029702
866,553.0457449488845
867,552.9324809291952
868,552.8206936910209
869,552.7103379585836
870,552.6013655901819
871,552.4937258315088
872,552.3873655637889
873,552.2822295442375
874,552.178260636226
875,552.0754000273278
876,551.9735874348368
877,551.8727612998985
878,551.7728589725535
879,551.6738168907006
880,551.57557075628
881,551.4780557115963
882,551.3812065173012
883,551.2849577313701
884,551.1892438861388
885,551.0939996587443
886,550.9991600294877
887,550.9046604228073
888,550.8104368266233
889,550.7164258872525
890,550.6225649784317
891,550.5287922441998
892,550.4350466165411
893,550.3412678096437
894,550.2473962932581
895,550.1533732478964
896,550.059140504477
897,549.9646404707537
898,549.8698160470651
899,549.7746105347937
900,549.6789675419383
901,549.5828308907771
902,549.4861445325607
903,549.3888524735737
904,549.2908987156933
905,549.192227212662
906,549.0927818409418
907,548.9925063817097
908,548.8913445088103
909,548.7892397768966
910,548.6861356049995
911,548.58197525304
912,548.476701791366
913,548.3702580655881
914,548.2625866607345
915,548.1536298701822
916,548.0433296756931
917,547.9316277447883
