acceleration,velocity,displacement
-0.007001652951888144,0.0,0.0
-0.00755443436371309,-3.639021828900309e-06,-9.097554572250773e-10
-0.00810826327777435,-7.554696239272169e-06,-3.7081849742681965e-09
-0.008669898273456439,-1.1749236627079868e-05,-8.534168190856206e-09
-0.009245381372828237,-1.6228056538651037e-05,-1.5528491482288933e-08
-0.009839797906207749,-2.0999351358410035e-05,-2.4835343456554203e-08
-0.010457073182478571,-2.6073569130581617e-05,-3.660357357880212e-08
-0.011099809981867282,-3.146278992166808e-05,-5.0987663341864544e-08
-0.011769167919960341,-3.7180034397124986e-05,-6.814836942156282e-08
-0.012464785583607444,-4.3238522773016935e-05,-8.825300871409829e-08
-0.013184748670350957,-4.965090633650654e-05,-1.1147536599147915e-07
-0.013925610186388703,-5.642849605069145e-05,-1.3799521658827865e-07
-0.01468247011327893,-6.358051612560835e-05,-1.679974696323536e-07
-0.015449121081011867,-7.111341392418106e-05,-2.0167095214480096e-07
-0.016218263654014204,-7.903026010793758e-05,-2.3920687065283064e-07
-0.016981790003960436,-8.733027352243125e-05,-2.8079700406042284e-07
-0.017731128026206838,-9.600850302997307e-05,-3.266316981985239e-07
-0.018457630114548013,-0.00010505569256516178,-3.768977470973076e-07
-0.019152983671796613,-0.00011445834601174795,-4.3177625674153504e-07
-0.019809615937595514,-0.000124198995914096,-4.91440592222996e-07
-0.02042106471945722,-0.00013425666607835919,-5.560545077211097e-07
-0.020982288576646607,-0.00014460750440238514,-6.257705503412958e-07
-0.021489893951098116,-0.00015522555003432133,-7.007288139504724e-07
-0.021942262630977392,-0.0001660835891798402,-7.810560987540129e-07
-0.02233957127269731,-0.00017715404765575887,-8.668655079629126e-07
-0.022683704619344425,-0.0001884098666287693,-9.582564865340447e-07
-0.022978073199083144,-0.00019982531108337617,-1.055315280962081e-06
-0.023227352760469014,-0.0002113766675732642,-1.158115775626241e-06
-0.02343716572174015,-0.0002230427971938165,-1.2667206418180112e-06
-0.023613724783334792,-0.00023480551982008524,-1.3811827210714865e-06
-0.023763457811748764,-0.0002466498154688561,-1.5015465548937219e-06
-0.023892633998424135,-0.0002585638384213993,-1.6278499683662857e-06
-0.02400701372088111,-0.0002705387503512256,-1.760125615559442e-06
-0.024111544595118734,-0.00028256838993022556,-1.8984024006298047e-06
-0.024210121504962427,-0.00029464880645524585,-2.0427066997261726e-06
-0.024305421186345846,-0.0003067776921280729,-2.1930633243720022e-06
-0.024398816170320324,-0.0003189537514672394,-2.3494961852708305e-06
-0.024490369382481086,-0.0003311760478554398,-2.5120286351015004e-06
-0.024578907080473413,-0.0003434433669711784,-2.680683488808155e-06
-0.024662162563527625,-0.00035575363438217867,-2.855482739146494e-06
-0.024736977489121167,-0.0003681034193953409,-3.036447002590874e-06
-0.024799543654790437,-0.0003804875496813188,-3.223594744860039e-06
-0.024845666527661948,-0.0003928988522269319,-3.4169413453371015e-06
-0.024871032401501986,-0.0004053280269592229,-3.6164980651336403e-06
-0.02487146297848298,-0.00041776365080421914,-3.8222709845745005e-06
-0.024843143474018534,-0.0004301923024173445,-4.034259972879892e-06
-0.02478281303642354,-0.000442598791544955,-4.252457746370466e-06
-0.024687910085980473,-0.000454966472325556,-4.4768490623380936e-06
-0.02455667012496676,-0.0004672776173782928,-4.707410084764056e-06
-0.024388178602901586,-0.0004795138295602599,-4.944107946498694e-06
-0.024182385235741313,-0.0004916564705199206,-5.186900521518739e-06
-0.023940087739771472,-0.0005036870887637988,-5.435736411339669e-06
-0.023662892000219735,-0.0005155878336987966,-5.690555141955318e-06
-0.02335315332948759,-0.0005273418450312235,-5.951287561637823e-06
-0.02301390136005381,-0.0005389336087036088,-6.217856425071531e-06
-0.022648750314668058,-0.0005503492716222892,-6.490177145153005e-06
-0.022261797050756035,-0.0005615769084636453,-6.7681586901744885e-06
-0.0218575105231642,-0.0005726067353571254,-7.051704601129681e-06
-0.021440616844626757,-0.0005834312671990731,-7.340714101768731e-06
-0.021015984058290565,-0.0005940454174248025,-7.6350832729247e-06
-0.020588511322577874,-0.0006044465412700196,-7.934706262598405e-06
-0.020163028075210948,-0.0006146344261194668,-8.239476504445776e-06
-0.019744207998651734,-0.0006246112351379325,-8.549287919760127e-06
-0.019336499973030316,-0.000634381412130853,-8.864036081577323e-06
-0.018944075664535567,-0.0006439515560402445,-9.183619323620098e-06
-0.0185707926264298,-0.0006533302731129858,-9.507939780908406e-06
-0.0182201724121732,-0.0006625280143726366,-9.836904352779812e-06
-0.017895393962510144,-0.0006715569059663074,-1.0170425582864549e-05
-0.017599303180333477,-0.0006804305802520183,-1.050842245441913e-05
-0.017334440468240897,-0.0006891640161641619,-1.0850821103523174e-05
-0.017103088192255814,-0.0006977733983292862,-1.1197555457146537e-05
-0.016907338000749752,-0.0007062760048775375,-1.1548567807948243e-05
-0.016749173737821147,-0.0007146901328121802,-1.1903809342370672e-05
-0.01663056121356359,-0.0007230350665500265,-1.2263240642211223e-05
-0.016553533172385164,-0.0007313310901465136,-1.2626832181385358e-05
-0.016520257353806432,-0.0007395995377780615,-1.2994564838366502e-05
-0.01653307752617075,-0.0007478628714980559,-1.3366430440685532e-05
-0.016594520488082277,-0.0007561447710016191,-1.374243235131045e-05
-0.01670726447881193,-0.0007644702172433427,-1.412258609837169e-05
-0.016874065765245087,-0.000772865549804357,-1.4506920040133615e-05
-0.017097641495003885,-0.0007813584766194192,-1.4895476046739559e-05
-0.01738050947463846,-0.0007899780143618298,-1.528831016948487e-05
-0.0177247899113681,-0.0007987543392083314,-1.568549325787741e-05
-0.018131979795366876,-0.0008077185316350151,-1.6087111475588248e-05
-0.0186027153714603,-0.000816902205426722,-1.6493266659853683e-05
-0.01913653972665185,-0.00082633701920125,-1.6904076466010674e-05
-0.01973169086420847,-0.000836054076848965,-1.7319674240023227e-05
-0.02038492283242832,-0.0008460832302731242,-1.774020856680375e-05
-0.021091370117670077,-0.0008564523035106489,-1.8165842450249694e-05
-0.0218444635492119,-0.0008671862619273694,-1.85967520916092e-05
-0.022635903862721993,-0.0008783063537803528,-1.903312524553613e-05
-0.02345569680261372,-0.0008898292539466868,-1.9475159147467888e-05
-0.02429225127964278,-0.000901766240967251,-1.9923058021196374e-05
-0.02513253910466303,-0.0009141224385633274,-2.037703019107902e-05
-0.025962310742571996,-0.0009268961510251362,-2.0837284838476133e-05
-0.026766357506967726,-0.0009400783180875211,-2.1304028455754298e-05
-0.027528808955760046,-0.000953652109703203,-2.177746106270198e-05
-0.028233455854022375,-0.0009675926759056487,-2.2257772259104193e-05
-0.028864092116318643,-0.000981867062898234,-2.2745137193805165e-05
-0.029404870754913864,-0.000996434303616042,-2.3239712535433734e-05
-0.029840667760057414,-0.001011245688244785,-2.374163253339894e-05
-0.030157445441863273,-0.001026245216545265,-2.4251005259596454e-05
-0.030342605612733425,-0.0010413702293089143,-2.476790912106e-05
-0.03038532373551392,-0.0010565522116459762,-2.5292389731298724e-05
-0.030276855947971974,-0.0010717177565668476,-2.582445722335193e-05
-0.030010810011714118,-0.001086789673056769,-2.6364084080757836e-05
-0.02958336907459069,-0.0011016882178283452,-2.6911203553479113e-05
-0.028993455408192644,-0.001116332423949041,-2.746570871392346e-05
-0.028242822015300845,-0.0011306414933049144,-2.8027452193236948e-05
-0.027336064043208593,-0.0011445362148195417,-2.8596246620268063e-05
-0.026280547424365842,-0.0011579403676864354,-2.917186576589456e-05
-0.025086256350976253,-0.001170782068630271,-2.9754046374973736e-05
-0.023765564173358542,-0.0011829950237613547,-3.0342490648071642e-05
-0.02233293626357504,-0.0011945196488705881,-3.093686931622963e-05
-0.020804578151359977,-0.0012053040274743218,-3.153682523531586e-05
-0.019198044870142678,-0.0012153046832296974,-3.214197741299186e-05
-0.017531826235749923,-0.0012244871510061705,-3.275192537155083e-05
-0.01582491928428,-0.001232826337386178,-3.3366253743648914e-05
-0.014096396121848216,-0.00124030666623771,-3.398453699455489e-05
-0.012364974316858105,-0.0012469220088473865,-3.460634416332616e-05
-0.010648596991401731,-0.0012526754016744515,-3.523124351595662e-05
-0.008964030001656282,-0.001257578558422716,-3.5858807005980915e-05
-0.007326484554048728,-0.0012616511870616421,-3.6488614442352006e-05
-0.005749276374578954,-0.001264920127293799,-3.712025727094087e-05
-0.004243536515630553,-0.0012674183305163515,-3.7753341885393405e-05
-0.0028179912842398866,-0.0012691837124663191,-3.838749239613907e-05
-0.0014788270980611953,-0.0012702579170618944,-3.9022352803521125e-05
-0.0002296505663036279,-0.0012706850364779857,-3.96575885419061e-05
0.0009284528558948483,-0.001270510335905588,-4.0292887385001993e-05
0.0019967648712403713,-0.0012697790314738042,-4.092795972684684e-05
0.0029786941451106757,-0.0012685351667197165,-4.156253827639522e-05
0.003879463802230125,-0.0012668206272328812,-4.219637722488337e-05
0.004705742699663936,-0.0012646743256074077,-4.282925096309344e-05
0.00546523607243647,-0.0012621315809143827,-4.3460952439723885e-05
0.0061662502643308244,-0.0012592237093301908,-4.409129126228503e-05
0.00681724724908434,-0.001255977834951837,-4.4720091648355536e-05
0.007426407460446426,-0.0012524169212744542,-4.534719033741211e-05
0.008001222208407452,-0.0012485600138572408,-4.5972434571195035e-05
0.008548137530297694,-0.0012444226739225645,-4.6595680243139985e-05
0.009072268611376166,-0.001240017572387146,-4.721679030471741e-05
0.009577198542308913,-0.0012353552055987247,-4.783563349921388e-05
0.010064868947041618,-0.0012304446887263871,-4.845208347279516e-05
0.010535564342598804,-0.001225294580403977,-4.906601829007775e-05
0.01098798692016521,-0.0012199136925882862,-4.967732035832582e-05
0.011419412846832396,-0.0012143118426465368,-5.0285876742134524e-05
0.011825915450121575,-0.0012085005105722984,-5.0891579830439235e-05
0.012202636756435329,-0.001202493372520659,-5.1494328301212474e-05
0.012544088393919657,-0.0011963066912330704,-5.2094028317150904e-05
0.012844465041751815,-0.0011899595528741525,-5.269059487817771e-05
0.013097956083946772,-0.0011834739475927278,-5.328395325329443e-05
0.013299042648518427,-0.0011768746979096115,-5.387404041467001e-05
0.013442768483621534,-0.0011701892451265765,-5.4460806400429054e-05
0.01352497525944587,-0.0011634473091908096,-5.50442155390084e-05
0.013542496150761632,-0.0011566804413382578,-5.562424747664066e-05
0.013493305189509457,-0.00114992149100319,-5.620089795972602e-05
0.013376622401606095,-0.0011432040091054112,-5.677417933475317e-05
0.01319297537928398,-0.0011365616096601886,-5.734412073944457e-05
0.012944217853693714,-0.001130027311351944,-5.791076796969761e-05
0.012633506874926401,-0.0011236328801697891,-5.847418301757804e-05
0.012265242692808187,-0.0011174081927778554,-5.903444328581495e-05
0.011844977779338713,-0.0011113806376598187,-5.959164049342436e-05
0.01137930164078156,-0.0011055745678047887,-6.014587929479052e-05
0.010875705671451744,-0.0011000108159767304,-6.0697275640735895e-05
0.010342429353287755,-0.0010947062822205455,-6.124595491528522e-05
0.00978828839280752,-0.0010896736027840217,-6.179204988653636e-05
0.009222487093240611,-0.0010849209089125096,-6.233569851446048e-05
0.008654418687848883,-0.001080451682467237,-6.287704166230542e-05
0.00809345669272905,-0.0010762647136220926,-6.341622076132775e-05
0.007548739151287803,-0.0010723541646610883,-6.395337548089855e-05
0.007028948691358644,-0.0010687097427004267,-6.448864145773892e-05
0.006542094900972272,-0.001065316981802344,-6.502214813886461e-05
0.006095309210583564,-0.001062157630774455,-6.555401679200881e-05
0.005694664033320213,-0.001059210137463479,-6.60843587340683e-05
0.005345027363450709,-0.0010564502146142864,-6.661327382208775e-05
0.0050499622604459745,-0.0010538514672083121,-6.714084924254339e-05
0.004811677614273238,-0.0010513860572396324,-6.766715862365538e-05
0.004631031989440362,-0.001049025379838704,-6.819226148292497e-05
0.004507587111674578,-0.0010467407250634253,-6.87162030091505e-05
0.004439703582290754,-0.001044503902389934,-6.923901416601384e-05
0.004424669972048224,-0.0010422878090013492,-6.976071209386166e-05
0.004458857111596093,-0.0010400669272304381,-7.02813007779196e-05
0.004537890182423793,-0.0010378177404069332,-7.080077194482895e-05
0.004656830472819289,-0.0010355190602431223,-7.131910614499146e-05
0.00481035700457792,-0.001033152263373773,-7.183627397589569e-05
0.004992937994475066,-0.0010307014396240097,-7.235223740164514e-05
0.005198984788201407,-0.0010281534589283406,-7.286695112628322e-05
0.005422985438255385,-0.0010254979663717263,-7.338036398260823e-05
0.005659618862142767,-0.0010227273152966269,-7.389242030302532e-05
0.005903851965271023,-0.0010198364475897735,-7.440306124374693e-05
0.006151021856325711,-0.0010168227291343743,-7.491222603792796e-05
0.006396904455297886,-0.0010136857475564684,-7.541985315710068e-05
0.006637769786909024,-0.0010104270789959167,-7.592588136373878e-05
0.006870423520113977,-0.001007050030669161,-7.643025064115505e-05
0.007092234638185549,-0.001003559366129586,-7.693290299035473e-05
0.007301150100188831,-0.0009999610199449924,-7.743378308687338e-05
0.007495697169810746,-0.0009962618081274925,-7.793283879389151e-05
0.00767497209591304,-0.0009924691408110615,-7.843002153112615e-05
0.007838612142282438,-0.0009885907447515128,-7.892528650251679e-05
0.007986749071725278,-0.0009846344044480107,-7.941859278981667e-05
0.00811994584853884,-0.0009806077307179448,-7.990990332360816e-05
0.008239121808386011,-0.0009765179638037136,-8.039918474723857e-05
0.008345472598209867,-0.0009723718152020646,-8.088640719199002e-05
0.00844039028719458,-0.0009681753494807135,-8.137154398316071e-05
0.00852538851028307,-0.0009639339047813441,-8.185457129672623e-05
0.008602038325087623,-0.0009596520480725013,-8.23354677849397e-05
0.008671920748349113,-0.0009553335583041421,-8.281421418653385e-05
0.008736599090393966,-0.0009509814283444563,-8.3290792933196e-05
0.00879760841715724,-0.0009465978764675685,-8.3765187759399e-05
0.008856454306977278,-0.0009421843607865349,-8.423738331871253e-05
0.008914612174721365,-0.0009377415941661102,-8.470736480745069e-05
0.008973521885024888,-0.0009332695606511736,-8.5175117596155e-05
0.00903457670378568,-0.000928767536003971,-8.56406268703188e-05
0.009099107641165343,-0.0009242341149177332,-8.610387728304922e-05
0.009168364145964506,-0.0009196672469709507,-8.65648526235214e-05
0.00924349206212866,-0.0009150642829189275,-8.702353550599386e-05
0.009325510198367451,-0.0009104220323538035,-8.747990708481204e-05
0.009415286374042892,-0.0009057368332107009,-8.793394680120317e-05
0.009513512100870387,-0.0009010046335919726,-8.838563216790384e-05
0.009620674174111162,-0.0008962210870232272,-8.883493859805764e-05
0.009737023486762399,-0.0008913816626080087,-8.928183928546545e-05
0.009862546059605857,-0.0008864817702214166,-8.972630514367281e-05
0.009996945962426961,-0.0008815168972159084,-9.016830481053214e-05
0.010139651542693187,-0.0008764827478396284,-9.060780472179603e-05
0.010289854041858457,-0.0008713753714434904,-9.104476925161681e-05
0.010446582380768704,-0.0008661912623378336,-9.147916091006214e-05
0.01060881152323856,-0.0008609274138618318,-9.191094057911205e-05
0.010775595722116178,-0.0008555813120504931,-9.234006776059013e-05
0.01094621312399216,-0.000850150859838966,-9.27665008035625e-05
0.011120305798143852,-0.000844634230108432,-9.319019707604935e-05
0.011298000230271717,-0.0008390296536013281,-9.361111304697679e-05
0.011479997716244606,-0.000833335154114699,-9.40292042489058e-05
0.011667630018844943,-0.0008275482471809267,-9.444442509922971e-05
0.011862879635454564,-0.0008216656197673518,-9.485672856596678e-05
0.012068364148481064,-0.0008156828088213678,-9.526606567311397e-05
0.012287282448234398,-0.0008095938971721889,-9.567238484961236e-05
0.01252332070642602,-0.0008033912463835238,-9.607563113550129e-05
0.012780519120544918,-0.0007970652864267811,-9.647574526870386e-05
0.013063105289554502,-0.0007906043803242562,-9.687266268539162e-05
0.013375304225777157,-0.0007839947779454233,-9.726631247495903e-05
0.013721136687898941,-0.0007772206677170043,-9.765661633637464e-05
0.014104217020156459,-0.0007702643292899905,-9.804348758562638e-05
0.014527560440510666,-0.0007631063849248236,-9.842683026418009e-05
0.01499340827423259,-0.0007557261427461378,-9.880653839609783e-05
0.015503077925345797,-0.0007481020211962432,-9.918249543708344e-05
0.016056842684042713,-0.000740212041043896,-9.955457395264347e-05
0.01665384470414506,-0.0007320343691968491,-9.992263555520366e-05
0.017292042290203168,-0.000723547897448262,-0.00010028653112186493
0.017968190434944225,-0.0007147328392669752,-0.00010064610130604374
0.018677852148220462,-0.000705571328621184,-0.00010100117734801578
0.019415437642362608,-0.0006960480061735382,-0.00010135158218171446
0.020174268729344462,-0.0006861505795806114,-0.000101697131828153
0.02094666703082261,-0.0006758703456405696,-0.00010203763705945829
0.021724066502973136,-0.0006652026622571207,-0.00010237290531143271
0.022497151843903006,-0.0006541473576704016,-0.0001027027428164146
0.023256023248615025,-0.0006427090638972721,-0.00010302695692180652
0.0239903851863462,-0.0006308974617885318,-0.00010334535855322797
0.02468975420018829,-0.0006187274269418982,-0.00010365776477541058
0.02534367950511244,-0.0006062190685155731,-0.00010396400139927494
0.025941970256326587,-0.0005933976560752133,-0.00010426390558042264
0.026474923776913968,-0.0005802934325669031,-0.00010455732835258317
0.02693354928811365,-0.0005669413143006462,-0.00010484413703930006
0.027309781993142407,-0.0005533804814803322,-0.0001051242174882453
0.027596682628551583,-0.0005396538653249087,-0.00010539747607494662
0.027788617230629063,-0.0005258075403601135,-0.00010566384142636787
0.027881410559857357,-0.0005118900334124919,-0.00010592326581981102
0.027872464891069353,-0.0004979515645497603,-0.00010617572621930159
0.0277608350472283,-0.00048404323956518586,-0.00010642122492033033
0.027547251860113014,-0.0004702162178383505,-0.00010665978978468121
0.02723408947264658,-0.0004565208825051606,-0.00010689147405976709
0.026825275773597217,-0.00044300604119359966,-0.00010711635579069177
0.026326149019092613,-0.0004297181849954272,-0.00010733453684723903
0.025743267171749577,-0.0004167008309477166,-0.00010754614160122481
0.025084179141844277,-0.00040399396936931817,-0.00010775131530130407
0.024357168595894638,-0.00039163363243488344,-0.00010795022220175512
0.02357098200567048,-0.00037965159478449217,-0.00010814304350855997
0.022734554027562824,-0.0003680752107761838,-0.00010832997520995013
0.021856744953178502,-0.0003569273860309985,-0.00010851122585915193
0.020946105542373295,-0.00034622667340711055,-0.00010868701437401146
0.020010682555563725,-0.0003359874763826263,-0.0001088575679114589
0.019057873681261328,-0.00032622033732342007,-0.00010902311986488541
0.01809433498277434,-0.00031693228515741116,-0.00010918390802050562
0.01712593912117075,-0.0003081272166314249,-0.00010934017289595282
0.016157779140462833,-0.0002998062870660165,-0.00010949215627187718
0.015194210746263665,-0.0002919682895943349,-0.00010964009991604226
0.014238925282825698,-0.0002846100055870625,-0.00010978424448983761
0.013295044944944913,-0.00027772651303011985,-0.00010992482861949191
0.012365230800214903,-0.0002713114440938299,-0.0001100620881087729
0.011451793391074471,-0.00026535718804600756,-0.00011019625526680785
0.010556795572454834,-0.00025985504080512525,-0.00011032755832402063
0.009682138641362184,-0.000254795307251671,-0.00011045622091103483
0.008829626156021902,-0.000250167366052325,-0.00011058246157936083
0.008001003810350097,-0.000245959708560732,-0.00011070649334801409
0.007197976483732049,-0.00024215996348721144,-0.00011082852326602607
0.006422205049219321,-0.0002387549181039736,-0.00011094875198642386
0.005675286656966976,-0.00023573054517742704,-0.00011106737335224422
0.004958722925942341,-0.0002330720427816997,-0.000111184573999234
