acceleration,velocity,displacement
-0.005750525585660926,0.0,0.0
-0.00661738305952326,-3.0919771612960468e-06,-7.729942903240117e-10
-0.007475317176334772,-6.615152220260555e-06,-3.199776635713162e-09
-0.008322563383505099,-1.0564622360220521e-05,-7.494720280833432e-09
-0.009157413545158156,-1.4934616592386335e-05,-1.3869530018985145e-08
-0.009978220264594276,-1.9718525044824444e-05,-2.253281542828784e-08
-0.010783401029775428,-2.490893036841687e-05,-3.3689679281598174e-08
-0.011571442192899612,-3.049764117408563e-05,-4.75413221672238e-08
-0.012340902786436634,-3.647572741891969e-05,-6.428466431547513e-08
-0.013090418177419927,-4.283355765988383e-05,-8.4111985585176e-08
-0.01381870356841509,-4.956083809634258e-05,-1.072105845242326e-07
-0.014524557361486919,-5.664665332881809e-05,-1.3376245738052277e-07
-0.01520686440492289,-6.407950877042054e-05,-1.6394399790533242e-07
-0.015864599139206643,-7.184737465645292e-05,-1.9792571876205077e-07
-0.0164968286493643,-7.993773160359566e-05,-2.3587199532706292e-07
-0.017102715615801126,-8.833761766988702e-05,-2.779408326454336e-07
-0.017681521135213926,-9.703367685764078e-05,-3.2428365627731553e-07
-0.018232607359399203,-0.00010601220898129406,-3.7504512773704923e-07
-0.018755439878265816,-0.00011525922079071032,-4.303629851800503e-07
-0.019249589759839862,-0.00012476047820023672,-4.903679099277871e-07
-0.019714735157186636,-0.00013450155942949335,-5.551834193352196e-07
-0.020150662398225147,-0.0001444679088183463,-6.249257863971796e-07
-0.020557266486563485,-0.00015464489103954345,-6.99703986361652e-07
-0.020934550959630777,-0.000165017845401092,-7.796196704718109e-07
-0.021282627075916855,-0.00017557213990997893,-8.647671667995786e-07
-0.021601712333530254,-0.0001862932247623407,-9.552335079676586e-07
-0.021892128350468172,-0.00019716668493334033,-1.0510984853915788e-06
-0.0221542981573417,-0.0002081782915602928,-1.152434729514987e-06
-0.022388742963438613,-0.0002193140518404879,-1.2593078153651822e-06
-0.02259607845779868,-0.00023056025719579723,-1.3717763926242534e-06
-0.02277701070507833,-0.00024190352948651647,-1.4898923392948318e-06
-0.02293233169982131,-0.00025333086508774137,-1.6137009379383963e-06
-0.02306291465113333,-0.00026482967667548003,-1.7432410733792017e-06
-0.023169709071048265,-0.0002763878326060254,-1.878545450699578e-06
-0.023253735727031287,-0.0002879936938055453,-2.019640832302471e-06
-0.02331608149867315,-0.0002996361481119714,-2.16654829278185e-06
-0.023357894162537526,-0.00031130464202727405,-2.3192834903166616e-06
-0.023380377119787955,-0.00032298920984785544,-2.477856953285444e-06
-0.023384784071512687,-0.0003346805001456806,-2.6422743807838277e-06
-0.023372413632208898,-0.000346369799571611,-2.8125369557131506e-06
-0.02334460385642096,-0.00035804905394376844,-2.9886416690919953e-06
-0.023302726642935406,-0.0003697108865686075,-3.170581654220089e-06
-0.023248181977612782,-0.00038134861372374456,-3.3583465292931774e-06
-0.02318239197915138,-0.0003929562572129356,-3.5519227470273476e-06
-0.02310679471932272,-0.0004045285538875541,-3.75129394980247e-06
-0.02302283779775107,-0.0004160609620168226,-3.956441328778565e-06
-0.022931971661065198,-0.0004275496643815267,-4.167343985378152e-06
-0.0228356426694796,-0.00043899156796416286,-4.383979293464574e-06
-0.022735285930511547,-0.00045038430011416064,-4.606323260484155e-06
-0.02263231793649932,-0.00046172620108091334,-4.834350885782924e-06
-0.022528129055980048,-0.00047301631282903317,-5.068036514260411e-06
-0.022424075935658924,-0.0004842543640769429,-5.307354183486905e-06
-0.022321473868896567,-0.0004954407515280817,-5.552277962388161e-06
-0.022221589181538652,-0.0005065765172906905,-5.802782279592854e-06
-0.022125631681420118,-0.0005176633225064302,-6.058842239542134e-06
-0.022034747217176662,-0.0005287034172310794,-6.320433924476511e-06
-0.021950010395361944,-0.000539699606634214,-6.587534680442834e-06
-0.02187241750983485,-0.0005506552136105132,-6.860123385504016e-06
-0.021802879739900284,-0.000561574037922947,-7.138180698387381e-06
-0.021742216674165177,-0.0005724603120264634,-7.421689285874734e-06
-0.02169115021910613,-0.0005833186537497812,-7.710634027318795e-06
-0.02165029895389539,-0.0005941540160430315,-8.005002194766997e-06
-0.021620172990386346,-0.0006049716340291019,-8.30478360728503e-06
-0.02160116938845966,-0.0006157769696238135,-8.60997075819826e-06
-0.021593568168168983,-0.0006265756540129706,-8.920558914107456e-06
-0.021597528956123793,-0.0006373734282940438,-9.236546184684209e-06
-0.021613088303313148,-0.000648176082608903,-9.557933562409945e-06
-0.02164015771129042,-0.0006589893941125539,-9.88472493159031e-06
-0.021678522402602148,-0.000669819064141027,-1.0216927046153705e-05
-0.0217278408705326,-0.0006806706549593107,-1.055454947592879e-05
-0.02178764524000238,-0.0006915495264869445,-1.0897604521290354e-05
-0.021857342461221348,-0.0007024607734122504,-1.1246107096265152e-05
-0.021936216340674577,-0.0007134091631127244,-1.1600074580396396e-05
-0.022023430395831305,-0.0007243990747968509,-1.195952663987379e-05
-0.022118031506025433,-0.0007354344402723151,-1.2324485018641082e-05
-0.022218954325112804,-0.0007465186867300997,-1.2694973300391686e-05
-0.022325026421649248,-0.0007576546819167903,-1.3071016642553408e-05
-0.0224349741155583,-0.0007688446820510921,-1.345264148354538e-05
-0.022547428981348427,-0.0007800902828253188,-1.3839875224764483e-05
-0.02266093498554261,-0.0007913923738170416,-1.4232745888925072e-05
-0.022773956223445243,-0.0008027510966192885,-1.4631281756534155e-05
-0.022884885221538837,-0.0008141658069805345,-1.5035510982434111e-05
-0.02299205177833174,-0.0008256350412305022,-1.544546119448687e-05
-0.02309373232680307,-0.000837156487256786,-1.586115907660869e-05
-0.023188159809492258,-0.0008487269602908598,-1.62826299384956e-05
-0.023273534055872885,-0.0008603423837572011,-1.6709897274507616e-05
-0.023348032640886775,-0.000871997775431391,-1.7142982314304764e-05
-0.023409822189705314,-0.000883687239139039,-1.7581903567947372e-05
-0.023457070081690224,-0.000895403962206888,-1.8026676368283853e-05
-0.02348795649614911,-0.0009071402188513478,-1.8477312413548413e-05
-0.023500686732243054,-0.0009188873796584458,-1.893381931317586e-05
-0.023493503725341362,-0.0009306359272728419,-1.9396200139908683e-05
-0.02346470067250968,-0.0009423754783723047,-1.986445299131997e-05
-0.023412633669111838,-0.0009540948119577101,-2.0338570563902474e-05
-0.023335734245477267,-0.0009657819039363574,-2.081853974287599e-05
-0.023232521680590406,-0.0009774239679178744,-2.130434121083955e-05
-0.023101614965813002,-0.0009890075020794753,-2.1795949078338886e-05
-0.02294174429830741,-0.0010005183418955053,-2.229333053933263e-05
-0.022751761995876117,-0.0010119417184690513,-2.279644555442377e-05
-0.022530652733618515,-0.001023262322151425,-2.330524656457889e-05
-0.022277543004501077,-0.0010344643710859548,-2.3819678237888232e-05
-0.021991709704666268,-0.0010455316842632467,-2.433967725172553e-05
-0.021672587747646382,-0.0010564477586263248,-2.4865172112447924e-05
-0.02131977662150165,-0.0010671958497186118,-2.5396083014534156e-05
-0.020933045813597506,-0.0010777590553273865,-2.5932321740795656e-05
-0.020512339034219035,-0.0010881204015393406,-2.6473791605012337e-05
-0.020057777173356765,-0.0010982629305912345,-2.702038743804498e-05
-0.019569659929911942,-0.0011081697898670518,-2.7571995618159552e-05
-0.019048466065059787,-0.0011178243213657948,-2.8128494145967762e-05
-0.018494852254026417,-0.0011272101509455664,-2.8689752764045602e-05
-0.01790965053735991,-0.001136311276643413,-2.9255633120942846e-05
-0.01729386439564111,-0.0011451121553766631,-2.9825988978947865e-05
-0.01664866349061097,-0.0011535977873482262,-3.0400666464629087e-05
-0.015975377137196368,-0.0011617537975051782,-3.097950436084244e-05
-0.015275486594360864,-0.0011695665134380676,-3.156233443857825e-05
-0.014550616279117615,-0.0011770230391564371,-3.214898182672688e-05
-0.013802524012324503,-0.0011841113242292976,-3.2739265417573315e-05
-0.013033090401521941,-0.0011908202278327592,-3.333299830558883e-05
-0.012244307463355916,-0.0011971395772989786,-3.392998825687176e-05
-0.011438266589952497,-0.0012030602208123057,-3.453003820639958e-05
-0.010617145967828694,-0.001208574073951751,-3.5132946780090595e-05
-0.009783197561758035,-0.0012136741598341477,-3.573850883853707e-05
-0.00893873378092351,-0.001218354642669818,-3.634651603916306e-05
-0.00808611395398668,-0.0012226108546035455,-3.6956757413481404e-05
-0.007227730751604173,-0.0012264393157799432,-3.7569019956077276e-05
-0.006365996701161721,-0.0012298377476431346,-3.818308922193305e-05
-0.005503330931795331,-0.0012328050795513737,-3.879874992873167e-05
-0.0046421462688392475,-0.0012353414488515324,-3.94157865608324e-05
-0.003784836772915592,-0.001237448194611971,-4.003398397169827e-05
-0.0029337657954359247,-0.0012391278452540588,-4.065312798166478e-05
-0.002091254600283239,-0.0012403841003529887,-4.1273005968066545e-05
-0.0012595715824818628,-0.00124122180689868,-4.1893407444879465e-05
-0.0004409221029218375,-0.001241646930320031,-4.251412462918414e-05
0.00036256104576587293,-0.00124166652058432,-4.313495299191023e-05
0.0011488265300760442,-0.0012412886736903595,-4.37556917904789e-05
0.0019159127197870686,-0.0012405224888778937,-4.4376144581120964e-05
0.0026619552960248953,-0.0012393780218739408,-4.499611970880892e-05
0.003385194247745716,-0.001237866234487998,-4.56154307728994e-05
0.0040839802884364,-0.0012359989408539526,-4.623389706673489e-05
0.0047567807222380016,-0.001233788750601284,-4.6851343989598696e-05
0.005402184778049687,-0.001231249009226212,-4.746760342955557e-05
0.006018908416852211,-0.0012283937359274866,-4.808251411584399e-05
0.006605798605579384,-0.0012252375591718788,-4.869592193961883e-05
0.007161837040381568,-0.0012217956502603886,-4.93076802419769e-05
0.007686143290187644,-0.0012180836551777463,-4.991765006833643e-05
0.008177977318946487,-0.0012141176250254628,-5.0525700388387235e-05
0.008636741337814427,-0.0012099139453612725,-5.113170828098392e-05
0.009061980941461491,-0.0012054892647914534,-5.1735559083522105e-05
0.009453385493335721,-0.001200860423182754,-5.2337146505515656e-05
0.009810787736192655,-0.0011960443798753719,-5.293637270628019e-05
0.01013416261271285,-0.0011910581422881455,-5.353314833682107e-05
0.010423625288714149,-0.0011859186953127887,-5.41273925462213e-05
0.010679428381614458,-0.0011806429318952066,-5.47190329530233e-05
0.010901958410189457,-0.0011752475851972556,-5.530800558229642e-05
0.011091731495973157,-0.001169749162720715,-5.589425476927591e-05
0.011249388357568434,-0.0011641638827573297,-5.647773303064542e-05
0.011375688644141856,-0.001158507613506902,-5.705840090471148e-05
0.011471504657068178,-0.0011527958151815994,-5.7636226761883605e-05
0.011537814514440197,-0.0011470434853887222,-5.821118658702619e-05
0.011575694822921756,-0.0011412651080543817,-5.878326373538696e-05
0.01158631293037841,-0.0011354746061160567,-5.9352448663929566e-05
0.011570918834989005,-0.0011296852981747148,-5.991873864000226e-05
0.011530836820592317,-0.0011239098592608194,-6.0482137429361146e-05
0.011467456880020292,-0.0011181602858356663,-6.104265496563526e-05
0.01138222598632103,-0.0011124478651190809,-6.160030700337396e-05
0.011276639276639026,-0.0011067831488033408,-6.215511475685456e-05
0.011152231217026798,-0.0011011759311799244,-6.270710452685037e-05
0.01101056681320793,-0.0010956352316723657,-6.325630731756344e-05
0.010853232927039417,-0.0010901692817373038,-6.380275844591585e-05
0.010681829759255381,-0.00108478551606573,-6.43464971453666e-05
0.01049796256695248,-0.0010794905679841781,-6.488756616637908e-05
0.010303233692029531,-0.0010742902689194326,-6.542601137560499e-05
0.01009923497776873,-0.001069189651751983,-6.596188135577284e-05
0.009887540645076215,-0.0010641929578462717,-6.649522700817241e-05
0.00966970069026606,-0.0010593036475124362,-6.702610115951209e-05
0.009447234852603658,-0.0010545244136267189,-6.755455817479688e-05
0.009221627181296179,-0.001049857198118244,-6.808065357773312e-05
0.008994321211025532,-0.0010453032110201636,-6.860444368001773e-05
0.008766715738203484,-0.0010408629517828563,-6.912598522071848e-05
0.008540161180724648,-0.0010365362325531243,-6.964533501680248e-05
0.008315956500931532,-0.0010323222031327103,-7.016254962572394e-05
0.008095346668848032,-0.0010282193773402655,-7.067768502084219e-05
0.007879520635803314,-0.0010242256605141027,-7.119079628030579e-05
0.0076696097790295075,-0.0010203383779103946,-7.170193728991191e-05
0.007466686772881942,-0.0010165543037724168,-7.221116046033262e-05
0.007271764846302777,-0.0010128696908676205,-7.271851645899263e-05
0.007085797396064224,-0.0010092803003070288,-7.32240539567863e-05
0.006909677933381737,-0.0010057814314746673,-7.372781938973172e-05
0.006744240342992477,-0.0010023679519055738,-7.422985673557678e-05
0.006590259430774242,-0.000999034326962132,-7.473020730529371e-05
0.006448451731651732,-0.0009957746491715256,-7.522890954932712e-05
0.006319476545117609,-0.0009925826671023333,-7.572599887839559e-05
0.006203937162621903,-0.0009894518136753985,-7.622150749859003e-05
0.00610238225150765,-0.000986375233821866,-7.671546426046434e-05
0.006015307363014825,-0.0009833458114182354,-7.720789452177437e-05
0.0059431565316737925,-0.0009803561954445632,-7.769882002349007e-05
0.005886323928203568,-0.000977398825329594,-7.818825877868361e-05
0.005845155524099234,-0.0009744659554665182,-7.867622497388264e-05
0.005819950730808311,-0.0009715496789027913,-7.916272888247496e-05
0.005810963988981325,-0.0009686419502228439,-7.964777678975637e-05
0.005818406295625097,-0.0009657346076516923,-8.013137092922501e-05
0.005842446662323694,-0.0009628193944122051,-8.061350942974098e-05
0.005883213497408379,-0.0009598879793722721,-8.10941862731871e-05
0.0059407959059204546,-0.0009569319770214398,-8.157339126228552e-05
0.006015244906334064,-0.0009539429668183762,-8.205110999824547e-05
0.006106574566622307,-0.0009509125119501371,-8.25273238679376e-05
0.006214763056636202,-0.0009478321775443225,-8.300201004031121e-05
0.006339753599421099,-0.0009446935483803081,-8.347514147179237e-05
0.006481455291621478,-0.0009414882461575475,-8.394668692042683e-05
0.0066397437633320235,-0.0009382079463938091,-8.441661096856467e-05
0.006814461660799965,-0.000934844395037776,-8.488487405392256e-05
0.007005418951012016,-0.000931389424884823,-8.535143250890322e-05
0.0072123930557916995,-0.000927834971883122,-8.58162386080952e-05
0.007435128825307765,-0.0009241730914128472,-8.627924062391919e-05
0.007673338363136196,-0.0009203959746157362,-8.674038289042634e-05
0.007926700718620056,-0.0009164959648452971,-8.71996058752916e-05
0.008194861462917266,-0.0009124655742999127,-8.765684626007791e-05
0.008477432161984167,-0.0009082975008936874,-8.811203702887632e-05
0.00877398975888575,-0.0009039846454134699,-8.85651075654531e-05
0.009084075885453418,-0.0008995201290023851,-8.901598375905707e-05
0.009407196138591626,-0.0008948973109963738,-8.946458811905676e-05
0.009742819371606386,-0.0008901098071188243,-8.991083989858556e-05
0.01009037705707219,-0.0008851515080116547,-9.035465522736818e-05
0.010449262771531659,-0.0008800165980545038,-9.079594725388472e-05
0.010818831837091236,-0.000874699574402348,-9.123462629699894e-05
0.011198401136298906,-0.0008691952661590005,-9.167060000713928e-05
0.011587249098608608,-0.0008634988536002736,-9.21037735370791e-05
0.011984615842198577,-0.0008576058873650717,-9.253404972232044e-05
0.012389703447316101,-0.000851512307542693,-9.296132927104738e-05
0.0128016763395733,-0.0008452144625959707,-9.338551096358205e-05
0.013219661773777617,-0.000838709128067633,-9.380649186124795e-05
0.01364275042534941,-0.0008319935250178512,-9.422416752451932e-05
0.014069997106797287,-0.0008250653381348145,-9.463843224030748e-05
0.01450042162541561,-0.0008179227334517612,-9.504917925820412e-05
0.014933009791448739,-0.0008105643755975452,-9.545630103546645e-05
0.01536671458398345,-0.0008029894445036872,-9.585968949049176e-05
0.015800457488750978,-0.0007951976514855035,-9.625923626448907e-05
0.01623313003368855,-0.0007871892546048937,-9.665483299101167e-05
0.01666359555751217,-0.0007789650732070936,-9.704637157296466e-05
0.017090691248378077,-0.000770526501505621,-9.743374446664285e-05
0.017513230484887257,-0.0007618755210723046,-9.781684497228733e-05
0.01793000550446531,-0.0007530147120749665,-9.819556753057415e-05
0.018339790416238424,-0.0007439472630947905,-9.856980802436658e-05
0.018741344566722634,-0.0007346769793490503,-9.893946408497754e-05
0.019133416257844052,-0.0007252082891429086,-9.930443540210053e-05
0.019514746807809586,-0.0007155462483764952,-9.966462403648038e-05
0.019884074935144724,-0.0007056965429407566,-0.0001000199347343097
0.02024014143611553,-0.0006956654888479416,-0.00010037027524225687
0.02058169411820071,-0.0006854600299593625,-0.0001007155566219587
0.02090749294772779,-0.0006750877331928804,-0.00010105569356274676
0.02121631536780842,-0.0006645567811139964,-0.00010139060469132348
0.02150696174394585,-0.0006538759618360578,-0.000101720212877061
0.021778260898227073,-0.0006430546561755145,-0.00010204444553156389
0.022029075694585485,-0.0006321028220273114,-0.00010236323490111459
0.02225830863320457,-0.0006210309759453639,-0.00010267651835060776
0.022464907403254995,-0.000609850171936249,-0.00010298423863757817
0.022647870335134265,-0.0005985719775016517,-0.00010328634417493764
0.02280625169033315,-0.0005872084469952848,-0.00010358278928106188
0.022939166728406866,-0.0005757720923905998,-0.00010387353441590835
0.02304579649349941,-0.0005642758515851233,-0.00010415854640190228
0.023125392265893656,-0.0005527330543952751,-0.00010443779862839738
0.02317727962779417,-0.0005411573864218532,-0.00010471127123860167
0.02320086209663976,-0.0005295628509907447,-0.00010497895129795482
0.02319562428198993,-0.0005179637293960872,-0.00010524083294305153
0.023161134522320995,-0.0005063745396950095,-0.0001054969175103243
0.0230970469574882,-0.0004948099943250572,-0.00010574721364382931
0.02300310299502375,-0.00048328495683692925,-0.00010599173738161982
0.02287913213736835,-0.0004718143980538312,-0.00010623051222034251
0.022725052151973773,-0.00046041335198149566,-0.00010646356915785134
0.02254086858302189,-0.00044909687179774674,-0.00010669094671379615
0.02232667361993944,-0.00043787998624700644,-0.00010691269092830735
0.022082644353383463,-0.00042677765675367573,-0.00010712885533905752
0.02180904046228499,-0.0004158047355497586,-0.00010733950093713338
0.021506201384631874,-0.0004049759250880294,-0.00010754469610229283
0.021174543032129872,-0.000394305738983839,-0.00010774451651831079
0.020814554117138197,-0.00038380846469652195,-0.00010793904506923088
0.020426792168818545,-0.00037349812812503277,-0.00010812837171743627
0.020011879320319705,-0.0003633884602527482,-0.00010831259336453072
0.019570497945516133,-0.00035349286593628926,-0.00010849181369607798
0.019103386212258138,-0.0003438243948968457,-0.00010866614301128626
0.018611333604110752,-0.00033439571494275346,-0.00010883569803874616
0.01809517644913055,-0.00032521908742944315,-0.0001090006017393392
0.017555793484451007,-0.0003163063449460478,-0.00010916098309743308
0.016994101479853963,-0.00030766887120497154,-0.00010931697690147083
0.016411050940838594,-0.0002993175830997984,-0.00010946872351504702
0.015807621908629537,-0.00029126291488743136,-0.00010961636863954382
0.01518481987019605,-0.00028351480444272495,-0.00010976006306937636
0.014543671786980317,-0.0002760826815284309,-0.00010989996244086915
0.01388522224827981,-0.00026897545801961585,-0.00011003622697575616
0.01321052975664458,-0.00026220152001838474,-0.00011016902122026565
0.012520663159470901,-0.00025576872178935585,-0.00011029851378071759
0.011816698249351961,-0.0002496843814371501,-0.00011042487705652422
0.011099714560238111,-0.00024395527823475258,-0.0001105482869714422
0.010370792386943651,-0.00023858765149795716,-0.00011066892270387537
0.009631010054787668,-0.00023358720088752433,-0.00011078696641697175
0.008881441464065913,-0.00022895908800781093,-0.00011090260298919558
