frame_number,force
0,538.5224305872899
1,538.4815258541055
2,538.4408241227618
3,538.4003983056524
4,538.3603195117101
5,538.3206568359077
6,538.2814771574419
7,538.2428449469126
8,538.2048220829278
9,538.1674676785506
10,538.1308379178496
11,538.0949859026433
12,538.0599615094312
13,538.0258112565265
14,537.9925781815292
15,537.9603017295067
16,537.9290176525677
17,537.8987579218968
18,537.8695506536518
19,537.8414200503247
20,537.8143863591744
21,537.7884658491909
22,537.763670807794
23,537.740009558108
24,537.7174864971605
25,537.6961021547809
26,537.6758532724317
27,537.6567329008143
28,537.6387305148695
29,537.6218321447468
30,537.6060205213134
31,537.5912752346753
32,537.5775729040023
33,537.5648873568996
34,537.5531898167663
35,537.5424490969172
36,537.5326318005058
37,537.5237025254337
38,537.5156240735807
39,537.5083576639358
40,537.501863149467
41,537.4960992377468
42,537.4910237154025
43,537.4865936764011
44,537.4827657540465
45,537.479496356426
46,537.4767419048674
47,537.4744590747484
48,537.4726050377172
49,537.4711377040935
50,537.4700159640047
51,537.4691999257108
52,537.4686511496063
53,537.4683328765061
54,537.4682102489245
55,537.4682505241007
56,537.468423277494
57,537.4687005954212
58,537.4690572554944
59,537.4694708935527
60,537.4699221557794
61,537.4703948346931
62,537.4708759877916
63,537.4713560378176
64,537.4718288538207
65,537.4722918122994
66,537.4727458377569
67,537.4731954220553
68,537.4736486220147
69,537.474117034762
70,537.474615750436
71,537.4751632820796
72,537.4757814728913
73,537.4764953813706
74,537.4773331451788
75,537.4783258246941
76,537.4795072272744
77,537.4809137132205
78,537.4825839844425
79,537.4845588569071
80,537.4868810180138
81,537.4895947700539
82,537.4927457608118
83,537.4963807022054
84,537.5005470777401
85,537.5052928395852
86,537.5106660962865
87,537.5167147923726
88,537.5234863813338
89,537.5310274936338
90,537.5393836015891
91,537.5485986831237
92,537.558714886566
93,537.5697721988263
94,537.5818081195116
95,537.5948573437212
96,537.608951456314
97,537.624118640297
98,537.64038340174
99,537.6577663134387
100,537.676283779483
101,537.6959478228741
102,537.7167658982364
103,537.738740731456
104,537.7618701878472
105,537.7861471702898
106,537.8115595486807
107,537.8380901219105
108,537.8657166133102
109,537.8944117000692
110,537.9241430766035
111,537.954873551406
112,537.9865611765266
113,538.0191594084059
114,538.0526172983267
115,538.0868797104147
116,538.1218875650027
117,538.15757810519
118,538.1938851844374
119,538.2307395729687
120,538.2680692806429
121,538.3057998938561
122,538.3438549239219
123,538.3821561641802
124,538.4206240528576
125,538.4591780385636
126,538.4977369454097
127,538.5362193350592
128,538.574543863419
129,538.6126296300931
130,538.6503965190994
131,538.6877655296803
132,538.724659096247
133,538.761001396569
134,538.7967186473801
135,538.8317393867337
136,538.8659947427002
137,538.899418688259
138,538.9319482823847
139,538.9635238973005
140,538.9940894317054
141,539.0235925095741
142,539.051984663942
143,539.0792215049345
144,539.1052628711162
145,539.1300729630506
146,539.1536204578643
147,539.1758786037004
148,539.1968252931639
149,539.2164431151065
150,539.2347193842812
151,539.2516461485716
152,539.2672201737159
153,539.2814429057231
154,539.2943204114638
155,539.3058632981508
156,539.3160866125482
157,539.3250097208321
158,539.33265617016
159,539.3390535332154
160,539.3442332371815
161,539.3482303786716
162,539.3510835260678
163,539.3528345106063
164,539.3535282075435
165,539.3532123088456
166,539.3519370889315
167,539.349755164961
168,539.3467212530885
169,539.342891922133
170,539.3383253462706
171,539.3330810585051
172,539.3272197067025
173,539.3208028138831
174,539.3138925443021
175,539.3065514766167
176,539.2988423851104
177,539.290828029587
178,539.2825709542466
179,539.2741332956884
180,539.2655766001291
181,539.2569616498702
182,539.248348298923
183,539.2397953175199
184,539.2313602451464
185,539.2230992517867
186,539.2150670072393
187,539.2073165584878
188,539.1998992151249
189,539.1928644427599
190,539.1862597642477
191,539.1801306684833
192,539.1745205264343
193,539.1694705140742
194,539.1650195419127
195,539.1612041907958
196,539.1580586535399
197,539.1556146818737
198,539.1539015382298
199,539.1529459521282
200,539.1527720810933
201,539.1534014761229
202,539.154853051703
203,539.1571430603606
204,539.1602850718197
205,539.1642899568702
206,539.1691658759441
207,539.1749182721214
208,539.1815498680527
209,539.1890606662712
210,539.1974479525812
211,539.2067063024697
212,539.2168275906229
213,539.2278010036574
214,539.2396130561973
215,539.2522476104793
216,539.2656858996661
217,539.2799065549784
218,539.29488563673
219,539.3105966694682
220,539.3270106816854
221,539.3440962508172
222,539.361819554342
223,539.3801444276769
224,539.3990324292853
225,539.4184429130721
226,539.4383331078161
227,539.4586582031219
228,539.4793714412333
229,539.5004242140812
230,539.5217661651475
231,539.5433452960101
232,539.5651080776124
233,539.5869995662707
234,539.6089635243086
235,539.6309425451664
236,539.6528781829531
237,539.674711086611
238,539.6963811390248
239,539.7178276014437
240,539.7389892634902
241,539.7598045989099
242,539.7802119270705
243,539.8001495800698
244,539.8195560751564
245,539.838370292009
246,539.8565316542492
247,539.8739803143815
248,539.8906573412322
249,539.9065049088811
250,539.9214664860501
251,539.9354870249475
252,539.9485131486293
253,539.9604933359828
254,539.9713781033641
255,539.9811201817771
256,539.9896746883503
257,539.9969992908254
258,540.0030543638068
259,540.0078031355862
260,540.0112118244261
261,540.0132497632603
262,540.0138895118596
263,540.0131069555734
264,540.0108813897762
265,540.0071955891533
266,540.0020358610205
267,539.9953920820404
268,539.9872577179817
269,539.9776298264753
270,539.9665090430284
271,539.9538995508472
272,539.939809035261
273,539.9242486237175
274,539.9072328124647
275,539.888779381196
276,539.8689092970999
277,539.8476466098579
278,539.8250183390845
279,539.80105435552
280,539.775787257027
281,539.7492522402241
282,539.7214869684246
283,539.6925314364616
284,539.6624278329455
285,539.6312204004531
286,539.5989552940823
287,539.5656804387334
288,539.531445385443
289,539.4963011671233
290,539.4603001541872
291,539.4234959106961
292,539.3859430517481
293,539.3476971028374
294,539.3088143619091
295,539.2693517647948
296,539.2293667546238
297,539.1889171556503
298,539.1480610517618
299,539.106856669757
300,539.0653622673984
301,539.0236360263583
302,538.9817359504435
303,538.9397197696809
304,538.8976448507681
305,538.8555681140573
306,538.8135459567552
307,538.7716341815135
308,538.7298879291459
309,538.6883616139575
310,538.6471088602246
311,538.6061824387322
312,538.5656342027933
313,538.5255150236203
314,538.485874725156
315,538.4467620185848
316,538.4082244368319
317,538.370308269478
318,538.3330584986306
319,538.2965187362952
320,538.2607311635575
321,538.2257364714902
322,538.1915738032765
323,538.1582806967693
324,538.1258930266442
325,538.0944449454037
326,538.063968822657
327,538.0344951822194
328,538.0060526366826
329,537.9786678192943
330,537.9523653132777
331,537.9271675790795
332,537.9030948803805
333,537.8801652099669
334,537.8583942167041
335,537.837795134938
336,537.8183787177638
337,537.800153175771
338,537.7831241230228
339,537.7672945321159
340,537.7526647001473
341,537.7392322272747
342,537.7269920092748
343,537.7159362451391
344,537.7060544603661
345,537.6973335462852
346,537.6897578154858
347,537.6833090732064
348,537.6779667043733
349,537.6737077758889
350,537.6705071537377
351,537.6683376344295
352,537.6671700902276
353,537.6669736275462
354,537.6677157578688
355,537.6693625805434
356,537.671878976855
357,537.6752288148381
358,537.6793751642774
359,537.6842805211426
360,537.6899070402953
361,537.6962167747974
362,537.7031719196592
363,537.7107350575623
364,537.7188694040109
365,537.7275390494077
366,537.7367091955136
367,537.7463463835945
368,537.75641871139
369,537.7668960360252
370,537.7777501601897
371,537.7889549993189
372,537.8004867280902
373,537.8123239052084
374,537.8244475760144
375,537.8368413527242
376,537.8494914720659
377,537.8623868299678
378,537.8755189930188
379,537.8888821867997
380,537.9024732616858
381,537.9162916370967
382,537.9303392253324
383,537.9446203361844
384,537.9591415635954
385,537.9739116557621
386,537.9889413701486
387,538.0042433148898
388,538.0198317780672
389,538.035722546442
390,538.05193271547
391,538.0684804927602
392,538.0853849974285
393,538.1026660579238
394,538.1203440108195
395,538.138439502817
396,538.156973297839
397,538.1759660906723
398,538.1954383281984
399,538.2154100388361
400,538.2359006704336
401,538.2569289365739
402,538.2785126711879
403,538.3006686914875
404,538.3234126694207
405,538.3467590119587
406,538.3707207505428
407,538.3953094399878
408,538.4205350671281
409,538.4464059694382
410,538.4729287637842
411,538.5001082853788
412,538.5279475369298
413,538.5564476478083
414,538.5856078428245
415,538.6154254199761
416,538.6458957363852
417,538.677012201557
418,538.7087662771036
419,538.7411474822094
420,538.7741434043458
421,538.8077397149702
422,538.8419201900575
423,538.8766667353128
424,538.9119594159323
425,538.9477764908814
426,538.984094451828
427,539.0208880669718
428,539.0581304299773
429,539.0957930140714
430,539.1338457312138
431,539.1722569961722
432,539.2109937953762
433,539.2500217605145
434,539.2893052468863
435,539.3288074164566
436,539.368490325487
437,539.4083150166031
438,539.4482416152168
439,539.488229430306
440,539.528237059621
441,539.5682224994063
442,539.6081432586774
443,539.6479564780208
444,539.6876190528488
445,539.7270877610825
446,539.7663193952784
447,539.8052708991817
448,539.8438995085162
449,539.8821628955046
450,539.9200193162563
451,539.9574277599853
452,539.9943480991542
453,540.0307412399528
454,540.0665692727572
455,540.1017956222369
456,540.1363851966258
457,540.1703045354544
458,540.203521954841
459,540.2360076892986
460,540.2677340288975
461,540.2986754505117
462,540.3288087418069
463,540.3581131166884
464,540.3865703211538
465,540.4141647287715
466,540.4408834252026
467,540.4667162812619
468,540.4916560140241
469,540.5156982355023
470,540.5388414884833
471,540.5610872691818
472,540.5824400364546
473,540.6029072073468
474,540.6224991386844
475,540.6412290942721
476,540.6591131971074
477,540.6761703659688
478,540.6924222358639
479,540.7078930621657
480,540.7226096088033
481,540.7366010215161
482,540.7498986877513
483,540.7625360851243
484,540.7745486203868
485,540.7859734606373
486,540.7968493582432
487,540.8072164707833
488,540.8171161773075
489,540.826590892265
490,540.8356838784663
491,540.8444390603815
492,540.8529008389329
493,540.8611139087632
494,540.8691230788019
495,540.8769730968102
496,540.8847084785003
497,540.8923733418286
498,540.9000112471317
499,540.9076650438383
500,540.9153767244701
501,540.9231872866
502,540.9311366033843
503,540.9392633032335
504,540.9476046590861
505,540.9561964875774
506,540.9650730581299
507,540.9742670116992
508,540.9838092886587
509,540.9937290651706
510,541.0040536973696
511,541.0148086727299
512,541.0260175680567
513,541.0377020136123
514,541.0498816629927
515,541.0625741685687
516,541.0757951625985
517,541.0895582443723
518,541.1038749738475
519,541.1187548721284
520,541.1342054289355
521,541.15023211701
522,541.1668384132947
523,541.1840258267397
524,541.2017939326039
525,541.2201404131199
526,541.2390611043769
527,541.2585500493079
528,541.2785995566893
529,541.2992002659764
530,541.320341217591
531,541.3420099280668
532,541.3641924694181
533,541.3868735522431
534,541.4100366122699
535,541.4336639001517
536,541.4577365742448
537,541.4822347959436
538,541.5071378270346
539,541.5324241285001
540,541.5580714601743
541,541.5840569805761
542,541.6103573461485
543,541.6369488091185
544,541.6638073132787
545,541.6909085872003
546,541.7182282346937
547,541.745741822673
548,541.7734249668606
549,541.8012534158923
550,541.8292031343765
551,541.8572503853359
552,541.8853718122612
553,541.9135445207619
554,541.9417461596712
555,541.9699550015158
556,541.9981500224628
557,542.0263109820473
558,542.0544185030526
559,542.0824541518197
560,542.1104005190559
561,542.1382413009973
562,542.1659613805987
563,542.193546908238
564,542.2209853811512
565,542.2482657205308
566,542.2753783450597
567,542.3023152397249
568,542.3290700190117
569,542.355637983914
570,542.3820161724344
571,542.4082034033368
572,542.4342003128535
573,542.4600093839784
574,542.4856349679789
575,542.5110832978761
576,542.5363624937929
577,542.5614825601363
578,542.5864553745628
579,542.6112946686482
580,542.6360160002207
581,542.6606367174552
582,542.6851759149952
583,542.7096543825028
584,542.7340945461015
585,542.7585204032058
586,542.7829574512141
587,542.8074326104085
588,542.8319741411707
589,542.856611555364
590,542.8813755215789
591,542.9062977640125
592,542.931410955061
593,542.956748602147
594,542.9823449297022
595,543.0082347574979
596,543.0344533766948
597,543.0610364251339
598,543.088019763467
599,543.115439353674
600,543.1433311412997
601,543.1717309424237
602,543.2006743360463
603,543.2301965622875
604,543.2603324265933
605,543.2911162099582
606,543.322581584935
607,543.3547615369707
608,543.3876882905395
609,543.421393239803
610,543.455906884005
611,543.491258768218
612,543.5274774301763
613,543.564590353823
614,543.6026239301325
615,543.6416034258411
616,543.681552960833
617,543.722495494961
618,543.7644528249782
619,543.807445592
620,543.8514932995016
621,543.896614341275
622,543.9428260381268
623,543.9901446815691
624,544.038585582485
625,544.0881631227303
626,544.1388908077853
627,544.1907813188459
628,544.2438465631544
629,544.298097721883
630,544.3535452953994
631,544.4101991461426
632,544.4680685395573
633,544.5271621835947
634,544.587488267205
635,544.6490544980078
636,544.7118681389708
637,544.7759360435617
638,544.8412646885985
639,544.9078602039693
640,544.9757283984691
641,545.0448747811133
642,545.1153045774337
643,545.1870227404364
644,545.2600339561901
645,545.334342644387
646,545.4099529545978
647,545.486868759177
648,545.5650936438632
649,545.6446308971495
650,545.7254834995153
651,545.8076541135295
652,545.891145075597
653,545.9759583897792
654,546.0620957237679
655,546.1495584068984
656,546.2383474300246
657,546.3284634470896
658,546.4199067781992
659,546.5126774139875
660,546.6067750211112
661,546.7021989487929
662,546.7989482363655
663,546.8970216217659
664,546.9964175509249
665,547.0971341879858
666,547.1991694262265
667,547.3025208994574
668,547.4071859935675
669,547.5131618577977
670,547.6204454152411
671,547.729033371984
672,547.8389222241975
673,547.9501082623833
674,548.0625875719024
675,548.176356028841
676,548.2914092901543
677,548.4077427769544
678,548.525351649887
679,548.644230775809
680,548.7643746853478
681,548.8857775213429
682,549.0084329785777
683,549.1323342356146
684,549.2574738799244
685,549.3838438278473
686,549.5114352411672
687,549.6402384421607
688,549.770242828938
689,549.9014367928379
690,550.0338076395658
691,550.1673415155649
692,550.3020233407309
693,550.437836748138
694,550.5747640311301
695,550.7127860979853
696,550.8518824342932
697,550.9920310731341
698,551.133208573123
699,551.2753900044279
700,551.4185489429443
701,551.5626574728577
702,551.7076861977804
703,551.8536042605638
704,552.0003793717653
705,552.1479778465691
706,552.2963646496859
707,552.4455034474175
708,552.5953566657462
709,552.7458855530638
710,552.8970502459913
711,553.0488098365851
712,553.2011224390513
713,553.3539452539462
714,553.5072346278549
715,553.6609461067812
716,553.815034481831
717,553.9694538261108
718,554.1241575220308
719,554.2790982784642
720,554.4342281375293
721,554.5894984711439
722,554.7448599678527
723,554.9002626106814
724,555.0556556468638
725,555.2109875502816
726,555.3662059774111
727,555.5212577175657
728,555.6760886382747
729,555.8306436267344
730,555.9848665283552
731,556.13870008345
732,556.2920858630744
733,556.4449642049794
734,556.597274150645
735,556.7489533844213
736,556.8999381759103
737,557.0501633268033
738,557.1995621233938
739,557.3480662958702
740,557.4956059852611
741,557.6421097185607
742,557.7875043921539
743,557.9317152633306
744,558.0746659495671
745,558.2162784353272
746,558.3564730862868
747,558.4951686710119
748,558.6322823901836
749,558.7677299135008
750,558.9014254244979
751,559.0332816737275
752,559.1632100410061
753,559.29112060752
754,559.4169222384863
755,559.5405226768677
756,559.661828648509
757,559.7807459790264
758,559.8971797227603
759,560.0110343040305
760,560.1222136708058
761,560.230621460738
762,560.3361611793532
763,560.4387363900311
764,560.538250915248
765,560.6346090483418
766,560.7277157747818
767,560.817477001647
768,560.9037997937955
769,560.9865926150547
770,561.0657655726241
771,561.1412306628058
772,561.2129020162328
773,561.2806961409473
774,561.3445321619524
775,561.4043320561476
776,561.4600208818061
777,561.5115270018744
778,561.5587823003385
779,561.6017223908261
780,561.6402868166556
781,561.674419241785
782,561.7040676324291
783,561.7291844293737
784,561.7497267111481
785,561.7656563482235
786,561.7769401483251
787,561.7835499928237
788,561.7854629640399
789,561.7826614631631
790,561.7751333183691
791,561.7628718826412
792,561.7458761207432
793,561.7241506847041
794,561.6977059770818
795,561.6665582012077
796,561.6307293976055
797,561.5902474657986
798,561.5451461707885
799,561.4954651335917
800,561.4412498053442
801,561.3825514245489
802,561.319426957086
803,561.2519390187242
804,561.1801557801393
805,561.1041508548717
806,561.0240031710613
807,560.9397968279769
808,560.8516209382567
809,560.7595694565722
810,560.6637409953667
811,560.5642386284596
812,560.4611696834909
813,560.354645524199
814,560.2447813233431
815,560.1316958268327
816,560.0155111094981
817,559.8963523229563
818,559.7743474361048
819,559.6496269688092
820,559.5223237193459
821,559.392572486153
822,559.2605097844711
823,559.1262735584969
824,558.9900028897273
825,558.8518377022095
826,558.7119184654625
827,558.5703858959109
828,558.4273806577434
829,558.283043064134
830,558.1375127797821
831,557.9909285257495
832,557.8434277875633
833,557.6951465274786
834,557.546218901733
835,557.3967769836869
836,557.246950493919
837,557.0968665385333
838,556.94664935701
839,556.7964200808512
840,556.646296504059
841,556.496392866257
842,556.346819649109
843,556.1976833865733
844,556.049086489408
845,555.9011270842237
846,555.7538988673429
847,555.6074909737226
848,555.461987861165
849,555.3174692099469
850,555.1740098379437
851,555.0316796312921
852,554.8905434905706
853,554.7506612922601
854,554.6120878649446
855,554.4748729794361
856,554.339061351879
857,554.204692658881
858,554.0718015637854
859,553.9404177532834
860,553.8105659836772
861,553.6822661362258
862,553.5555332811088
863,553.4303777495797
864,553.3068052138664
865,553.1848167743133
866,553.0644090532342
867,552.945574294966
868,552.8283004717113
869,552.7125713948445
870,552.5983668313771
871,552.4856626251594
872,552.3744308222141
873,552.2646397994472
874,552.1562543959677
875,552.0492360463666
876,551.943542915521
877,551.8391300347257
878,551.7359494391336
879,551.6339503066017
880,551.5330790980936
881,551.4332796997439
882,551.3344935664965
883,551.2366598669173
884,551.139715628462
885,551.0435958822369
886,550.9482338061882
887,550.8535608656955
888,550.7595069507228
889,550.6660005089117
890,550.5729686742196
891,550.4803373909024
892,550.3880315328304
893,550.2959750182881
894,550.2040909205161
895,550.1123015743118
896,550.0205286790008
897,549.9286933980679
898,549.8367164557808
899,549.7445182312817
900,549.6520188507876
901,549.5591382786348
902,549.4657964079125
903,549.3719131513507
904,549.2774085329567
905,549.1822027806221
906,549.0862164195775
907,548.9893703662364
908,548.8915860217172
909,548.7927853642469
910,548.6928910398034
911,548.5918264506925
912,548.4895158421361
913,548.3858843872723
914,548.2808582712249
915,548.1743647751122
916,548.0663323609846
917,547.9566907586658
918,547.8453710552947
