frame_number,force
0,538.522430583571
1,538.4815258503379
2,538.4408241189386
3,538.400398301767
4,538.3603195077565
5,538.32065683188
6,538.281477153335
7,538.2428449427217
8,538.204822078649
9,538.1674676741803
10,538.1308379133839
11,538.0949858980781
12,538.0599615047629
13,538.0258112517517
14,537.9925781766448
15,537.9603017245095
16,537.9290176474552
17,537.898757916667
18,537.8695506483026
19,537.8414200448544
20,537.8143863535819
21,537.7884658434754
22,537.7636708019556
23,537.7400095521473
24,537.7174864910784
25,537.6961021485783
26,537.67585326611
27,537.6567328943753
28,537.6387305083152
29,537.6218321380791
30,537.6060205145335
31,537.591275227784
32,537.5775728969996
33,537.5648873497852
34,537.553189809539
35,537.5424490895753
36,537.5326317930471
37,537.5237025178557
38,537.5156240658807
39,537.5083576561111
40,537.501863141515
41,537.496099229665
42,537.4910237071887
43,537.486593668053
44,537.4827657455629
45,537.4794963478059
46,537.4767418961103
47,537.4744590658546
48,537.4726050286873
49,537.4711376949286
50,537.4700159547065
51,537.4691999162807
52,537.4686511400461
53,537.468332866818
54,537.4682102391113
55,537.4682505141656
56,537.4684232674405
57,537.4687005852523
58,537.4690572452132
59,537.4694708831614
60,537.4699221452796
61,537.4703948240862
62,537.4708759770782
63,537.4713560269988
64,537.4718288428985
65,537.4722918012768
66,537.4727458266384
67,537.4731954108465
68,537.4736486107222
69,537.4741170233929
70,537.4746157389978
71,537.4751632705804
72,537.4757814613389
73,537.4764953697729
74,537.4773331335439
75,537.47832581303
76,537.4795072155895
77,537.4809137015235
78,537.4825839727425
79,537.484558845214
80,537.4868810063377
81,537.4895947584052
82,537.4927457492007
83,537.4963806906421
84,537.500547066234
85,537.5052928281457
86,537.5106660849224
87,537.5167147810923
88,537.5234863701459
89,537.5310274825468
90,537.539383590612
91,537.5485986722657
92,537.5587148758362
93,537.5697721882339
94,537.5818081090656
95,537.5948573334302
96,537.6089514461863
97,537.62411863034
98,537.6403833919609
99,537.6577663038441
100,537.6762837700787
101,537.6959478136647
102,537.7167658892247
103,537.7387407226432
104,537.761870179233
105,537.7861471618722
106,537.8115595404562
107,537.8380901138743
108,537.8657166054567
109,537.8944116923919
110,537.924143069095
111,537.9548735440575
112,537.9865611693282
113,538.0191594013462
114,538.052617291393
115,538.0868797035934
116,538.1218875582798
117,538.1575780985509
118,538.193885177866
119,538.2307395664482
120,538.268069274155
121,538.3057998873822
122,538.3438549174434
123,538.3821561576789
124,538.4206240463154
125,538.4591780319624
126,538.4977369387324
127,538.5362193282893
128,538.5745438565414
129,538.6126296230941
130,538.6503965119667
131,538.6877655224027
132,538.7246590888144
133,538.7610013889728
134,538.7967186396131
135,538.8317393787902
136,538.8659947345757
137,538.8994186799505
138,538.9319482738908
139,538.9635238886211
140,538.9940894228414
141,539.0235925005272
142,539.0519846547153
143,539.0792214955319
144,539.105262861543
145,539.1300729533131
146,539.1536204479704
147,539.1758785936589
148,539.1968252829845
149,539.2164431047994
150,539.2347193738573
151,539.2516461380426
152,539.2672201630949
153,539.2814428950242
154,539.2943204007024
155,539.3058632873435
156,539.3160866017124
157,539.3250097099854
158,539.3326561593202
159,539.3390535224006
160,539.3442332264101
161,539.3482303679623
162,539.3510835154394
163,539.3528345000781
164,539.3535281971349
165,539.353212298576
166,539.35193707882
167,539.3497551550265
168,539.3467212433494
169,539.3428919126067
170,539.3383253369731
171,539.3330810494514
172,539.3272196979063
173,539.3208028053562
174,539.3138925360546
175,539.3065514686576
176,539.298842377447
177,539.290828022225
178,539.28257094719
179,539.2741332889395
180,539.2655765936881
181,539.2569616437363
182,539.2483482930941
183,539.2397953119929
184,539.2313602399174
185,539.2230992468507
186,539.2150670025901
187,539.2073165541178
188,539.1998992110252
189,539.1928644389204
190,539.1862597606572
191,539.1801306651294
192,539.1745205233035
193,539.1694705111524
194,539.1650195391852
195,539.1612041882477
196,539.1580586511553
197,539.1556146796364
198,539.1539015361229
199,539.152945950134
200,539.1527720791938
201,539.1534014743003
202,539.1548530499392
203,539.1571430586379
204,539.1602850701206
205,539.1642899551779
206,539.1691658742421
207,539.1749182703943
208,539.1815498662863
209,539.1890606644529
210,539.1974479506995
211,539.2067063005139
212,539.2168275885839
213,539.2278010015273
214,539.2396130539692
215,539.2522476081475
216,539.2656858972258
217,539.2799065524259
218,539.2948856340627
219,539.3105966666845
220,539.3270106787847
221,539.3440962477997
222,539.3618195512088
223,539.38014442443
224,539.399032425927
225,539.4184429096053
226,539.4383331042447
227,539.4586581994507
228,539.479371437468
229,539.5004242102281
230,539.5217661612131
231,539.5433452920015
232,539.5651080735363
233,539.5869995621339
234,539.6089635201179
235,539.6309425409286
236,539.6528781786751
237,539.6747110822994
238,539.6963811346862
239,539.717827597085
240,539.7389892591182
241,539.7598045945308
242,539.7802119226903
243,539.8001495756944
244,539.8195560707912
245,539.8383702876599
246,539.8565316499217
247,539.8739803100813
248,539.8906573369648
249,539.9065049046517
250,539.9214664818636
251,539.9354870208081
252,539.9485131445409
253,539.9604933319491
254,539.9713780993884
255,539.9811201778622
256,539.9896746844984
257,539.9969992870375
258,540.0030543600823
259,540.0078031319227
260,540.0112118208201
261,540.0132497597067
262,540.0138895083523
263,540.0131069521058
264,540.010881386341
265,540.0071955857433
266,540.0020358576284
267,539.9953920786593
268,539.9872577146051
269,539.977629823097
270,539.9665090396423
271,539.9538995474472
272,539.939809031841
273,539.9242486202711
274,539.9072328089852
275,539.8887793776764
276,539.8689092935332
277,539.8476466062365
278,539.825018335401
279,539.8010543517668
280,539.7757872531969
281,539.7492522363104
282,539.7214869644209
283,539.6925314323614
284,539.662427828742
285,539.6312203961396
286,539.5989552896519
287,539.5656804341796
288,539.5314453807596
289,539.4963011623042
290,539.4603001492272
291,539.4234959055906
292,539.3859430464925
293,539.3476970974273
294,539.3088143563401
295,539.2693517590626
296,539.2293667487238
297,539.1889171495778
298,539.148061045512
299,539.1068566633247
300,539.0653622607786
301,539.0236360195461
302,538.9817359434347
303,538.9397197624724
304,538.8976448433576
305,538.855568106444
306,538.8135459489393
307,538.7716341734962
308,538.7298879209291
309,538.6883616055436
310,538.6471088516172
311,538.6061824299354
312,538.5656341938123
313,538.5255150144609
314,538.4858747158241
315,538.446762009087
316,538.4082244271752
317,538.3703082596694
318,538.3330584886775
319,538.2965187262049
320,538.2607311533377
321,538.2257364611486
322,538.1915737928202
323,538.1582806862054
324,538.1258930159794
325,538.0944449346443
326,538.0639688118099
327,538.0344951712918
328,538.006052625683
329,537.9786678082319
330,537.9523653021632
331,537.9271675679249
332,537.903094869199
333,537.8801651987726
334,537.8583942055126
335,537.8377951237655
336,537.8183787066273
337,537.8001531646875
338,537.7831241120099
339,537.7672945211913
340,537.7526646893283
341,537.739232216578
342,537.7269919987164
343,537.7159362347339
344,537.7060544501279
345,537.6973335362263
346,537.6897578056171
347,537.6833090635373
348,537.677966694912
349,537.6737077666427
350,537.670507144713
351,537.6683376256318
352,537.6671700816617
353,537.6669736192158
354,537.6677157497768
355,537.6693625726914
356,537.6718789692435
357,537.6752288074664
358,537.6793751571441
359,537.6842805142453
360,537.689907033631
361,537.6962167683621
362,537.7031719134479
363,537.7107350515689
364,537.7188693982284
365,537.7275390438285
366,537.7367091901295
367,537.7463463783964
368,537.7564187063681
369,537.766896031169
370,537.7777501554883
371,537.7889549947606
372,537.8004867236632
373,537.8123239009004
374,537.8244475718132
375,537.836841348617
376,537.8494914680407
377,537.8623868260129
378,537.8755189891232
379,537.8888821829532
380,537.9024732578786
381,537.9162916333194
382,537.9303392215767
383,537.9446203324427
384,537.9591415598605
385,537.9739116520273
386,537.9889413664074
387,538.0042433111363
388,538.0198317742961
389,538.0357225426482
390,538.0519327116485
391,538.0684804889065
392,538.0853849935379
393,538.1026660539912
394,538.1203440068397
395,538.1384394987846
396,538.1569732937487
397,538.1759660865191
398,538.1954383239771
399,538.2154100345421
400,538.235900666063
401,538.2569289321237
402,538.2785126666554
403,538.3006686868705
404,538.323412664717
405,538.346759007167
406,538.370720745662
407,538.3953094350181
408,538.4205350620707
409,538.4464059642954
410,538.472928758559
411,538.5001082800742
412,538.5279475315492
413,538.5564476423555
414,538.5856078373024
415,538.6154254143873
416,538.6458957307325
417,538.677012195843
418,538.7087662713308
419,538.7411474763802
420,538.7741433984625
421,538.8077397090351
422,538.841920184073
423,538.8766667292814
424,538.9119594098561
425,538.9477764847624
426,538.9840944456679
427,539.0208880607726
428,539.0581304237411
429,539.0957930078009
430,539.1338457249117
431,539.1722569898413
432,539.2109937890193
433,539.2500217541347
434,539.2893052404872
435,539.3288074100423
436,539.3684903190621
437,539.4083150101725
438,539.4482416087857
439,539.4882294238796
440,539.528237053205
441,539.5682224930067
442,539.6081432523008
443,539.647956471674
444,539.6876190465392
445,539.7270877548182
446,539.7663193890681
447,539.8052708930352
448,539.8438995024437
449,539.8821628895164
450,539.9200193103621
451,539.9574277541942
452,539.9943480934745
453,540.030741234392
454,540.0665692673223
455,540.1017956169339
456,540.1363851914605
457,540.170304530431
458,540.2035219499629
459,540.236007684568
460,540.2677340243156
461,540.298675446079
462,540.3288087375225
463,540.3581131125504
464,540.386570317159
465,540.4141647249153
466,540.4408834214793
467,540.466716277665
468,540.4916560105465
469,540.5156982321365
470,540.5388414852208
471,540.5610872660133
472,540.5824400333697
473,540.6029072043347
474,540.6224991357335
475,540.6412290913706
476,540.6591131942433
477,540.6761703631304
478,540.6924222330398
479,540.7078930593448
480,540.7226096059745
481,540.7366010186688
482,540.7498986848753
483,540.7625360822095
484,540.7745486174233
485,540.7859734576151
486,540.7968493551521
487,540.8072164676129
488,540.8171161740482
489,540.8265908889078
490,540.8356838750027
491,540.8444390568033
492,540.8529008352314
493,540.8611139049299
494,540.8691230748282
495,540.8769730926873
496,540.8847084742195
497,540.8923733373808
498,540.9000112425082
499,540.9076650390299
500,540.9153767194679
501,540.9231872813955
502,540.93113659797
503,540.939263297602
504,540.9476046532307
505,540.9561964814918
506,540.9650730518091
507,540.9742670051389
508,540.9838092818554
509,540.9937290581219
510,541.004053690074
511,541.014808665187
512,541.0260175602672
513,541.0377020055779
514,541.049881654716
515,541.0625741600537
516,541.0757951538496
517,541.089558235395
518,541.1038749646484
519,541.1187548627152
520,541.1342054193168
521,541.1502321071952
522,541.1668384032937
523,541.1840258165626
524,541.2017939222611
525,541.2201404026222
526,541.2390610937349
527,541.2585500385326
528,541.2785995457916
529,541.2992002549671
530,541.3203412064809
531,541.3420099168665
532,541.3641924581385
533,541.3868735408952
534,541.4100366008645
535,541.433663888699
536,541.4577365627545
537,541.4822347844247
538,541.5071378154956
539,541.5324241169487
540,541.5580714486179
541,541.5840569690212
542,541.6103573346015
543,541.6369487975859
544,541.6638073017664
545,541.6909085757142
546,541.7182282232394
547,541.745741811256
548,541.7734249554858
549,541.8012534045642
550,541.8292031230993
551,541.8572503741136
552,541.8853718010974
553,541.9135445096601
554,541.9417461486345
555,541.9699549905469
556,541.9981500115639
557,542.0263109712204
558,542.0544184922999
559,542.082454141144
560,542.1104005084611
561,542.1382412904879
562,542.1659613701798
563,542.1935468979145
564,542.2209853709279
565,542.248265710412
566,542.2753783350497
567,542.3023152298274
568,542.3290700092305
569,542.3556379742521
570,542.3820161628951
571,542.4082033939227
572,542.434200303567
573,542.4600093748213
574,542.4856349589526
575,542.5110832889818
576,542.5363624850319
577,542.5614825515097
578,542.5864553660722
579,542.611294660295
580,542.6360159920065
581,542.6606367093815
582,542.6851759070636
583,542.7096543747148
584,542.7340945384582
585,542.7585203957078
586,542.7829574438613
587,542.8074326031996
588,542.8319741341037
589,542.8566115484357
590,542.8813755147853
591,542.9062977573486
592,542.9314109485211
593,542.9567485957251
594,542.9823449233918
595,543.0082347512914
596,543.0344533705841
597,543.0610364191102
598,543.0880197575214
599,543.1154393477971
600,543.1433311354818
601,543.1717309366558
602,543.2006743303195
603,543.2301965565932
604,543.2603324209229
605,543.2911162043022
606,543.322581579284
607,543.3547615313155
608,543.3876882848714
609,543.4213932341137
610,543.4559068782862
611,543.491258762462
612,543.5274774243755
613,543.5645903479704
614,543.6026239242215
615,543.6416034198653
616,543.6815529547858
617,543.7224954888364
618,543.7644528187708
619,543.8074455857048
620,543.8514932931142
621,543.8966143347916
622,543.9428260315441
623,543.990144674884
624,544.0385855756948
625,544.0881631158323
626,544.1388908007772
627,544.1907813117258
628,544.2438465559212
629,544.298097714536
630,544.3535452879385
631,544.4101991385685
632,544.4680685318715
633,544.5271621757997
634,544.5874882593041
635,544.6490544900043
636,544.7118681308687
637,544.7759360353656
638,544.8412646803139
639,544.9078601956029
640,544.9757283900282
641,545.0448747726057
642,545.1153045688669
643,545.1870227318182
644,545.2600339475276
645,545.3343426356869
646,545.4099529458659
647,545.4868687504187
648,545.5650936350828
649,545.6446308883508
650,545.7254834907014
651,545.8076541047027
652,545.8911450667593
653,545.9759583809317
654,546.062095714911
655,546.1495583980316
656,546.2383474211463
657,546.3284634381974
658,546.4199067692903
659,546.512677405058
660,546.6067750121571
661,546.7021989398098
662,546.7989482273488
663,546.8970216127107
664,546.996417541826
665,547.0971341788375
666,547.1991694170225
667,547.3025208901917
668,547.4071859842339
669,547.5131618483906
670,547.6204454057549
671,547.7290333624135
672,547.8389222145373
673,547.9501082526282
674,548.0625875620475
675,548.176356018882
676,548.2914092800875
677,548.4077427667767
678,548.5253516395962
679,548.6442307654037
680,548.7643746748273
681,548.8857775107073
682,549.0084329678276
683,549.1323342247516
684,549.2574738689509
685,549.3838438167663
686,549.5114352299827
687,549.640238430877
688,549.7702428175604
689,549.9014367813722
690,550.0338076280186
691,550.1673415039436
692,550.3020233290433
693,550.4378367363925
694,550.5747640193356
695,550.712786086151
696,550.8518824224288
697,550.992031061249
698,551.1332085612264
699,551.2753899925282
700,551.4185489310498
701,551.5626574609767
702,551.707686185921
703,551.853604248735
704,552.0003793599766
705,552.14797783483
706,552.2963646380065
707,552.4455034358081
708,552.5953566542173
709,552.7458855416261
710,552.8970502346549
711,553.0488098253599
712,553.2011224279468
713,553.3539452429712
714,553.5072346170177
715,553.6609460960885
716,553.8150344712884
717,553.9694538157223
718,554.1241575117992
719,554.279098268391
720,554.4342281276147
721,554.5894984613866
722,554.7448599582501
723,554.9002626012295
724,555.0556556375572
725,555.2109875411138
726,555.3662059683755
727,555.5212577086554
728,555.6760886294826
729,555.8306436180536
730,555.9848665197786
731,556.1387000749704
732,556.2920858546844
733,556.4449641966717
734,556.5972741424115
735,556.7489533762534
736,556.8999381677994
737,557.0501633187407
738,557.199562115371
739,557.3480662878786
740,557.495605977292
741,557.6421097106053
742,557.7875043842029
743,557.9317152553747
744,558.0746659415968
745,558.2162784273327
746,558.3564730782576
747,558.4951686629377
748,558.632282382054
749,558.7677299053062
750,558.9014254162297
751,559.0332816653784
752,559.16321003257
753,559.2911205989923
754,559.4169222298636
755,559.540522668148
756,559.6618286396913
757,559.7807459701102
758,559.8971797137456
759,560.0110342949176
760,560.1222136615945
761,560.2306214514281
762,560.3361611699438
763,560.4387363805209
764,560.5382509056357
765,560.6346090386259
766,560.7277157649612
767,560.8174769917202
768,560.9037997837606
769,560.9865926049094
770,561.065765562366
771,561.1412306524325
772,561.2129020057416
773,561.2806961303359
774,561.3445321512186
775,561.4043320452894
776,561.460020870822
777,561.511526990763
778,561.5587822890992
779,561.6017223794588
780,561.6402868051607
781,561.6744192301636
782,561.7040676206831
783,561.7291844175058
784,561.749726699162
785,561.7656563361239
786,561.7769401361176
787,561.7835499805136
788,561.7854629516333
789,561.7826614506672
790,561.7751333057912
791,561.7628718699892
792,561.7458761080251
793,561.7241506719283
794,561.6977059642575
795,561.6665581883442
796,561.6307293847123
797,561.5902474528854
798,561.5451461578647
799,561.4954651206664
800,561.4412497924266
801,561.382551411648
802,561.319426944211
803,561.2519390058847
804,561.1801557673444
805,561.1041508421304
806,561.0240031583818
807,560.9397968153676
808,560.8516209257263
809,560.7595694441299
810,560.6637409830225
811,560.5642386162244
812,560.4611696713758
813,560.3546455122157
814,560.2447813115032
815,560.1316958151479
816,560.0155110979796
817,559.8963523116146
818,559.7743474249493
819,559.6496269578487
820,559.5223237085881
821,559.3925724756051
822,559.2605097741392
823,559.1262735483865
824,558.9900028798432
825,558.8518376925562
826,558.7119184560435
827,558.5703858867296
828,558.4273806488025
829,558.2830430554354
830,558.1375127713268
831,557.9909285175372
832,557.8434277795932
833,557.6951465197495
834,557.5462188942433
835,557.3967769764346
836,557.2469504869015
837,557.0968665317473
838,556.946649350452
839,556.7964200745179
840,556.6462964979465
841,556.496392860362
842,556.3468196434283
843,556.197683381104
844,556.0490864841471
845,555.9011270791688
846,555.753898862491
847,555.6074909690706
848,555.4619878567089
849,555.3174692056828
850,555.1740098338664
851,555.0316796273959
852,554.8905434868484
853,554.7506612887042
854,554.6120878615462
855,554.4748729761851
856,554.3390613487636
857,554.2046926558876
858,554.071801560899
859,553.940417750488
860,553.8105659809554
861,553.6822661335588
862,553.5555332784755
863,553.430377746958
864,553.3068052112326
865,553.1848167716433
866,553.0644090505041
867,552.9455742921524
868,552.8283004687917
869,552.7125713917978
870,552.5983668281834
871,552.4856626218001
872,552.3744308186717
873,552.264639795706
874,552.1562543920135
875,552.0492360421871
876,551.9435429111059
877,551.839130030066
878,551.7359494342222
879,551.6339503014328
880,551.5330790926627
881,551.4332796940478
882,551.3344935605334
883,551.2366598606869
884,551.1397156219651
885,551.0435958754754
886,550.9482337991648
887,550.8535608584139
888,550.7595069431875
889,550.6660005011287
890,550.5729686661964
891,550.4803373826476
892,550.388031524354
893,550.2959750096013
894,550.2040909116308
895,550.1123015652408
896,550.0205286697579
897,549.9286933886676
898,549.8367164462377
899,549.7445182216104
900,549.6520188410027
901,549.5591382687505
902,549.4657963979427
903,549.3719131413081
904,549.2774085228539
905,549.1822027704709
906,549.0862164093893
907,548.9893703560224
908,548.8915860114885
909,548.7927853540141
910,548.6928910295769
911,548.5918264404825
912,548.4895158319523
913,548.3858843771237
914,548.2808582611201
915,548.1743647650588
916,548.0663323509898
917,547.9566907487359
