acceleration,velocity,displacement
-0.0047658559924834195,0.0,0.0
-0.005510635529399387,-2.569122880470702e-06,-6.422807201176754e-10
-0.006251718877508251,-5.509711482197611e-06,-2.6619893107847535e-09
-0.006987778472626984,-8.81958581973142e-06,-6.244313636267011e-09
-0.007717519587374407,-1.2495910334731768e-05,-1.1573187674882809e-08
-0.008439684163874464,-1.6535211272543985e-05,-1.8830968076701746e-08
-0.009153054488346786,-2.0933395935599297e-05,-2.8198119878737566e-08
-0.009856456701933542,-2.5685773733169378e-05,-3.985291229592973e-08
-0.010548764139880108,-3.078707894362279e-05,-5.397112546512777e-08
-0.011228900491543159,-3.623149510147861e-05,-7.072576897640312e-08
-0.01189584277641761,-4.20126809184688e-05,-9.028681298138997e-08
-0.012548624134565794,-4.8123797646214656e-05,-1.1282093262256084e-07
-0.013186336431566833,-5.455753778774781e-05,-1.3849126648105146e-07
-0.013808132677719197,-6.130615506506932e-05,-1.6745718969425574e-07
-0.014413229258966938,-6.836149554924085e-05,-1.998741023478333e-07
-0.015000907972876005,-7.571502985720158e-05,-2.358932336994439e-07
-0.015570517857149753,-8.335788631470802e-05,-2.756614627424213e-07
-0.01612147679128178,-9.12808849768159e-05,-3.1932115556530226e-07
-0.016653272845788155,-9.947457238608339e-05,-3.6701001990602706e-07
-0.017165465349884224,-0.00010792925693500148,-4.188609772362983e-07
-0.01765768564833448,-0.00011663504468455616,-4.750020526411877e-07
-0.018129637520874306,-0.00012558187547685834,-5.355562826815414e-07
-0.01858109724232198,-0.0001347595591676574,-6.006416413426703e-07
-0.019011913268050608,-0.00014415781179525055,-6.703709840833973e-07
-0.0194220055384674,-0.00015376629149688005,-7.4485200990643e-07
-0.019811364406619392,-0.00016357463398315175,-8.24187241276438e-07
-0.020180049202852483,-0.0001735724873855197,-9.084740216186058e-07
-0.020528186457645693,-0.00018374954630064424,-9.978045300401467e-07
-0.020855967807712917,-0.0001940955848669839,-1.0922658128320538e-06
-0.021163647611364758,-0.00020460048872175332,-1.1919398312292382e-06
-0.02145154029912512,-0.0002152542856993758,-1.2969035248345205e-06
-0.021720017487437536,-0.00022604717514601645,-1.4072288900458686e-06
-0.021969504886543874,-0.0002369695557395118,-1.5229830727672506e-06
-0.022200479034549588,-0.0002480120517197852,-1.6442284746320749e-06
-0.022413463886063145,-0.00025916553744993834,-1.7710228719245057e-06
-0.022609027277696987,-0.00027042116024087836,-1.9034195463472098e-06
-0.022787777287923357,-0.00028177036138228345,-2.0414674267530005e-06
-0.022950358506170155,-0.0002932048953308068,-2.185211240931273e-06
-0.023097448223218537,-0.00030471684701315397,-2.3346916765172633e-06
-0.023229752550592248,-0.0003162986472066067,-2.4899455500722036e-06
-0.02334800247186142,-0.0003279430859622201,-2.6510059833644104e-06
-0.023452949825569006,-0.0003396433240365777,-2.81790258586411e-06
-0.02354536321851512,-0.00035139290229759874,-2.9906616424476544e-06
-0.02362602386923155,-0.00036318574906953543,-3.1693063052894377e-06
-0.023695721383838634,-0.00037501618538280296,-3.3538567889025222e-06
-0.02375524946912812,-0.00038687892809604463,-3.544330567272234e-06
-0.02380540159081668,-0.0003987690908610308,-3.740742572011503e-06
-0.023846966588959254,-0.0004106821829059748,-3.943105390453255e-06
-0.023880724267692693,-0.0004226141056201378,-4.151429462584783e-06
-0.02390744098166953,-0.0004345611469324783,-4.365723275722937e-06
-0.023927865245534648,-0.00044651997348927935,-4.5859935558283764e-06
-0.02394272339458822,-0.0004584876206493101,-4.812245454363024e-06
-0.023952715324155164,-0.00047046148032899596,-5.0444827296076005e-06
-0.023958510333038995,-0.0004824392867432945,-5.282707921375673e-06
-0.02396074309453969,-0.0004944191001001892,-5.526922518086544e-06
-0.02396000977776397,-0.000506399288318265,-5.777127115191158e-06
-0.023956864342448796,-0.0005183785068483182,-6.033321563982804e-06
-0.023951815031494114,-0.000530355676691804,-6.295505109867834e-06
-0.023945321085599353,-0.0005423299607210774,-6.563676519221055e-06
-0.023937789703835317,-0.0005543007384184361,-6.837834194005934e-06
-0.023929573273949938,-0.0005662675791628824,-7.117976273401263e-06
-0.0239209668962746,-0.0005782302142054385,-7.404100721743344e-06
-0.02391220622351229,-0.0005901885074853853,-7.696205402166049e-06
-0.023903465635120042,-0.0006021424254500433,-7.994288135399907e-06
-0.023894856761367548,-0.0006140920060491652,-8.298346743274709e-06
-0.023886427370083726,-0.000626037327082028,-8.608379076557507e-06
-0.02387816062822753,-0.0006379784740816058,-8.924383026848416e-06
-0.023869974749491863,-0.0006499155079260356,-9.246356522350326e-06
-0.02386172303802344,-0.0006618484323729144,-9.574297507425063e-06
-0.023853194337262986,-0.000673777161716736,-9.908203905947474e-06
-0.023844113891069926,-0.0006857014887738192,-1.0248073568570112e-05
-0.0238341446202241,-0.0006976210534016427,-1.0593904204113978e-05
-0.023822888811162308,-0.0007095353117594894,-1.094569329540426e-05
-0.023809890207206297,-0.0007214435065140815,-1.1303437999972653e-05
-0.02379463648734118,-0.0007333446381877184,-1.1667135036148103e-05
-0.023776562114715582,-0.0007452374378382326,-1.203678055515459e-05
-0.023755051536399376,-0.0007571203412510114,-1.2412369999926902e-05
-0.02372944271634268,-0.0007689914648141969,-1.2793897951443204e-05
-0.02369903098326442,-0.0007808485832390987,-1.3181357963456528e-05
-0.023663073173857553,-0.0007926891092783793,-1.3574742386585897e-05
-0.023620792050402076,-0.0008045100755844442,-1.3974042182801603e-05
-0.02357138097177157,-0.0008163081188399876,-1.437924673140771e-05
-0.023514008798559687,-0.0008280794662825704,-1.479034362768835e-05
-0.02344782501597181,-0.0008398199247362033,-1.5207318475443044e-05
-0.023371965060418432,-0.0008515248722553009,-1.563015467469092e-05
-0.02328555583502658,-0.0008631892524791621,-1.6058833205874536e-05
-0.023187721395679588,-0.0008748075717868387,-1.6493332411941034e-05
-0.02307758878462934,-0.0008863738993319159,-1.6933627779720723e-05
-0.022954293984783627,-0.0008978818700242691,-1.737969172205977e-05
-0.02281698796444306,-0.0009093246905115757,-1.783149336219373e-05
-0.022664842779061486,-0.0009206951481974518,-1.8288998321870987e-05
-0.022497057693480534,-0.0009319856233155874,-1.8752168514749246e-05
-0.022312865285205295,-0.0009431881040602589,-1.9220961946593208e-05
-0.02211153748610659,-0.0009542942047530868,-1.9695332523796543e-05
-0.02189239151603145,-0.0009652951870036214,-2.017522987173572e-05
-0.02165479565835674,-0.0009761819837972184,-2.066059916443593e-05
-0.021398174826659934,-0.0009869452264184727,-2.1151380966989852e-05
-0.021122015874291113,-0.0009975752740937105,-2.16475110921179e-05
-0.020825872603022898,-0.001008062246213039,-2.2148920472194585e-05
-0.020509370430355854,-0.0010183960569713837,-2.265553504799069e-05
-0.020172210676174786,-0.0010285664522480165,-2.316727567529554e-05
-0.019814174429741083,-0.0010385630485244953,-2.3684058050488667e-05
-0.019435125959778206,-0.0010483753736218752,-2.420579265602526e-05
-0.019035015634274045,-0.0010579929090203883,-2.4732384726685825e-05
-0.01861388232086333,-0.0010674051335091727,-2.5263734237318215e-05
-0.018171855241507547,-0.0010766015678997654,-2.579973591267045e-05
-0.017709155257019885,-0.0010855718205243971,-2.6340279259776492e-05
-0.017226095559379595,-0.001094305633228497,-2.6885248623214716e-05
-0.01672308175463229,-0.001102792927557,-2.743452326341109e-05
-0.016200611327266193,-0.0011110238508274745,-2.798797745800721e-05
-0.015659272486422474,-0.0011189888217808966,-2.8545480626159303e-05
-0.015099742402474114,-0.0011266785755031207,-2.9106897475480308e-05
-0.01452278484949612,-0.0011340842073161133,-2.9672088171185115e-05
-0.013929247276866511,-0.001141197215347704,-3.024090852685107e-05
-0.013320057341583903,-0.0011480095415023165,-3.0813210216063576e-05
-0.012696218938985452,-0.0011545136105724587,-3.138884100408227e-05
-0.012058807771654157,-0.0011607023672501186,-3.196764499853792e-05
-0.011408966495996107,-0.001166569310817031,-3.254946291805471e-05
-0.010747899485812977,-0.0011721085273124834,-3.313413237758709e-05
-0.010076867253432922,-0.001177314718997295,-3.3721488189164534e-05
-0.00939718057097922,-0.001182183230953398,-3.431136267665221e-05
-0.008710194336163008,-0.0011867100746801836,-3.4903586003060605e-05
-0.00801730122910207,-0.0011908919485715,-3.549798650887353e-05
-0.007319925210188581,-0.0011947262551813226,-3.6094391059811734e-05
-0.0066195149132639,-0.0011982111152121857,-3.669262540241011e-05
-0.005917536990786589,-0.0012013453781881984,-3.729251452576021e-05
-0.005215469465854108,-0.0012041286298023585,-3.7893883027757846e-05
-0.004514795140138576,-0.0012065611959538567,-3.84965554841969e-05
-0.0038169950993554476,-0.0012086441435137302,-3.91003568190638e-05
-0.0031235423505314177,-0.001210379277876202,-3.9705112674411285e-05
-0.002435895618353766,-0.0012117691373684234,-4.0310649778222444e-05
-0.00175549332187839,-0.0012128169846034815,-4.091679630871542e-05
-0.0010837477490898474,-0.0012135267948712235,-4.1523382253584094e-05
-0.00042203944550058854,-0.001213903241669871,-4.213023976271937e-05
0.00022828816815364823,-0.0012139516794892077,-4.273720349300914e-05
0.0008659339369363604,-0.0012136781239629353,-4.3344110943872176e-05
0.0014896438640629912,-0.0012130892295126854,-4.395080278224108e-05
0.002098215751890796,-0.0012121922646086969,-4.455712315577142e-05
0.002690503591535515,-0.0012109950847728403,-4.516291999311681e-05
0.003265421700615985,-0.0012095061034498025,-4.576804529017247e-05
0.0038219486056325874,-0.0012077342608732403,-4.637235538125323e-05
0.004359130661643543,-0.0012056889910564213,-4.697571119423565e-05
0.004876085398564218,-0.0012033801870413694,-4.75779784887601e-05
0.0053720045805808045,-0.0012008181645465832,-4.817902807665709e-05
0.0058461569618722805,-0.0011980136241609698,-4.8778736023833975e-05
0.006297890718412879,-0.0011949776122408984,-4.937698383293444e-05
0.006726635533929945,-0.0011917214806778128,-4.997365860616412e-05
0.0071319043196631324,-0.0011882568457144147,-5.0568653187762174e-05
0.007513294551648766,-0.0011845955459965868,-5.1161866285689925e-05
0.007870489213591847,-0.0011807496000552766,-5.175320257220289e-05
0.008203257336809823,-0.0011767311634176762,-5.234257276307113e-05
0.008511454131855872,-0.0011725524855505098,-5.2929893675313176e-05
0.008795020710389245,-0.0011682258668399485,-5.351508826341079e-05
0.009053983400848922,-0.0011637636158121389,-5.4098085634073816e-05
0.009288452666763107,-0.0011591780067952359,-5.467882103972566e-05
0.009498621640673317,-0.0011544812382183768,-5.525723585097906e-05
0.009684764288965987,-0.001149685391735967,-5.583327750846765e-05
0.009847233224419778,-0.0011448023923576205,-5.6406899454491046e-05
0.009986457185711041,-0.0011398439697550878,-5.697806104501922e-05
0.010102938206926558,-0.0011348216209069284,-5.7546727442684724e-05
0.01019724850358127,-0.0011297465742293013,-5.811286949146878e-05
0.010270027102932434,-0.0011246297553276728,-5.8676463573858024e-05
0.010321976245025823,-0.0011194817544906833,-5.923749145131261e-05
0.010353857578851976,-0.001114312796034714,-5.979594008894396e-05
0.01036648817789127,-0.001109132709595528,-6.035180146535152e-05
0.010360736401321891,-0.0011039509034507248,-6.090507236861308e-05
0.010337517628746351,-0.0010987763399432078,-6.145575417946157e-05
0.010297789895600767,-0.001093617513062121,-6.20038526427129e-05
0.010242549455105004,-0.0010884824282244446,-6.254937762803454e-05
0.010172826293170633,-0.0010833785842873757,-6.30923428811625e-05
0.010089679625503,-0.0010783129578077074,-6.363276576668627e-05
0.009994193408886754,-0.0010732919895491098,-6.417066700352548e-05
0.009887471899140916,-0.001068321573222103,-6.470607039421829e-05
0.009770635286592352,-0.0010634070464256697,-6.523900254913024e-05
0.009644815436960436,-0.0010585531837447814,-6.576949260667285e-05
0.009511151761254786,-0.0010537641919452275,-6.629757195059534e-05
0.009370787232382194,-0.0010490437071968182,-6.682327392538085e-05
0.009224864559607542,-0.0010443947942488207,-6.734663355074227e-05
0.009074522526556935,-0.0010398199474772796,-6.786768723617379e-05
0.008920892495400214,-0.0010353210937217904,-6.838647249647355e-05
0.008765095078815004,-0.0010308995968282366,-6.890302766911106e-05
0.008608236980378148,-0.0010265562638134384,-6.941739163427148e-05
0.008451408001668478,-0.0010222913525679267,-6.992960353836683e-05
0.008295678211183412,-0.0010181045810147137,-7.043970252176249e-05
0.008142095268401966,-0.0010139951376448174,-7.094772745142738e-05
0.007991681897382533,-0.0010099616933533712,-7.145371665917693e-05
0.00784543350731411,-0.001006002414502197,-7.195770768614082e-05
0.007704315959718821,-0.0010021149771354389,-7.245973703405024e-05
0.0075692634822932744,-0.0009982965822749358,-7.295983992390283e-05
0.00744117672810953,-0.000994543972222335,-7.345805006252715e-05
0.007320920977225967,-0.000990853447796001,-7.395439941753173e-05
0.0072093244760464605,-0.000987220886432683,-7.44489180010889e-05
0.007107176908466379,-0.0009836417610865546,-7.494163366296871e-05
0.007015227992676183,-0.000980111159861269,-7.543257189320566e-05
0.006934186198066846,-0.0009766238063135832,-7.592175563474937e-05
0.006864717576302482,-0.0009731740803699909,-7.640920510642027e-05
0.006807444698607346,-0.0009697560398012634,-7.689493763646309e-05
0.00676294568971222,-0.0009663634422041836,-7.737896750696445e-05
0.006731753350087159,-0.0009629897674442337,-7.786130580937655e-05
0.006714354361784517,-0.0009596282405162658,-7.834196031136668e-05
0.006711188576830369,-0.0009562718547816121,-7.882093533519116e-05
0.006722648388499655,-0.0009529133955402796,-7.929823164777163e-05
0.006749078185350864,-0.0009495454638968169,-7.97738463626309e-05
0.006790773887896038,-0.0009461605008785052,-8.024777285382473e-05
0.006847982569075641,-0.0009427508117642623,-8.072000068198542e-05
0.006920902160554454,-0.0009393085905818547,-8.119051553257195e-05
0.007009681244714282,-0.0009358259447305376,-8.165929916640005e-05
0.007114418927313446,-0.0009322949196875306,-8.212632938250457e-05
0.007235164781452656,-0.0009287075237603391,-8.259157999336654e-05
0.007371918853257088,-0.0009250557528516617,-8.305502081251954e-05
0.007524631723569807,-0.0009213316152074549,-8.351661765453432e-05
0.007693204624691951,-0.0009175271561203895,-8.397633234736629e-05
0.007877489613662112,-0.000913634482560801,-8.443412275703659e-05
0.008077289804055877,-0.0009096457877063714,-8.488994282460339e-05
0.008292359658710849,-0.0009055533753406798,-8.534374261536516e-05
0.008522405346697355,-0.0009013496840893277,-8.579546838022266e-05
0.008767085167790949,-0.0008970273114607056,-8.624506262911016e-05
0.009026010046493853,-0.0008925790376571345,-8.669246421638963e-05
0.009298744097099925,-0.0008879978491212361,-8.713760843808422e-05
0.00958480526352903,-0.0008832769617810788,-8.75804271408098e-05
0.009883666042376369,-0.0008784098439546025,-8.802084884224372e-05
0.010194754302225797,-0.000873390238868452,-8.845879886294948e-05
0.01051745421405026,-0.000868212186739383,-8.889419946935144e-05
0.01085110730536545,-0.0008628700463595291,-8.932697002762617e-05
0.011195013645683843,-0.0008573585161217668,-8.97570271682465e-05
0.011548433164664234,-0.0008516726544191797,-9.018428496088173e-05
0.011910587098386317,-0.000845807899353417,-9.060865509932488e-05
0.012280659554338115,-0.0008397600876902359,-9.10300470960858e-05
0.012657799183120795,-0.0008335254730058711,-9.144836848625983e-05
0.013041120945465312,-0.0008271007429737246,-9.186352504025472e-05
0.013429707966930984,-0.0008204830357456255,-9.227542098493456e-05
0.013822613477851695,-0.0008136699553844298,-9.268395923271707e-05
0.014218862839281133,-0.0008066595863051466,-9.308904161813947e-05
0.014617455655222721,-0.0007994505066815207,-9.349056914138613e-05
0.015017367969099102,-0.0007920418007754403,-9.388844221825037e-05
0.01541755454170192,-0.00078443307014774,-9.428256093598117e-05
0.015816951210031925,-0.0007766244437098066,-9.467282531444555e-05
0.016214477330113723,-0.0007686165865747702,-9.505913557201669e-05
0.016609038309864564,-0.0007604107076647756,-9.544139239557657e-05
0.016999528238666076,-0.0007520085660276429,-9.581949721399968e-05
0.01738483261868329,-0.0007434124758133056,-9.619335247445992e-05
0.01776383120069866,-0.0007346253098584601,-9.656286192087785e-05
0.018135400924636915,-0.0007256505018271262,-9.692793087379924e-05
0.01849841896220991,-0.0007164920468554145,-9.728846651096988e-05
0.01885176585628503,-0.0007071545006507908,-9.764437814784643e-05
0.019194328748744847,-0.0006976429769995333,-9.7995577517259e-05
0.019525004685391166,-0.0006879631436409993,-9.834197904741913e-05
0.019842703983281425,-0.0006781212164738311,-9.868350013744784e-05
0.020146353643554833,-0.000668123952067122,-9.902006142958308e-05
0.020434900791424775,-0.0006579786384583771,-9.935158707721446e-05
0.020707316124517382,-0.0006476930842293915,-9.96780050078864e-05
0.020962597351270054,-0.0006372756058604447,-9.999924718040886e-05
0.02119977260235416,-0.0006267350133720386,-0.00010031524983521699
0.02141790379878768,-0.0006160805942717532,-0.00010062595373712794
0.02161608995913071,-0.0006053220958322736,-0.00010093130440965394
0.021793470425500765,-0.0005944697057361157,-0.00010123125236004603
0.02194922798576664,-0.0005835340311332989,-0.0001015257532942634
0.02208259186849697,-0.000572526076169733,-0.00010181476832108915
0.02219284058789795,-0.0005614572180556343,-0.00010209826414464548
0.022279304617154584,-0.0005503391817543712,-0.00010237621324459799
0.022341368869823443,-0.0005391840133826267,-0.00010264859404338224
0.022378474970340907,-0.0005280040524225856,-0.00010291539105983355
0.022390123296302546,-0.0005168119028559247,-0.00010317659504865318
0.02237587477631407,-0.0005056204033377705,-0.0001034322031252016
0.022335352427557832,-0.0004944425965368026,-0.00010368221887517024
0.022268242617339024,-0.00048329169777557837,-0.00010392665244874834
0.02217429603389608,-0.0004721810631127696,-0.00010416552063897043
0.022053328354926925,-0.00046112415701556384,-0.00010439884694400252
0.021905220607360384,-0.000450134519774992,-0.00010462666161320016
0.021729919217536423,-0.0004392257348187678,-0.0001048490016768486
0.021527435756554112,-0.00042841139607524515,-0.0001050659109595721
0.02129784639081634,-0.00041770507553840256,-0.00010527744007747551
0.02104129105219895,-0.00040712029117764874,-0.00010548364641915453
0.020757972345503247,-0.0003966704753282232,-0.000105684594110781
0.02044815421350449,-0.0003863689436884713,-0.00010588035396553517
0.020112160382842158,-0.0003762288650393846,-0.00010607100341771713
0.01975037261699094,-0.00036626323178942633,-0.00010625662644192433
0.01936322880440819,-0.00035648483143407655,-0.0001064373134577302
0.01895122090909244,-0.0003469062190057014,-0.00010661316122034014
0.01851489280737008,-0.00033753969057658575,-0.00010678427269773572
0.01805483803009053,-0.0003283972578672206,-0.00010695075693484667
0.01757169742537387,-0.0003194906240033545,-0.00010711272890531431
0.017066156754080228,-0.00031083116045849097,-0.00010727030935142978
0.016538944228593016,-0.00030242988521282264,-0.0001074236246128476
0.015990828004849793,-0.0002942974421544619,-0.00010757280644468942
0.015422613636718261,-0.0002864440817440699,-0.00010771799182566405
0.014835141500595733,-0.00027887964295974144,-0.00010785932275684
0.014229284196845627,-0.0002716135365353811,-0.00010799694605171378
0.013605943933974515,-0.00026465472950267606,-0.00010813101311822329
0.012966049901970832,-0.0002580117310436897,-0.00010826167973335988
0.012310555643588076,-0.0002516925796573,-0.00010838910581103513
0.01164043643512919,-0.00024570483163762066,-0.00010851345516385886
0.010956686689810195,-0.00024005555085638582,-0.00010863489525948236
0.010260317397039894,-0.0002347512998346733,-0.00010875359697215512
0.009552353610745468,-0.00022979813208272694,-0.00010886973433013446
0.008833831999279755,-0.00022520158568022064,-0.0001089834842595752
