frame_number,force
0,697.4362800062705
1,697.5085171035196
2,697.5805959236892
3,697.6523592141726
4,697.7236517520157
5,697.7943213119748
6,697.8642195824507
7,697.9332030182641
8,698.0011336235816
9,698.0678796621504
10,698.1333162949039
11,698.1973261468291
12,698.259799805328
13,698.3206362507968
14,698.3797432174002
15,698.437037479734
16,698.492445060667
17,698.5459013570575
18,698.5973511822272
19,698.6467487262894
20,698.6940574374175
21,698.7392498287314
22,698.7823072164975
23,698.8232193958736
24,698.8619842607775
25,698.8986073747067
26,698.933101499282
27,698.96548608686
28,698.9957867431342
29,699.0240346658678
30,699.0502660671342
31,699.0745215882692
32,699.0968457181019
33,699.1172862251474
34,699.1358936135708
35,699.1527206117266
36,699.1678217014099
37,699.1812526953056
38,699.1930703687376
39,699.2033321492335
40,699.2120958639965
41,699.2194195421403
42,699.225361266318
43,699.2299790671196
44,699.2333308527081
45,699.2354743652605
46,699.2364671550805
47,699.2363665631926
48,699.2352297039114
49,699.2331134401162
50,699.2300743455191
51,699.226168649805
52,699.2214521638459
53,699.215980183388
54,699.2098073712584
55,699.2029876204726
56,699.1955739029769
57,699.1876181101471
58,699.1791708911554
59,699.1702814942829
60,699.1609976147421
61,699.1513652508029
62,699.1414285680587
63,699.1312297698676
64,699.1208089710441
65,699.1102040722533
66,699.0994506341146
67,699.0885817521109
68,699.077627935373
69,699.0666169937548
70,699.0555739378977
71,699.0445208962741
72,699.0334770520643
73,699.0224586016703
74,699.0114787358397
75,699.0005476438047
76,698.9896725404758
77,698.9788577163083
78,698.9681046086183
79,698.9574118919907
80,698.9467755844795
81,698.9361891659129
82,698.9256437046923
83,698.9151279899525
84,698.9046286669081
85,698.8941303746006
86,698.883615886557
87,698.8730662555422
88,698.8624609637052
89,698.8517780796448
90,698.840994424793
91,698.8300857528715
92,698.8190269471746
93,698.8077922400631
94,698.7963554570117
95,698.7846902847134
96,698.772770560449
97,698.760570578791
98,698.7480654112674
99,698.7352312341075
100,698.7220456584129
101,698.708488056264
102,698.6945398755728
103,698.6801849359598
104,698.6654096975932
105,698.6502034951211
106,698.6345587300211
107,698.6184710167857
108,698.6019392805092
109,698.5849658049826
110,698.5675562315716
111,698.5497195106176
112,698.5314678091086
113,698.5128163806264
114,698.4937834055411
115,698.4743898104049
116,698.4546590749935
117,698.434617033684
118,698.4142916756256
119,698.3937129461062
120,698.3729125500649
121,698.3519237579239
122,698.3307812134746
123,698.3095207429366
124,698.2881791634481
125,698.266794088493
126,698.2454037276648
127,698.2240466790512
128,698.202761714188
129,698.1815875572336
130,698.1605626610976
131,698.1397249836793
132,698.1191117675374
133,698.0987593264227
134,698.0787028419218
135,698.0589761727979
136,698.03961167875
137,698.0206400596793
138,698.0020902112387
139,697.9839890972698
140,697.9663616394483
141,697.9492306239094
142,697.9326166239313
143,697.9165379374363
144,697.9010105383965
145,697.886048041754
146,697.8716616816679
147,697.8578603027858
148,697.8446503641442
149,697.8320359555247
150,697.8200188268286
151,697.8085984321291
152,697.7977719908522
153,697.7875345682959
154,697.7778791762661
155,697.7687968925586
156,697.7602769964049
157,697.7523071165247
158,697.7448733888384
159,697.7379606214927
160,697.7315524654791
161,697.7256315901092
162,697.7201798636958
163,697.715178540234
164,697.7106084523513
165,697.7064502097143
166,697.702684400917
167,697.6992917957972
168,697.69625354417
169,697.6935513662778
170,697.6911677301788
171,697.6890860120412
172,697.6872906365609
173,697.6857671956251
174,697.6845025435922
175,697.683484867797
176,697.6827037337819
177,697.6821501058724
178,697.6818163442158
179,697.6816961792315
180,697.6817846641474
181,697.6820781061269
182,697.6825739761904
183,697.683270797692
184,697.6841680131425
185,697.6852658300976
186,697.686565048215
187,697.6880668704414
188,697.6897727012513
189,697.69168393441
190,697.6938017325353
191,697.6961268009854
192,697.6986591588696
193,697.7013979096188
194,697.7043410126174
195,697.7074850570094
196,697.7108250398381
197,697.7143541526135
198,697.7180635817836
199,697.721942328707
200,697.7259770539484
201,697.7301519496922
202,697.7344486430716
203,697.7388461323336
204,697.7433207573551
205,697.7478462063613
206,697.7523935613614
207,697.7569313850946
208,697.7614258519085
209,697.7658409244442
210,697.77013857766
211,697.7742790713132
212,697.778221271098
213,697.7819230173214
214,697.7853415388039
215,697.7884339085728
216,697.7911575363353
217,697.793470690382
218,697.7953330388204
219,697.7967061974085
220,697.7975542693443
221,697.7978443618889
222,697.7975470661335
223,697.7966368892381
224,697.7950926320752
225,697.7928977085782
226,697.790040405874
227,697.7865140861688
228,697.7823173321817
229,697.777454038104
230,697.771933448423
231,697.7657701476315
232,697.7589840040985
233,697.7516000707069
234,697.7436484437177
235,697.7351640803915
236,697.7261865756452
237,697.7167598985798
238,697.7069320907461
239,697.6967549286425
240,697.6862835526456
241,697.6755760638003
242,697.6646930895389
243,697.6536973201207
244,697.6426530193926
245,697.6316255156141
246,697.6206806793408
247,697.6098843951756
248,697.5993020334499
249,697.5889979275573
250,697.5790348624288
251,697.5694735784415
252,697.5603722927394
253,697.551786237696
254,697.5437672156071
255,697.5363631703165
256,697.5296177794798
257,697.5235700738417
258,697.5182540910496
259,697.5136985713237
260,697.5099267013755
261,697.5069559118137
262,697.5047977323964
263,697.5034577094083
264,697.5029353901068
265,697.5032243798271
266,697.5043124771554
267,697.5061818912817
268,697.5088095434666
269,697.512167452018
270,697.5162231976872
271,697.5209404638554
272,697.5262796429179
273,697.5321984970385
274,697.5386528589316
275,697.5455973575021
276,697.5529861542105
277,697.5607736782015
278,697.5689153504429
279,697.5773682885389
280,697.5860919842156
281,697.5950489450087
282,697.6042052908847
283,697.6135312961677
284,697.6230018677808
285,697.6325969520824
286,697.6423018632257
287,697.6521075253407
288,697.6620106199175
289,697.6720136303251
290,697.6821247781886
291,697.6923578504624
292,697.7027319200885
293,697.713270966513
294,697.724003405079
295,697.7349615365353
296,697.7461809296985
297,697.757699751843
298,697.7695580627536
299,697.7817970892715
300,697.7944584971283
301,697.8075836755999
302,697.8212130483151
303,697.835385421346
304,697.8501373782417
305,697.8655027307294
306,697.8815120326701
307,697.8981921634045
308,697.9155659851448
309,697.9336520774993
310,697.9524645502265
311,697.9720129331338
312,697.992302140413
313,698.0133325060311
314,698.0350998866779
315,698.057595828298
316,698.0808077907633
317,698.1047194232032
318,698.1293108810373
319,698.1545591755018
320,698.1804385468253
321,698.206920852251
322,698.2339759595814
323,698.2615721364331
324,698.2896764255548
325,698.3182549974078
326,698.3472734724899
327,698.3766972074366
328,698.4064915405575
329,698.4366219936229
330,698.4670544271081
331,698.4977551462671
332,698.5286909563173
333,698.5598291670989
334,698.5911375503839
335,698.6225842556117
336,698.6541376914488
337,698.6857663811987
338,698.7174388001844
339,698.7491232032099
340,698.7807874501677
341,698.8123988376294
342,698.8439239436576
343,698.8753284918834
344,698.9065772391718
345,698.9376338894456
346,698.9684610349645
347,698.9990201255501
348,699.0292714656462
349,699.0591742388781
350,699.088686559923
351,699.1177655532563
352,699.146367456887
353,699.1744477470928
354,699.2019612791862
355,699.2288624406923
356,699.255105316465
357,699.2806438684062
358,699.3054321339367
359,699.3294244466819
360,699.3525756804646
361,699.3748415147498
362,699.3961787172829
363,699.4165454383791
364,699.4359015109942
365,699.4542087508919
366,699.4714312515308
367,699.4875356684262
368,699.5024914875781
369,699.5162712722441
370,699.5288508822334
371,699.5402096604583
372,699.550330582978
373,699.5592003712061
374,699.5668095678997
375,699.5731525811274
376,699.5782277017012
377,699.582037099117
378,699.5845867992234
379,699.5858866445334
380,699.5859502364914
381,699.5847948588361
382,699.5824413820535
383,699.578914149638
384,699.5742408467329
385,699.5684523509509
386,699.5615825644363
387,699.5536682259942
388,699.5447487025046
389,699.5348657596202
390,699.524063312305
391,699.5123871556237
392,699.4998846757134
393,699.4866045411527
394,699.4725963766725
395,699.4579104240377
396,699.4425971979819
397,699.426707147008
398,699.4102903287275
399,699.3933961071893
400,699.3760728763525
401,699.3583678108971
402,699.340326643919
403,699.3219934708187
404,699.3034105794387
405,699.2846183077397
406,699.2656549314919
407,699.2465565849008
408,699.2273572166196
409,699.2080885827689
410,699.1887802779609
411,699.1694598045502
412,699.1501526784491
413,699.1308825664624
414,699.1116714462921
415,699.0925397779225
416,699.0735066751539
417,699.0545900681483
418,699.0358068507787
419,699.0171730095626
420,698.9987037337544
421,698.9804135081405
422,698.9623161904506
423,698.944425074349
424,698.926752937954
425,698.9093120776565
426,698.8921143275677
427,698.8751710657001
428,698.8584932088154
429,698.8420911987905
430,698.8259749842433
431,698.8101540017655
432,698.7946371613887
433,698.7794328409118
434,698.7645488933189
435,698.749992670474
436,698.7357710644594
437,698.7218905654742
438,698.7083573325807
439,698.6951772714577
440,698.6823561122891
441,698.669899481189
442,698.6578129597619
443,698.646102128929
444,698.6347725947921
445,698.623829995996
446,698.613279993329
447,698.6031282426246
448,698.5933803514906
449,698.5840418198337
450,698.5751179641535
451,698.5666138260113
452,698.5585340654424
453,698.5508828400416
454,698.5436636700484
455,698.5368792895533
456,698.530531484901
457,698.5246209236687
458,698.5191469801807
459,698.5141075650189
460,698.5094989658552
461,698.5053157054788
462,698.5015504209821
463,698.4981937663886
464,698.4952343397136
465,698.4926586344498
466,698.4904510148812
467,698.488593714651
468,698.4870668584164
469,698.4858485067745
470,698.4849147247505
471,698.484239674215
472,698.4837957305929
473,698.4835536236598
474,698.4834826009475
475,698.4835506110078
476,698.4837245033116
477,698.4839702418832
478,698.4842531302439
479,698.4845380453601
480,698.484789678063
481,698.4849727770726
482,698.4850523933372
483,698.4849941208462
484,698.4847643295867
485,698.484330386367
486,698.4836608599139
487,698.482725707646
488,698.4814964424542
489,698.4799462786044
490,698.4780502565146
491,698.475785346754
492,698.4731305341254
493,698.4700668829664
494,698.4665775846145
495,698.4626479872575
496,698.4582656071793
497,698.4534201187831
498,698.4481033192338
499,698.4423090630418
500,698.4360331631398
501,698.4292732576962
502,698.4220286448442
503,698.4143000897374
504,698.4060896098293
505,698.3974002452615
506,698.3882358215335
507,698.3786007110401
508,698.3684995990751
509,698.3579372592836
510,698.3469183434454
511,698.3354471905417
512,698.3235276599769
513,698.3111629933937
514,698.2983557086249
515,698.2851075282541
516,698.2714193446452
517,698.2572912232363
518,698.2427224456013
519,698.2277115923825
520,698.2122566638557
521,698.1963552336357
522,698.1800046299104
523,698.163202138945
524,698.1459452269252
525,698.1282317773843
526,698.1100603415626
527,698.0914303981053
528,698.0723426173082
529,698.0527991241469
530,698.0328037536243
531,698.0123622916184
532,697.991482694519
533,697.9701752815444
534,697.9484528949149
535,697.9263310251348
536,697.9038279010646
537,697.8809645465639
538,697.8577648067362
539,697.8342553470932
540,697.8104656284953
541,697.78642786003
542,697.7621769317253
543,697.7377503296252
544,697.7131880370381
545,697.6885324268081
546,697.6638281493882
547,697.6391220203078
548,697.6144629091292
549,697.5899016306856
550,697.5654908381306
551,697.5412849158276
552,697.5173398685328
553,697.4937132021261
554,697.4704637908059
555,697.4476517264536
556,697.42533814773
557,697.403585048765
558,697.382455069318
559,697.3620112695532
560,697.342316892969
561,697.3234351205897
562,697.3054288185465
563,697.288360280186
564,697.2722909633021
565,697.2572812230367
566,697.2433900411694
567,697.2306747528443
568,697.2191907724746
569,697.2089913218294
570,697.2001271647476
571,697.1926463537679
572,697.18659399375
573,697.1820120264758
574,697.1789390387812
575,697.1774100953152
576,697.1774565955596
577,697.1791061530826
578,697.1823824932271
579,697.1873053640135
580,697.1938904544476
581,697.2021493147979
582,697.2120892743817
583,697.2237133537137
584,697.2370201695983
585,697.2520038338613
586,697.2686538484164
587,697.2869550005842
588,697.3068872627671
589,697.3284256999623
590,697.3515403877606
591,697.3761963431505
592,697.4023534710179
593,697.4299665305018
594,697.4589851267386
595,697.4893537343867
596,697.5210117593285
597,697.5538936442664
598,697.5879290230442
599,697.6230429277509
600,697.6591560518118
601,697.6961850709946
602,697.7340430222272
603,697.7726397373265
604,697.8118823256525
605,697.8516756971131
606,697.8919231155224
607,697.9325267721969
608,697.9733883704764
609,698.0144097129391
610,698.0554932839625
611,698.0965428210716
612,698.1374638695306
613,698.1781643157929
614,698.218554896195
615,698.2585496775545
616,698.2980665067595
617,698.337027427517
618,698.3753590635082
619,698.4129929671473
620,698.4498659316338
621,698.4859202620621
622,698.5211040002941
623,698.5553710985978
624,698.5886815382843
625,698.6210013910403
626,698.6523028218353
627,698.6825640331019
628,698.7117691505409
629,698.739908051749
630,698.766976140129
631,698.7929740681716
632,698.8179074158395
633,698.8417863309562
634,698.8646251388174
635,698.886441927737
636,698.9072581164146
637,698.9270980086509
638,698.9459883415628
639,698.9639578347088
640,698.9810367484666
641,698.9972564600355
642,699.0126490647204
643,699.0272470091927
644,699.041082762498
645,699.0541885296533
646,699.0665960113756
647,699.0783362115379
648,699.0894392913979
649,699.0999344670316
650,699.1098499443927
651,699.1192128853456
652,699.1280493976905
653,699.1363845421765
654,699.1442423495959
655,699.151645841371
656,699.1586170477473
657,699.1651770188465
658,699.1713458255283
659,699.1771425491102
660,699.1825852610143
661,699.1876909947824
662,699.1924757135074
663,699.1969542757911
664,699.2011404029802
665,699.2050466497501
666,699.2086843794938
667,699.2120637457631
668,699.2151936809603
669,699.2180818929992
670,699.220734869613
671,699.2231578889028
672,699.2253550340133
673,699.2273292091307
674,699.2290821527977
675,699.2306144433712
676,699.2319254915948
677,699.2330135172415
678,699.2338755094843
679,699.2345071723078
680,699.2349028564844
681,699.2350554796196
682,699.2349564365869
683,699.2345955038186
684,699.2339607412762
685,699.2330383952072
686,699.231812803624
687,699.2302663056255
688,699.228379155575
689,699.2261294434895
690,699.2234930234995
691,699.2204434530364
692,699.2169519464926
693,699.2129873479462
694,699.2085161277246
695,699.2035024072366
696,699.1979080159359
697,699.1916925833699
698,699.1848136676329
699,699.1772269191456
700,699.1688862762225
701,699.1597441873552
702,699.1497518550115
703,699.138859496731
704,699.1270166206991
705,699.1141723140428
706,699.1002755424485
707,699.0852754595576
708,699.0691217245479
709,699.0517648268361
710,699.0331564177455
711,699.0132496493997
712,698.9919995205332
713,698.9693632279026
714,698.9453005214493
715,698.9197740616289
716,698.8927497777761
717,698.8641972262068
718,698.834089945574
719,698.802405805323
720,698.7691273418654
721,698.734242076757
722,698.6977428112712
723,698.6596278916544
724,698.619901438964
725,698.5785735372046
726,698.5356603740158
727,698.4911843296062
728,698.4451740118083
729,698.39766423743
730,698.3486959618143
731,698.2983161594752
732,698.2465776591191
733,698.193538936427
734,698.1392638675655
735,698.0838214456331
736,698.0272854617782
737,697.9697341530394
738,697.9112498198317
739,697.8519184168915
740,697.7918291221648
741,697.7310738886162
742,697.6697469840412
743,697.60794452325
744,697.5457639955284
745,697.4833037889744
746,697.4206627130333
747,697.357939521436
748,697.2952324391078
749,697.2326386977053
750,697.1702540848293
751,697.1081725117417
752,697.0464856039953
753,696.9852823190806
754,696.9246485948819
755,696.8646670320161
756,696.8054166120356
757,696.7469724525015
758,696.6894055993223
759,696.6327828560911
760,696.5771666490626
761,696.5226149250097
762,696.4691810778191
763,696.4169138986422
764,696.3658575439013
765,696.3160515154251
766,696.2675306473249
767,696.2203250948232
768,696.174460321112
769,696.1299570796275
770,696.0868313911216
771,696.0450945173583
772,696.0047529354083
773,695.9658083175674
774,695.9282575217624
775,695.8920925964186
776,695.8573008028793
777,695.8238646581607
778,695.7917620014151
779,695.7609660886297
780,695.7314457207167
781,695.703165409199
782,695.6760855813081
783,695.6501628236468
784,695.6253501614638
785,695.6015973691206
786,695.5788513064725
787,695.5570562758405
788,695.5361543951132
789,695.5160859839549
790,695.4967899612932
791,695.4782042523676
792,695.4602662027266
793,695.4429129955726
794,695.4260820683883
795,695.4097115247116
796,695.3937405371255
797,695.3781097382162
798,695.3627615974805
799,695.3476407835154
800,695.3326945116693
801,695.3178728772833
802,695.3031291737918
803,695.2884201939895
804,695.273706512615
805,695.2589527490543
806,695.2441278095113
807,695.2292051078603
808,695.2141627639886
809,695.1989837782664
810,695.1836561807099
811,695.1681731531345
812,695.1525331223937
813,695.1367398232161
814,695.1208023301176
815,695.1047350585225
816,695.0885577347404
817,695.0722953328764
818,695.0559779751331
819,695.0396407917215
820,695.0233237383701
821,695.0070713724714
822,694.9909325915667
823,694.9749603390283
824,694.9592112813255
825,694.9437454597205
826,694.9286259176062
827,694.913918304134
828,694.8996904557982
829,694.8860119594248
830,694.8729537013254
831,694.8605874076997
832,694.8489851809542
833,694.8382190356632
834,694.8283604365931
835,694.8194798402934
836,694.8116462420937
837,694.8049267318231
838,694.7993860630912
839,694.7950862416435
840,694.792086137904
841,694.7904411275782
842,694.7902027626637
843,694.7914184742265
844,694.7941313083354
845,694.7983796972392
846,694.8041972686079
847,694.811612696352
848,694.8206495972512
849,694.8313264778666
850,694.8436567351827
851,694.8576487120915
852,694.8733058061317
853,694.8906266278747
854,694.9096052041718
855,694.9302312204089
856,694.9524902942851
857,694.9763642717268
858,695.0018315344421
859,695.0288673091906
860,695.0574439708311
861,695.0875313335159
862,695.1190969261635
863,695.152106249512
864,695.1865230130667
865,695.2223093512838
866,695.2594260191173
867,695.297832567261
868,695.3374874972725
869,695.3783483967865
870,695.4203720556179
871,695.4635145648311
872,695.5077314025724
873,695.5529775118175
874,695.5992073753198
875,695.6463750918032
876,695.694434455324
877,695.7433390374023
878,695.7930422697916
879,695.8434975251783
880,695.894658193747
881,695.9464777551267
882,695.998909847225
883,696.0519083350872
884,696.1054273837074
885,696.159421538707
886,696.2138458180981
887,696.2686558169224
888,696.3238078247737
889,696.3792589549687
890,696.4349672839991
891,696.4908920002961
892,696.5469935613245
893,696.6032338573282
894,696.6595763792516
895,696.7159863879308
896,696.7724310816069
897,696.8288797590649
898,696.8853039763877
899,696.9416776963811
900,696.9979774306349
901,697.0541823743491
902,697.1102745334945
903,697.1662388430316
904,697.2220632739508
905,697.2777389256833
906,697.3332600990146
907,697.3886243434212
908,697.4438324722777
909,697.4988885399545
910,697.5537997761164
911,697.6085764737567
912,697.6632318280799
913,697.717781723683
914,697.7722444683998
915,697.82664047396
916,697.880991886029
917,697.9353221690075
