acceleration,velocity,displacement
-0.01386449895188321,0.0,0.0
-0.012849862327519763,-6.678590319850743e-06,-1.6696475799626858e-09
-0.011837448850648512,-1.2850418114392812e-05,-6.5518996885235746e-09
-0.010829467279098415,-1.8517147146829544e-05,-1.4393791003829164e-08
-0.009828097862356694,-2.368153843219332e-05,-2.494346239858488e-08
-0.008835478744302148,-2.834743258385803e-05,-3.795070515259772e-08
-0.007853693098072006,-3.251972554445157e-05,-5.316749468467512e-08
-0.006884757148038486,-3.6204338105979196e-05,-7.034851059728281e-08
-0.005930609172896038,-3.940817968621283e-05,-8.925164004533081e-08
-0.004993099529761016,-4.213910686187709e-05,-1.0963846168235329e-07
-0.004073981698408718,-4.4405877168919523e-05,-1.3127470769005245e-07
-0.0031749043191019676,-4.62180986732972e-05,-1.5393070165060662e-07
-0.0022974041926446076,-4.758617580123384e-05,-1.7738177026923938e-07
-0.0014429002324992065,-4.85212519075198e-05,-2.0140862719642778e-07
-0.0006126883973799139,-4.903514906498958e-05,-2.2579772743955513e-07
0.00019206233518819296,-4.914030558053751e-05,-2.503415911009369e-07
0.000970312888199101,-4.8849711774690687e-05,-2.74839095439744e-07
0.0017211558509715509,-4.817684458989803e-05,-2.9909573453089114e-07
0.0024438160757351145,-4.713560160822136e-05,-3.2292384608042097e-07
0.003137650120399749,-4.574023505918764e-05,-3.4614280524727323e-07
0.0038021445808645274,-4.400528638387157e-05,-3.6857918560803804e-07
0.004436913378557809,-4.1945521894015985e-05,-3.900668876775099e-07
0.0050416940832183265,-3.957587002857195e-05,-4.1044723565815694e-07
0.005616343358428635,-3.691136066816021e-05,-4.2956904333233997e-07
0.006160831622324199,-3.3967066922972e-05,-4.47288650230123e-07
0.00667523701935539,-3.0758049762552104e-05,-4.6346992940150406e-07
0.007159738798251476,-2.7299305808150386e-05,-4.779842682941796e-07
0.007614610185293276,-2.3605718562264197e-05,-4.907105243867833e-07
0.008040210836051343,-1.9692013306928043e-05,-5.015349573540813e-07
0.008436978951869921,-1.5572715859947725e-05,-5.103511396458003e-07
0.008805423164702637,-1.1262115330804585e-05,-5.170598474434884e-07
0.009146114319578196,-6.774230959734376e-06,-5.215689340161231e-07
0.009459677303112469,-2.1227830540617097e-06,-5.237931875195722e-07
0.009746783068137617,2.6788320387508126e-06,-5.236541752733999e-07
0.010008140992212183,7.617563053838263e-06,-5.210800765002526e-07
0.010244491693682271,1.2680721225311876e-05,-5.160055054304651e-07
0.010456600419585866,1.785599425362891e-05,-5.083713265607299e-07
0.01064525111053433,2.3131457136158957e-05,-4.981244637132829e-07
0.010811241228292507,2.8495580220865664e-05,-4.852177043740268e-07
0.010955377395425198,3.3937234876795094e-05,-4.6960950059961157e-07
0.011078471848313037,3.944569718772965e-05,-4.512637675834804e-07
0.011181339659350115,4.501065006464544e-05,-4.301496807703866e-07
0.01126479665294787,5.0622184142719936e-05,-4.0624147221854526e-07
0.01132965792223691,5.627079778651613e-05,-3.7951822673623624e-07
0.01137673684075141,6.19473964772632e-05,-3.499636781702914e-07
0.011406844450598029,6.764329180010056e-05,-3.1756600610095047e-07
0.01142078909884668,7.335020018746173e-05,-2.823176331040599e-07
0.011419376193048475,7.906024151043553e-05,-2.442150226795856e-07
0.011403407956402383,8.476593754779825e-05,-2.0325847791502716e-07
0.011373683080470445,9.046021030701646e-05,-1.5945194095132347e-07
0.01133099619519255,9.61363801259322e-05,-1.128027933430863e-07
0.01127613709832822,0.00010178816344931239,-6.332165744927516e-08
0.011209889705027261,0.00010740967015015126,-1.1022199049409243e-08
0.011133030695018677,0.00011299540025016275,4.4079068550669264e-08
0.011046327858104471,0.00011854023988844354,1.0196297858532083e-07
0.01095053817136738,0.0001240394563958115,1.6260790265638458e-07
0.010846405674626289,0.00012948869235730992,2.2598993984466493e-07
0.010734659230093875,0.00013488395858348996,2.920831025798649e-07
0.010616010252083976,0.00014022162595403443,3.60859498714246e-07
0.010491150478105764,0.00014549841613658185,4.322895092369001e-07
0.010360749831387997,0.0001507113912139553,5.063419610745344e-07
0.010225454400036185,0.00015585794227181133,5.829842944459761e-07
0.010085884530524858,0.0001609357770044516,6.621827242650419e-07
0.009942633007923595,0.00016594290638906372,7.439023951134208e-07
0.009796263281784593,0.00017087763046149076,8.281075293260594e-07
0.009647307701887506,0.00017573852320740878,9.147615677432843e-07
0.009496265749915536,0.00018052441657035955,1.0038273026877263e-06
0.009343602282433963,0.00018523438357844694,1.095267002724928e-06
0.009189745828311174,0.00018986772060613323,1.189042528771073e-06
0.009035087002582631,0.00019442392881385668,1.2851154411260705e-06
0.008879977102764577,0.00019890269484019348,1.383447097039583e-06
0.008724726943648868,0.00020330387085179684,1.4839987384625805e-06
0.008569605970689877,0.00020762745408038153,1.5867315696956252e-06
0.008414841677283747,0.00021187356599237494,1.6916068247138144e-06
0.00826061933963926,0.0002160424312466057,1.7985858240235594e-06
0.008107082074918635,0.00022013435660024519,1.9076300209852723e-06
0.007954331223189639,0.00022414970992477225,2.0187010376165266e-06
0.007802427047852335,0.00022808889949253275,2.1317606899708527e-06
0.007651389737336185,0.00023195235368882988,2.2467710032661934e-06
0.007501200674963466,0.00023574050129190479,2.363694217011377e-06
0.00735180393063403,0.00023945375244330416,2.4824927804451794e-06
0.007203107922522053,0.00024309248040659318,2.6031293386576538e-06
0.007054987198093182,0.000246657004186747,2.7255667098059887e-06
0.006907284290407737,0.0002501475720588722,2.8497678538673935e-06
0.006759811619197609,0.00025356434603627354,2.97569583339118e-06
0.006612353425636408,0.000256907387297482,3.1033137667246186e-06
0.006464667748030134,0.00026017664259089866,3.232584774196714e-06
0.006316488454997166,0.00026337193164165546,3.3634719177548526e-06
0.006167527354403759,0.0002664929355940057,3.495938134563768e-06
0.006017476399502169,0.0002695391865324822,3.62994616509539e-06
0.005866010025939114,0.0002725100581388425,3.7654584762632213e-06
0.005712787672379656,0.0002754047575634222,3.9024371801887874e-06
0.005557456551542189,0.0002782223186194026,4.040843949234494e-06
0.0053996547331770246,0.00028096159644058245,4.18063992799949e-06
0.005239014571947271,0.0002836212637668635,4.321785643051352e-06
0.005075166473198709,0.00028619980902815003,4.464240911250105e-06
0.004907742957421121,0.00028869553638580497,4.607964747603594e-06
0.004736382968188849,0.0002911065678672075,4.752915273666847e-06
0.004560736362131126,0.0002934308476997875,4.899049627558595e-06
0.004380468512426302,0.00029566614891842684,5.0463238767131485e-06
0.004195264946356592,0.00029781008228312256,5.194692934513536e-06
0.004004835925774322,0.00029986010750115527,5.344110481959606e-06
0.0038089208695021304,0.00030181354669997436,5.494528895509888e-06
0.003607292509192417,0.000303667600044648,5.645899182196044e-06
0.0033997606654255614,0.0003054193633383025,5.798170923041782e-06
0.003186175533502699,0.00030706584738803455,5.951292225723366e-06
0.0029664303851716207,0.00030860399886770314,6.1052096872873005e-06
0.0027404636219364753,0.00031003072236948014,6.259868367596597e-06
0.0025082601457550244,0.000311342903311403,6.4152117740168176e-06
0.0022698520345787007,0.00031253743135648644,6.57118185768379e-06
0.002025318526588639,0.00031361122399677826,6.727719021522106e-06
0.0017747853375800348,0.00031456124996282045,6.884762140012006e-06
0.0015184233641169786,0.0003153845521382447,7.0422485905372725e-06
0.0012564468568186345,0.0003160782696934786,7.200114295995203e-06
0.0009891111757405477,0.0003166396592016184,7.358293778218978e-06
0.0007167102536019509,0.00031706611455895403,7.516720221659121e-06
0.00043957388549762896,0.00031735518559372893,7.675325546697291e-06
0.00015806493906976406,0.0003175045952998708,7.83404049192069e-06
-0.00012742345228021934,0.00031751225567156816,7.99279470466355e-06
-0.00041647067937470276,0.0003173762821386544,8.151516839116107e-06
-0.0007086314171186026,0.00031709500661453107,8.310134661304402e-06
-0.0010034383517602795,0.00031666698917231134,8.468575160251112e-06
-0.0013004048793135822,0.00031609102836454287,8.626764664635325e-06
-0.0015990277874941517,0.00031536617019784093,8.784628964275921e-06
-0.001898789945655876,0.00031449171576455344,8.94209343576652e-06
-0.002199163037744521,0.00031346722751870337,9.099083171587334e-06
-0.002499610374794577,0.0003122925341655686,9.255523112008402e-06
-0.00279958981107995,0.0003109677341191,9.41133817907957e-06
-0.0030985567646386737,0.0003094931974751703,9.566453411978137e-06
-0.0033959673189680145,0.00030786956645426864,9.720794102960497e-06
-0.003691281367502012,0.0003060977542826511,9.874285933144728e-06
-0.003983965756554467,0.000304178942501637,1.00268551073408e-05
-0.004273497380055031,0.0003021145767174846,1.017842848714558e-05
-0.00455936617789705,0.0002999063608279966,1.032893372153195e-05
-0.00484107799226438,0.00029755624978545624,1.0478299374185314e-05
-0.005118157245612328,0.0002950664409759871,1.0626455046875675e-05
-0.005390149416137791,0.0002924393643105496,1.0773331498197309e-05
-0.005656623295428137,0.0002896776711326581,1.0918860757058111e-05
-0.005917173017398393,0.00028678422205445143,1.106297623035489e-05
-0.006171419850037539,0.00028376207383759246,1.12056128043279e-05
-0.006419013745435286,0.00028061446543872423,1.134670693914698e-05
-0.006659634651316544,0.0002773448033395363,1.1486196756341546e-05
-0.006892993597024333,0.00027395664627745105,1.1624022118745792e-05
-0.007118833571369435,0.0002704536894853526,1.1760124702686493e-05
-0.007336930205188557,0.00026683974854121306,1.1894448062193135e-05
-0.00754709226406897,0.0002631187429238987,1.2026937685059414e-05
-0.007749161953888787,0.00025929467936940923,1.215754104063274e-05
-0.007943015043420473,0.0002553716351200819,1.2286207619255114e-05
-0.008128560809540195,0.00025135374115684174,1.2412888963324345e-05
-0.008305741807495744,0.00024724516550258277,1.25375386899892e-05
-0.008474533458311156,0.00024305009668613105,1.2660112505536379e-05
-0.008634943430030148,0.00023877272746404573,1.2780568211573922e-05
-0.008787010778378596,0.00023441723891194353,1.289886570316792e-05
-0.008930804815795532,0.0002299877850134,1.3014966959149256e-05
-0.009066423697908754,0.00022548847788497392,1.312883602487385e-05
-0.009193992745301225,0.00022092337377417143,1.3240438987788636e-05
-0.009313662541051329,0.00021629645995258328,1.3349743946220324e-05
-0.009425606851193532,0.00021161164260452206,1.34567209718596e-05
-0.009530020409507022,0.0002068727357893469,1.3561342066458068e-05
-0.009627116599578276,0.0002020834515370756,1.3663581113289673e-05
-0.00971712505830087,0.0001972473911226058,1.3763413823954593e-05
-0.009800289211172798,0.00019236803755523737,1.3860817681124053e-05
-0.009876863734453902,0.0001874487493188307,1.395577187784257e-05
-0.009947111933064624,0.00018249275540195106,1.4048257254022765e-05
-0.010011303030422424,0.0001775031516610793,1.4138256230788522e-05
-0.010069709381634841,0.00017248289855806498,1.4225752743343308e-05
-0.010122603637794228,0.0001674348203032077,1.4310732173058625e-05
-0.0101702559042556,0.00016236160541769525,1.439318127948885e-05
-0.010212930949245186,0.00015726580870432006,1.4473088133019354e-05
-0.010250885528808075,0.00015214985458480675,1.4550442048841636e-05
-0.010284365895230794,0.00014701604172879704,1.4625233522920037e-05
-0.010313605545554619,0.0001418665488686007,1.4697454170569386e-05
-0.010338823249286156,0.0001367034416698905,1.476709666820401e-05
-0.01036022138164981,0.0001315286805121565,1.4834154698749522e-05
-0.010377984585301515,0.00012634412902041867,1.4898622901132666e-05
-0.01039227878001389,0.00012115156317908981,1.4960496824182542e-05
-0.010403250527363683,0.00011595268085224541,1.5019772885190375e-05
-0.010411026741726734,0.0001107491115349728,1.507644833328718e-05
-0.010415714731880348,0.00010554242616657104,1.5130521217712566e-05
-0.01041740255986195,0.00010033414684363547,1.5181990360965117e-05
-0.010416159707646701,9.512575627675831e-05,1.5230855336745216e-05
-0.010412038044526985,8.99187068387149e-05,1.5277116452524083e-05
-0.010405073092356174,8.471442905449411e-05,1.5320774736497383e-05
-0.010395285591984507,7.951433938340895e-05,1.536183192860686e-05
-0.010382683373861954,7.431984714194733e-05,1.5400290475238198e-05
-0.010367263522679353,6.913236041781201e-05,1.5436153527128137e-05
-0.010349014806504754,6.395329083551598e-05,1.5469424939941467e-05
-0.010327920328844505,5.878405705167866e-05,1.5500109276913267e-05
-0.010303960362558465,5.362608687882792e-05,1.5528211812895895e-05
-0.010277115330928488,4.8480817955456185e-05,1.5553738539104467e-05
-0.010247368903914696,4.334969689674539e-05,1.5576696167817517e-05
-0.010214711174113062,3.823417687723845e-05,1.5597092136261013e-05
-0.010179141873114542,3.3135713615431545e-05,1.561493460888418e-05
-0.010140673594059938,2.8055759748637925e-05,1.56302324772252e-05
-0.010099334999273924,2.299575760030446e-05,1.5642995356562435e-05
-0.010055173997375535,1.7957130351142096e-05,1.5653233578550298e-05
-0.010008260859502894,1.294127163692249e-05,1.5660958179047315e-05
-0.009958691217175606,7.949533617752864e-06,1.5666180880360984e-05
-0.009906588864856099,2.983213597244937e-06,1.5668914067164736e-05
-0.009852108288600805,-1.956460691119289e-06,1.5669170755391267e-05
-0.009795436853076172,-6.8683469765385335e-06,1.5666964553474353e-05
-0.009736796593627514,-1.1751405338214455e-05,1.5662309615395666e-05
-0.009676445574104181,-1.6604715880147377e-05,1.5655220585091075e-05
-0.009614678783488,-2.142749696954542e-05,1.564571253187865e-05
-0.009551828550020033,-2.621912380292243e-05,1.5633800876685534e-05
-0.00948826444683553,-3.097914705213632e-05,1.561950130897177e-05
-0.00942439265377068,-3.570731132728787e-05,1.5602829694376914e-05
-0.009360654736135633,-4.040357317476445e-05,1.55838019732514e-05
-0.009297525806402857,-4.506811831039907e-05,1.5562434050380112e-05
-0.009235512042498157,-4.9701377772624324e-05,1.5538741676359355e-05
-0.009175147541188153,-5.43040426685459e-05,1.5512740321249064e-05
-0.009116990490814648,-5.8877077176546606e-05,1.548444504128779e-05
-0.009061618660626089,-6.34217294644068e-05,1.5453870339627553e-05
-0.009009624222374321,-6.79395401851569e-05,1.5421030022215163e-05
-0.008961607936707377,-7.243234822492733e-05,1.538593705011264e-05
-0.008918172752528439,-7.690229339723628e-05,1.5348603389707098e-05
-0.008879916889762267,-8.135181580780895e-05,1.530903986240584e-05
-0.00884742650873899,-8.578365165743426e-05,1.5267255995539526e-05
-0.008821268108070981,-9.020082531163675e-05,1.5223259876297258e-05
-0.008801980829822215,-9.460663754611004e-05,1.517705801058282e-05
-0.008790068877668167,-9.900464997298264e-05,1.5128655188703047e-05
-0.008785994260451051,-0.00010339866575751245,1.5078054359770424e-05
-0.008790170053405495,-0.00010779270683597659,1.5025256516622052e-05
-0.008802954326968824,-0.00011219098793107017,1.497026059293029e-05
-0.008824644842432125,-0.0001165978877234204,1.4913063374016668e-05
-0.008855474566391564,-0.00012101791757562633,1.4853659422691907e-05
-0.008895608016943874,-0.0001254556882214602,1.4792041021242635e-05
-0.00894513842802582,-0.00012991587483270262,1.4728198130479093e-05
-0.009004085706653177,-0.00013440318086637237,1.4662118366554325e-05
-0.009072395155319062,-0.00013892230108186542,1.4593786996067265e-05
-0.009149936926675869,-0.00014347788410236416,1.4523186949771208e-05
-0.009236506168079313,-0.00014807449487605297,1.4450298855026605e-05
-0.009331823809970533,-0.00015271657737056543,1.437510108696495e-05
-0.009435537961511146,-0.00015740841781343583,1.4297569838168951e-05
-0.009547225892972645,-0.00016215410877705677,1.4217679206521327e-05
-0.009666396597402177,-0.00016695751439965047,1.413540130072715e-05
-0.009792493927692372,-0.0001718222370309241,1.4050706362869506e-05
-0.009924900297284912,-0.0001767515855871684,1.3963562907214983e-05
-0.010062940918308588,-0.00018174854589106677,1.3873937874345424e-05
-0.010205888542115625,-0.00018681575325617283,1.3781796799558614e-05
-0.010352968671280766,-0.00019195546755952192,1.368710399435469e-05
-0.010503365223067555,-0.000197169551033109,1.3589822739706533e-05
-0.010656226629300413,-0.000202459448996201,1.3489915489699205e-05
-0.010810672347492384,-0.0002078261737403992,1.3387344084015055e-05
-0.010965799732672657,-0.00021327029176044046,1.3282069967639846e-05
-0.011120691189209803,-0.00021879191449091108,1.3174054416077008e-05
-0.011274421504428436,-0.00022439069266432063,1.30632587642882e-05
-0.011426065268341671,-0.00023006581435751317,1.2949644637532742e-05
-0.011574704294383205,-0.0002358160067481944,1.2833174182256315e-05
-0.011719434960731906,-0.00024163954156197317,1.2713810295178772e-05
-0.011859375395152838,-0.00024753424415094435,1.2591516848750542e-05
-0.01199367244305334,-0.0002534975061104959,1.2466258911185183e-05
-0.012121508390977238,-0.00025952630131900354,1.2338002959327808e-05
-0.012242107449323263,-0.0002656172052790787,1.2206717082678287e-05
-0.012354742007089515,-0.00027176641764318187,1.2072371176947723e-05
-0.012458738648793086,-0.0002779697878071525,1.193493712558514e-05
-0.012553483881493624,-0.0002842228434397242,1.179438896777342e-05
-0.012638429482403755,-0.00029052082178069856,1.1650703051468314e-05
-0.01271309736138539,-0.00029685870349164585,1.1503858170150227e-05
-0.012777083835549931,-0.00030323124879087966,1.1353835682079595e-05
-0.012830063226161105,-0.00030963303555630743,1.1200619610992798e-05
-0.01287179070425019,-0.00031605849903891027,1.1044196727343993e-05
-0.012902104323736922,-0.00032250197279590703,1.0884556609385288e-05
-0.012920926181936753,-0.00032895773042232544,1.072169168358073e-05
-0.012928262638038434,-0.0003354200276273192,1.0555597244068318e-05
-0.012924203511005069,-0.0003418831441645801,1.0386271451120344e-05
-0.012908920180940388,-0.00034834142508756644,1.0213715308807307e-05
-0.012882662536172205,-0.0003547893207668446,1.0037932622343704e-05
-0.012845754738871723,-0.0003612214250856056,9.858929935880592e-06
-0.01279858981769748,-0.0003676325112247479,9.676716451803004e-06
-0.012741623130888278,-0.00037401756446189436,9.491303932881344e-06
-0.01267536477883097,-0.00038037181143932416,9.30270658890604e-06
-0.01260037108684786,-0.0003866907454057439,9.110940949694773e-06
-0.012517235324285904,-0.00039297014700852734,8.916025726591205e-06
-0.012426577861388545,-0.000399206100304946,8.717981664762838e-06
-0.01232903597701446,-0.00040539500376454674,8.516831388745464e-06
-0.012225253515704379,-0.00041153357613772645,8.312599243769895e-06
-0.012115870562135858,-0.0004176188571571865,8.105311135446167e-06
-0.012001513269909087,-0.0004236482031151977,7.894994370378072e-06
-0.011882783961807681,-0.0004296192774231269,7.681677500243491e-06
-0.011760251613879866,-0.0004355300363170488,7.465390171808447e-06
-0.011634442842352275,-0.0004413787099311068,7.246162985246408e-06
-0.011505833523526519,-0.0004471637790225765,7.024027363007987e-06
-0.011374841181924961,-0.0004528839476989394,6.799015431327608e-06
-0.01124181827294591,-0.00045853811256265715,6.571159916262209e-06
-0.011107046468471056,-0.00046412532874801136,6.3404940559345414e-06
-0.010970732044757903,-0.0004696447733763186,6.107051530403459e-06
-0.010833002480767765,-0.00047509570700770003,5.870866410307454e-06
-0.010693904388031797,-0.0004804774337248999,5.631973125124304e-06
-0.010553402885342608,-0.0004857892605432435,5.390406451557268e-06
-0.01041138249239505,-0.0004910304568876779,5.1462015221995374e-06
-0.010267649558706968,-0.0004962002149004535,4.899393854252505e-06
-0.010121936187223587,-0.0005012976113369361,4.650019397693157e-06
-0.009973905564517634,-0.0005063215717748714,4.398114601915205e-06
-0.009823158570903365,-0.0005112708378087267,4.143716499519305e-06
-0.009669241512583675,-0.0005161439378295984,3.886862805609724e-06
-0.009511654792738664,-0.000520939161905929,3.6275920306758416e-06
