frame_number,force
0,803.3440000117265
1,803.2879390963863
2,803.2319502347111
3,803.1761053298466
4,803.1204759894302
5,803.0651333903859
6,803.0101481555909
7,802.9555902423
8,802.9015288406788
9,802.8480322801871
10,802.7951679417081
11,802.7430021739068
12,802.6916002128556
13,802.6410261042082
14,802.591342627342
15,802.5426112212692
16,802.494891912817
17,802.4482432483466
18,802.4027222307849
19,802.3583842636219
20,802.3152831028099
21,802.2734708169168
22,802.2329977560865
23,802.1939125311864
24,802.1562620050418
25,802.1200912971638
26,802.0854438018201
27,802.0523612171227
28,802.0208835805732
29,801.9910493049878
30,801.9628952083797
31,801.9364565320875
32,801.9117669424095
33,801.8888585114692
34,801.8677616729458
35,801.848505148383
36,801.8311158406802
37,801.8156186931327
38,801.8020365146988
39,801.7903897746777
40,801.7806963723236
41,801.7729713887194
42,801.7672268289055
43,801.7634713615014
44,801.7617100613897
45,801.76194415965
46,801.7641708045677
47,801.7683828377728
48,801.7745685895853
49,801.7827116974271
50,801.7927909510831
51,801.8047801684601
52,801.8186481048483
53,801.8343583976417
54,801.8518695476292
55,801.8711349377174
56,801.8921028899862
57,801.914716761939
58,801.9389150828217
59,801.9646317310948
60,801.9917961540808
61,802.0203336298349
62,802.0501655696453
63,802.0812098581965
64,802.1133812281967
65,802.1465916672691
66,802.1807508561852
67,802.2157666376946
68,802.2515455139567
69,802.2879931686987
70,802.3250150086302
71,802.3625167175715
72,802.4004048162423
73,802.438587220785
74,802.4769737936614
75,802.5154768810415
76,802.5540118307182
77,802.5924974839218
78,802.6308566335174
79,802.6690164402285
80,802.7069087980831
81,802.7444706406169
82,802.7816441806095
83,802.818377078166
84,802.8546225346673
85,802.8903393133523
86,802.9254916905252
87,802.9600493441765
88,802.9939871892251
89,803.0272851707745
90,803.059928028251
91,803.0919050433115
92,803.1232097828014
93,803.1538398453928
94,803.1837966177695
95,803.2130850440811
96,803.241713410946
97,803.2696931489975
98,803.2970386505527
99,803.3237671019665
100,803.3498983291519
101,803.3754546552221
102,803.4004607693867
103,803.4249436057556
104,803.4489322299281
105,803.4724577309797
106,803.4955531173832
107,803.5182532171111
108,803.5405945835644
109,803.5626154092587
110,803.5843554485542
111,803.6058559495885
112,803.6271595942075
113,803.6483104433655
114,803.6693538848466
115,803.6903365804832
116,803.7113064108137
117,803.732312415721
118,803.7534047300861
119,803.7746345141371
120,803.7960538786792
121,803.8177158048958
122,803.8396740565436
123,803.8619830799727
124,803.8846978859648
125,803.9078739077498
126,803.9315668315463
127,803.9558323986479
128,803.9807261806321
129,804.0063033313654
130,804.0326183210514
131,804.0597246584991
132,804.0876746081389
133,804.1165189083351
134,804.1463064974439
135,804.1770842537823
136,804.2088967550028
137,804.2417860609711
138,804.2757915222481
139,804.3109496145358
140,804.3472937987921
141,804.384854406933
142,804.4236585530695
143,804.4637300693446
144,804.5050894639523
145,804.547753897895
146,804.591737177248
147,804.6370497589372
148,804.6836987696144
149,804.7316880386625
150,804.7810181474042
151,804.8316864970448
152,804.8836873976609
153,804.9370121797192
154,804.9916493283691
155,805.0475846393792
156,805.1048013944054
157,805.1632805525122
158,805.2230009546623
159,805.2839395382149
160,805.3460715592175
161,805.4093708212274
162,805.4738099102077
163,805.5393604352173
164,805.6059932739317
165,805.6736788209582
166,805.7423872361479
167,805.812088690024
168,805.8827536039915
169,805.9543528837621
170,806.026858144496
171,806.1002419249622
172,806.1744778858757
173,806.2495409853598
174,806.3254076230878
175,806.4020557448559
176,806.4794649011986
177,806.5576162564385
178,806.6364925473267
179,806.7160779926234
180,806.7963581564495
181,806.8773197693497
182,806.958950512146
183,807.0412387690104
184,807.1241733574346
185,807.2077432435025
186,807.2919372507573
187,807.3767437701533
188,807.4621504774888
189,807.5481440633213
190,807.6347099783004
191,807.7218321943965
192,807.8094929806658
193,807.8976726916344
194,807.9863495668442
195,808.0754995411306
196,808.1650960665874
197,808.2551099486219
198,808.34550919951
199,808.4362589132074
200,808.5273211651214
201,808.6186549402154
202,808.7102160920915
203,808.8019573345559
204,808.8938282660604
205,808.9857754268382
206,809.077742388736
207,809.1696698784494
208,809.261495935605
209,809.353156107424
210,809.4445836815303
211,809.5357099581153
212,809.626464562198
213,809.7167757959
214,809.8065710295018
215,809.8957771288606
216,809.9843209156836
217,810.072129656264
218,810.1591315739635
219,810.2452563811729
220,810.3304358274013
221,810.4146042610683
222,810.4976992033372
223,810.5796619330417
224,810.6604380824853
225,810.7399782442627
226,810.8182385885906
227,810.8951814884501
228,810.9707761465592
229,811.0449992149483
230,811.1178353955354
231,811.1892780085963
232,811.2593295150199
233,811.328001977527
234,811.3953174458202
235,811.4613082512863
236,811.526017198609
237,811.589497644435
238,811.6518134568754
239,811.7130388537084
240,811.7732581209499
241,811.832565216222
242,811.8910632629701
243,811.9488639427116
244,812.0060867938806
245,812.0628584276888
246,812.1193116736076
247,812.1755846693926
248,812.2318199125151
249,812.2881632906789
250,812.344763108394
251,812.4017691246461
252,812.459331614052
253,812.5176004610516
254,812.5767242941919
255,812.636849665594
256,812.6981202790531
257,812.7606762686893
258,812.8246535287531
259,812.8901830942488
260,812.9573905715514
261,813.0263956181045
262,813.0973114705288
263,813.1702445210327
264,813.2452939429214
265,813.3225513671465
266,813.4021006130313
267,813.4840174773606
268,813.5683695865191
269,813.6552163155297
270,813.7446087753965
271,813.8365898670402
272,813.9311943978198
273,814.0284492558669
274,814.1283736376877
275,814.2309793249389
276,814.3362710066882
277,814.444246643979
278,814.5548978741001
279,814.6682104521243
280,814.7841647265293
281,814.9027361442867
282,815.0238957795355
283,815.1476108792358
284,815.27384541862
285,815.4025606584568
286,815.533715695541
287,815.6672679983008
288,815.8031739212659
289,815.9413891946855
290,816.0818693876652
291,816.2245703441824
292,816.3694485914065
293,816.5164617195534
294,816.6655687326702
295,816.8167303705425
296,816.9699094029236
297,817.1250708974144
298,817.2821824611327
299,817.4412144545214
300,817.6021401741378
301,817.7649360001963
302,817.9295815040191
303,818.0960595107205
304,818.2643561136531
305,818.4344606391442
306,818.6063655621945
307,818.7800663757632
308,818.9555614179828
309,819.1328516630612
310,819.3119404824863
311,819.4928333833589
312,819.6755377305175
313,819.8600624589145
314,820.0464177824717
315,820.2346149054133
316,820.42466574199
317,820.6165826504661
318,820.8103781866062
319,821.0060648800813
320,821.2036550345426
321,821.4031605495713
322,821.60459276119
323,821.8079622974135
324,822.0132789463588
325,822.2205515360554
326,822.4297878261867
327,822.6409944118368
328,822.8541766383481
329,823.0693385255647
330,823.2864826993647
331,823.5056103283015
332,823.726721063213
333,823.9498129778802
334,824.1748825093946
335,824.4019243979142
336,824.6309316268888
337,824.8618953661768
338,825.0948049212726
339,825.3296476918765
340,825.5664091424975
341,825.8050727870948
342,826.0456201890685
343,826.288030977181
344,826.532282877395
345,826.7783517606199
346,827.0262117071263
347,827.2758350894164
348,827.5271926759433
349,827.7802537578813
350,828.0349863002657
351,828.2913571178949
352,828.5493320759366
353,828.8088763149725
354,829.0699544996055
355,829.332531088393
356,829.5965706208443
357,829.8620380149765
358,830.1288988671497
359,830.3971197451641
360,830.6666684659184
361,830.9375143498629
362,831.2096284455566
363,831.482983718485
364,831.7575551989468
365,832.0333200844871
366,832.3102577931892
367,832.5883499650673
368,832.8675804094497
369,833.1479349964916
370,833.4294014913726
371,833.7119693311139
372,833.9956293463223
373,834.2803734326653
374,834.566194178564
375,834.8530844561003
376,835.1410369818091
377,835.4300438537045
378,835.7200960714333
379,836.0111830477663
380,836.3032921207961
381,836.5964080765384
382,836.8905126913526
383,837.1855843032358
384,837.4815974207964
385,837.778522378537
386,838.0763250469873
387,838.3749666061029
388,838.6744033896944
389,838.9745868071403
390,839.2754633464467
391,839.576974660237
392,839.8790577333729
393,840.1816451272057
394,840.4846652912186
395,840.7880429293197
396,841.0916994064113
397,841.395553181049
398,841.6995202512599
399,842.0035146023672
400,842.3074486478279
401,842.611233656497
402,842.9147801618883
403,843.2179983502548
404,843.5207984244336
405,843.8230909399026
406,844.1247871092357
407,844.4257990714394
408,844.7260401234324
409,845.0254249119794
410,845.3238695856775
411,845.6212919081237
412,845.9176113352207
413,846.2127490616697
414,846.5066280439046
415,846.7991730088385
416,847.0903104594883
417,847.3799686893151
418,847.668077816602
419,847.9545698484718
420,848.2393787818008
421,848.5224407461005
422,848.80369419169
423,849.0830801247378
424,849.3605423885135
425,849.6360279877098
426,849.9094874507437
427,850.1808752239922
428,850.4501500917411
429,850.7172756159008
430,850.9822205899458
431,851.2449595016689
432,851.5054729989621
433,851.7637483522554
434,852.0197799070497
435,852.2735695201969
436,852.5251269736875
437,852.7744703593172
438,853.0216264268439
439,853.2666308875516
440,853.5095286649597
441,853.7503740849228
442,853.9892309983971
443,854.2261728312174
444,854.4612825558473
445,854.694652580095
446,854.9263845474459
447,855.1565890435398
448,855.3853852040106
449,855.6129002207578
450,855.8392687464855
451,856.0646322003548
452,856.2891379799876
453,856.5129385863285
454,856.7361906684387
455,856.9590539960823
456,857.1816903693428
457,857.4042624760415
458,857.6269327089117
459,857.8498619553086
460,858.0732083728111
461,858.2971261646614
462,858.521764369984
463,858.7472656852636
464,858.9737653350621
465,859.2013900107626
466,859.4302568963475
467,859.6604728002064
468,859.892133411457
469,860.1253226974468
470,860.3601124556666
471,860.5965620290182
472,860.8347181891041
473,861.0746151881002
474,861.3162749754766
475,861.5597075713094
476,861.8049115836154
477,862.051874853615
478,862.3005752105308
479,862.550981316788
480,862.8030535852181
481,863.056745151428
482,863.3120028859846
483,863.5687684319503
484,863.8269792535302
485,864.086569681553
486,864.3474719419372
487,864.6096171547304
488,864.8729362933009
489,865.1373610948827
490,865.4028249143141
491,865.6692635127316
492,865.936615772963
493,866.2048243339641
494,866.4738361378968
495,866.7436028850007
496,867.0140813926175
497,867.2852338550897
498,867.5570280010545
499,867.8294371448299
500,868.1024401296503
501,868.3760211621642
502,868.6501695392456
503,868.9248792696126
504,869.2001485941406
505,869.4759794101439
506,869.7523766059875
507,870.0293473128479
508,870.3069000803375
509,870.5850439826468
510,870.8637876624626
511,871.1431383213884
512,871.4231006677312
513,871.7036758350861
514,871.9848602878077
515,872.2666447318494
516,872.5490130512229
517,872.8319412911179
518,873.115396708121
519,873.3993369057748
520,873.6837090703084
521,873.9684493175673
522,874.2534821587215
523,874.538720089674
524,874.8240633071889
525,875.1093995531029
526,875.3946040860011
527,875.6795397774384
528,875.9640573278035
529,876.2479955957103
530,876.5311820343476
531,876.8134332281464
532,877.094555522931
533,877.374345742258
534,877.6525919823926
535,877.9290744787079
536,878.2035665368894
537,878.4758355223826
538,878.7456439005952
539,879.0127503187731
540,879.2769107189561
541,879.5378794706711
542,879.7954105123792
543,880.0492584918696
544,880.2991798969393
545,880.544934168
546,880.7862847837
547,881.0230003098176
548,881.254855401364
549,881.481631748657
550,881.7031189600726
551,881.9191153763096
552,882.1294288123836
553,882.3338772243258
554,882.532289298448
555,882.7245049623305
556,882.9103758180836
557,883.0897654993939
558,883.2625499539938
559,883.4286176526385
560,883.5878697249564
561,883.7402200218042
562,883.8855951029576
563,884.0239341485949
564,884.1551887938228
565,884.2793228873571
566,884.3963121773977
567,884.5061439288643
568,884.6088164765821
569,884.7043387193145
570,884.7927295599656
571,884.874017297542
572,884.9482389764863
573,885.0154396992136
574,885.0756719084853
575,885.1289946473194
576,885.1754728047046
577,885.215176355041
578,885.2481795982948
579,885.2745604069955
580,885.2943994856853
581,885.3077796481418
582,885.3147851176616
583,885.3155008560185
584,885.3100119271552
585,885.2984029015495
586,885.2807573061375
587,885.2571571231284
588,885.2276823398641
589,885.1924105513214
590,885.1514166165421
591,885.1047723698161
592,885.0525463868917
593,884.9948038060706
594,884.9316062036008
595,884.8630115219588
596,884.7890740485384
597,884.7098444415059
598,884.6253697994865
599,884.5356937717243
600,884.4408567047868
601,884.3408958209604
602,884.2358454229021
603,884.1257371192136
604,884.0106000662964
605,883.8904612230774
606,883.7653456167666
607,883.635276619378
608,883.500276235909
609,883.3603654055878
610,883.2155643173377
611,883.0658927397102
612,882.9113703640915
613,882.7520171580211
614,882.587853723396
615,882.4189016531489
616,882.2451838803548
617,882.0667250150832
618,881.8835516654411
619,881.6956927396202
620,881.503179725753
621,881.3060469465917
622,881.1043317865582
623,880.8980748894737
624,880.6873203261434
625,880.4721157318723
626,880.2525124149071
627,880.0285654377134
628,879.8003336737511
629,879.5678798429345
630,879.3312705295531
631,879.0905761873498
632,878.8458711371344
633,878.5972335616361
634,878.3447455002731
635,878.0884928444144
636,877.8285653324759
637,877.5650565434042
638,877.2980638857935
639,877.0276885779389
640,876.7540356124362
641,876.4772136983222
642,876.197335174386
643,875.9145158888957
644,875.6288750431968
645,875.3405349989006
646,875.0496210501898
647,874.7562611638112
648,874.460585689535
649,874.1627270435342
650,873.8628193667166
651,873.560998159738
652,873.2573998962333
653,872.9521616158866
654,872.6454204995874
655,872.3373134302325
656,872.0279765446351
657,871.7175447841666
658,871.4061514533134
659,871.0939277954859
660,870.7810025942616
661,870.4675018065615
662,870.1535482325921
663,869.8392612259318
664,869.5247564458715
665,869.210145652706
666,868.8955365446853
667,868.5810326330547
668,868.266733149806
669,867.9527329817363
670,867.6391226237336
671,867.3259881433156
672,867.0134111475076
673,866.7014687429277
674,866.3902334811236
675,866.0797732837583
676,865.7701513456532
677,865.4614260174054
678,865.1536506726978
679,864.8468735677205
680,864.5411377007342
681,864.236480678862
682,863.9329345974971
683,863.6305259361967
684,863.3292754739892
685,863.0291982264487
686,862.7303034060175
687,862.4325944054603
688,862.1360688024365
689,861.8407183819787
690,861.546529173512
691,861.2534814993363
692,860.9615500315886
693,860.6707038544807
694,860.3809065285213
695,860.0921161540182
696,859.8042854325013
697,859.5173617261808
698,859.2312871164879
699,858.9459984630452
700,858.661427464408
701,858.3775007217662
702,858.0941398064882
703,857.811261332146
704,857.5287770317545
705,857.2465938414049
706,856.964613991838
707,856.6827351093696
708,856.4008503271068
709,856.1188484071993
710,855.8366138754186
711,855.5540271704449
712,855.2709648111456
713,854.9872995853153
714,854.7029007629734
715,854.4176343370732
716,854.1313632946991
717,853.8439479220535
718,853.5552461459766
719,853.2651139131045
720,852.9734056054741
721,852.6799744892764
722,852.3846731920993
723,852.0873542033249
724,851.7878703918506
725,851.4860755349179
726,851.1818248521181
727,850.8749755400323
728,850.5653873049503
729,850.2529228924726
730,849.9374486127914
731,849.6188348595449
732,849.2969566193113
733,848.9716939682659
734,848.6429325519291
735,848.3105640433022
736,847.9744865744993
737,847.6346051375682
738,847.2908319514058
739,846.9430867934067
740,846.5912972966489
741,846.2353992155133
742,845.8753366638173
743,845.5110623294896
744,845.1425376689167
745,844.7697330829035
746,844.392628074943
747,844.0112113913602
748,843.6254811420384
749,843.2354448998445
750,842.8411197766934
751,842.4425324748246
752,842.0397193132599
753,841.6327262305088
754,841.221608764199
755,840.806432006447
756,840.3872705315634
757,839.9642082913772
758,839.5373384735033
759,839.1067633186815
760,838.672593894061
761,838.2349498198299
762,837.793958947302
763,837.3497569876604
764,836.9024870916371
765,836.4522993809213
766,835.9993504318182
767,835.5438027108087
768,835.0858239606126
769,834.6255865347815
770,834.163266679235
771,833.6990437603924
772,833.2330994411504
773,832.7656168078663
774,832.2967794540396
775,831.826770529424
776,831.3557717661768
777,830.8839624955237
778,830.4115186690054
779,829.9386118979869
780,829.4654085244216
781,828.9920687352278
782,828.5187457319048
783,828.045584965845
784,827.5727234482795
785,827.1002891424902
786,826.6284004450368
787,826.1571657617624
788,825.6866831826355
789,825.2170402570963
790,824.7483138690537
791,824.2805702083824
792,823.8138648336835
793,823.3482428194425
794,822.883738980049
795,822.4203781635089
796,821.9581756083332
797,821.4971373573361
798,821.0372607219225
799,820.5785347902917
800,820.12094097305
801,819.6644535801815
802,819.2090404242466
803,818.7546634460987
804,818.3012793612123
805,817.8488403264039
806,817.3972946272967
807,816.9465873856477
808,816.4966612830713
809,816.0474572951127
810,815.5989154281021
811,815.1509754508838
812,814.7035776139942
813,814.2566633496895
814,813.8101759469104
815,813.3640611954313
816,812.9182679932982
817,812.4727489118461
818,812.0274607134695
819,811.5823648185492
820,811.1374277188943
821,810.6926213352929
822,810.24792331634
823,809.8033172749256
824,809.3587929581797
825,808.9143463469082
826,808.4699796817378
827,808.0257014149496
828,807.5815260889615
829,807.1374741444373
830,806.693571662921
831,806.249850050526
832,805.8063456705328
833,805.3630994338575
834,804.9201563574169
835,804.4775651010858
836,804.0353774935044
837,803.5936480552338
838,803.1524335255704
839,802.7117923977692
840,802.2717844665362
841,801.8324703906887
842,801.3939112723829
843,800.9561682525697
844,800.5193021212726
845,800.0833729415544
846,799.6484396874627
847,799.2145598979648
848,798.7817893502086
849,798.3501817559899
850,797.919788485043
851,797.4906583179517
852,797.0628372305584
853,796.636368211054
854,796.211291110572
855,795.7876425280896
856,795.3654557305197
857,794.94476060864
858,794.5255836686503
859,794.1079480578692
860,793.6918736217882
861,793.2773769886356
862,792.8644716768318
863,792.4531682203159
864,792.0434743068148
865,791.6353949247163
866,791.2289325150258
867,790.824087125512
868,790.4208565643096
869,790.0192365500474
870,789.6192208553779
871,789.2208014409846
872,788.8239685779018
873,788.4287109572447
874,788.0350157878934
875,787.6428688840263
876,787.2522547454626
877,786.8631566343968
878,786.4755566523436
879,786.0894358210709
880,785.7047741707499
881,785.3215508372541
882,784.9397441689952
883,784.5593318428816
884,784.180290989326
885,783.8025983272963
886,783.4262303114468
887,783.0511632937689
888,782.6773737017772
889,782.3048382342948
890,781.9335340751113
891,781.563439124506
892,781.1945322487783
893,780.8267935480668
894,780.4602046422641
895,780.094748973601
896,779.7304121228755
897,779.3671821347067
898,779.0050498455331
899,778.644009206425
900,778.2840575916975
901,777.9251960844413
902,777.5674297316034
903,777.2107677637496
904,776.8552237771954
905,776.5008158777773
906,776.1475667856006
907,775.7955038991388
908,775.4446593159697
909,775.0950698066479
910,774.7467767376205
911,774.3998259387105
912,774.0542675106882
913,773.7101555688336
914,773.3675479190734
915,773.0265056644325
916,772.6870927414816
917,772.3493753891235
