frame_number,force
0,701.4544020847266
1,701.4588366169078
2,701.4626237274282
3,701.4657124184808
4,701.4680529601303
5,701.46959738261
6,701.4702999542628
7,701.4701176402798
8,701.4690105371207
9,701.4669422770475
10,701.4638803966321
11,701.4597966627856
12,701.4546673504445
13,701.4484734677673
14,701.4412009270252
15,701.4328406615439
16,701.4233886905876
17,701.4128461348806
18,701.4012191854692
19,701.3885190279184
20,701.3747617229242
21,701.3599680441124
22,701.3441632746516
23,701.3273769663057
24,701.3096426669609
25,701.2909976241816
26,701.2714824720265
27,701.251140906613
28,701.2300193542577
29,701.2081666357014
30,701.1856336310942
31,701.1624729521117
32,701.1387386283601
33,701.1144858141146
34,701.089770518756
35,701.0646493613402
36,701.0391793476265
37,701.013417666754
38,700.9874215041647
39,700.9612478669504
40,700.9349534172914
41,700.9085943088287
42,700.8822260197419
43,700.8559031755982
44,700.8296793554999
45,700.8036068766245
46,700.7777365539614
47,700.7521174331964
48,700.7267964956998
49,700.7018183363219
50,700.6772248173726
51,700.6530547052762
52,700.6293432994125
53,700.6061220650912
54,700.5834182838232
55,700.56125473358
56,700.5396494099567
57,700.518615297228
58,700.498160196978
59,700.4782866209684
60,700.4589917534621
61,700.4402674862746
62,700.4221005277336
63,700.4044725847156
64,700.3873606154348
65,700.3707371500647
66,700.3545706761455
67,700.3388260849184
68,700.3234651726998
69,700.3084471889491
70,700.293729420992
71,700.2792678048389
72,700.2650175516648
73,700.2509337796296
74,700.236972140465
75,700.2230894296192
76,700.2092441681752
77,700.1953971449891
78,700.1815119088618
79,700.1675552024919
80,700.1534973316863
81,700.1393124647307
82,700.124978858405
83,700.1104790092351
84,700.0957997312252
85,700.0809321641163
86,700.0658717183677
87,700.0506179637628
88,700.035174467845
89,700.0195485892725
90,700.0037512305579
91,699.9877965545296
92,699.9717016687929
93,699.9554862822371
94,699.939172337259
95,699.9227836209669
96,699.9063453584273
97,699.8898837913194
98,699.8734257464829
99,699.8569982007913
100,699.840627850974
101,699.8243406986048
102,699.8081616610045
103,699.7921142182732
104,699.7762201053963
105,699.7604990568858
106,699.7449686100946
107,699.7296439719515
108,699.7145379519374
109,699.6996609616284
110,699.6850210787464
111,699.6706241721241
112,699.6564740835098
113,699.6425728622094
114,699.6289210486574
115,699.6155180029175
116,699.6023622738096
117,699.5894520036715
118,699.5767853623332
119,699.5643610016045
120,699.5521785188176
121,699.5402389154175
122,699.5285450348947
123,699.5171019640554
124,699.5059173829983
125,699.4950018520492
126,699.484369027635
127,699.4740358027229
128,699.4640223702387
129,699.4543522096916
130,699.4450519985495
131,699.4361514512965
132,699.4276830906377
133,699.4196819565731
134,699.4121852596945
135,699.4052319852857
136,699.398862455228
137,699.393117855874
138,699.3880397419747
139,699.3836695287093
140,699.3800479845002
141,699.3772147357145
142,699.3752077909498
143,699.3740630885193
144,699.3738140670547
145,699.3744912566376
146,699.3761218871953
147,699.3787295123143
148,699.3823336494619
149,699.3869494403808
150,699.3925873368731
151,699.3992528174799
152,699.4069461408262
153,699.4156621421084
154,699.4253900797097
155,699.4361135383833
156,699.4478103935887
157,699.4604528389194
158,699.474007476196
159,699.4884354664473
160,699.503692739475
161,699.5197302593086
162,699.5364943422531
163,699.5539270234655
164,699.5719664673996
165,699.5905474173702
166,699.609601679754
167,699.6290586383518
168,699.6488457938345
169,699.6688893224408
170,699.6891146478546
171,699.7094470206708
172,699.7298121006972
173,699.7501365380659
174,699.7703485496564
175,699.7903784877664
176,699.8101593982502
177,699.8296275652468
178,699.8487230389294
179,699.8673901412275
180,699.8855779423392
181,699.9032406989055
182,699.9203382438346
183,699.9368363180055
184,699.9527068350029
185,699.9679280714423
186,699.9824847773309
187,699.996368203178
188,700.0095760429645
189,700.0221122944606
190,700.0339870406589
191,700.0452161581761
192,700.0558209602426
193,700.0658277830717
194,700.0752675246155
195,700.0841751437218
196,700.0925891260002
197,700.1005509214621
198,700.1081043590303
199,700.1152950437976
200,700.1221697433389
201,700.1287757693302
202,700.1351603609885
203,700.1413700777296
204,700.147450209291
205,700.1534442117486
206,700.1593931771308
207,700.1653353428742
208,700.1713056458644
209,700.1773353252379
210,700.1834515786504
211,700.1896772775435
212,700.1960307469951
213,700.2025256145373
214,700.2091707301454
215,700.2159701572573
216,700.2229232328843
217,700.2300246937401
218,700.2372648644249
219,700.2446299025529
220,700.2521020940618
221,700.2596601898775
222,700.2672797729213
223,700.2749336427704
224,700.282592205174
225,700.2902238558465
226,700.2977953519797
227,700.3052721689813
228,700.3126188427879
229,700.3197992997797
230,700.3267771775779
231,700.3335161410618
232,700.3399801984921
233,700.346134022396
234,700.3519432789324
235,700.3573749681593
236,700.3623977762833
237,700.3669824395741
238,700.3711021180399
239,700.3747327755324
240,700.3778535623424
241,700.380447196489
242,700.382500340075
243,700.3840039668357
244,700.384953716632
245,700.3853502325364
246,700.3851994764925
247,700.3845130200626
248,700.3833083068674
249,700.3816088825239
250,700.3794445866049
251,700.3768517002538
252,700.3738730430366
253,700.3705580132115
254,700.3669625666222
255,700.363149130903
256,700.3591864534343
257,700.355149382883
258,700.3511185847282
259,700.3471801911079
260,700.3434253853546
261,700.3399499223161
262,700.3368535870886
263,700.334239596576
264,700.3322139496772
265,700.330884732883
266,700.3303613891806
267,700.3307539594189
268,700.3321723058425
269,700.3347253267768
270,700.3385201696916
271,700.3436614476755
272,700.3502504624639
273,700.3583844364566
274,700.3681557570096
275,700.3796512380728
276,700.3929514058492
277,700.4081298158942
278,700.4252524090606
279,700.4443769134228
280,700.4655522989968
281,700.4888182916519
282,700.5142049521617
283,700.5417323258943
284,700.5714101679073
285,700.6032377470486
286,700.6372037315622
287,700.6732861582146
288,700.711452486956
289,700.7516597429208
290,700.7938547466495
291,700.8379744316414
292,700.8839462459541
293,700.9316886320581
294,700.981111577156
295,701.0321172248733
296,701.0846005382305
297,701.1384500026364
298,701.1935483565848
299,701.2497733375359
300,701.3069984313227
301,701.3650936146389
302,701.4239260813472
303,701.4833609448906
304,701.543261911499
305,701.6034919217341
306,701.6639137600889
307,701.7243906329147
308,701.7847867139463
309,701.8449676551334
310,701.9048010594972
311,701.9641569128543
312,702.0229079722651
313,702.0809301105037
314,702.1381026172812
315,702.1943084591378
316,702.2494345009154
317,702.3033716929355
318,702.3560152293123
319,702.4072646833376
320,702.457024125037
321,702.5052022246028
322,702.5517123447319
323,702.5964726253736
324,702.6394060653711
325,702.6804406060155
326,702.7195092211764
327,702.7565500174685
328,702.7915063460479
329,702.82432692526
330,702.8549659711314
331,702.8833833315086
332,702.9095446198875
333,702.9334213460041
334,702.9549910410548
335,702.9742373752248
336,702.9911502641012
337,703.0057259591046
338,703.017967116065
339,703.0278828360869
340,703.0354886740838
341,703.0408066122892
342,703.0438649976844
343,703.0446984431143
344,703.0433476922323
345,703.0398594490565
346,703.0342861739641
347,703.0266858489485
348,703.0171217155421
349,703.0056619890297
350,702.9923795525882
351,702.9773516346451
352,702.9606594718377
353,702.9423879585012
354,702.9226252820739
355,702.9014625427985
356,702.87899335591
357,702.8553134350634
358,702.8305201566704
359,702.8047121056768
360,702.7779886038163
361,702.7504492213897
362,702.7221932731928
363,702.693319298861
364,702.663924528305
365,702.6341043343173
366,702.6039516763387
367,702.5735565412994
368,702.5430053890599
369,702.5123806107978
370,702.4817600080535
371,702.4512162980864
372,702.4208166486632
373,702.3906222437158
374,702.3606878812524
375,702.3310616063324
376,702.3017843838966
377,702.272889817696
378,702.2444039220959
379,702.2163449535241
380,702.1887233083162
381,702.1615414936518
382,702.134794177552
383,702.1084683221447
384,702.0825434020142
385,702.0569917072714
386,702.0317787294372
387,702.0068636270602
388,701.9821997668611
389,701.9577353349727
390,701.9334140115105
391,701.9091756999078
392,701.884957299873
393,701.86069351001
394,701.8363176441941
395,701.8117624454388
396,701.7869608821952
397,701.7618469144228
398,701.7363562196782
399,701.7104268718329
400,701.6839999662277
401,701.6570201855793
402,701.6294363018927
403,701.601201611417
404,701.572274301669
405,701.5426177512044
406,701.5122007642841
407,701.4809977440628
408,701.4489888089769
409,701.4161598570236
410,701.3825025813596
411,701.348014438644
412,701.3126985698622
413,701.2765636727772
414,701.2396238256551
415,701.2018982630425
416,701.1634111055829
417,701.1241910466722
418,701.084270999214
419,701.0436877064734
420,701.0024813223004
421,700.9606949671908
422,700.9183742672292
423,700.8755668832298
424,700.832322037819
425,700.7886900485448
426,700.7447218747615
427,700.7004686848277
428,700.6559814484583
429,700.6113105575733
430,700.5665054782388
431,700.5216144363158
432,700.4766841396403
433,700.4317595392063
434,700.3868836305425
435,700.3420972944319
436,700.2974391738777
437,700.2529455823822
438,700.2086504376015
439,700.1645852144235
440,700.1207789124302
441,700.0772580341087
442,700.0340465712761
443,699.991165997439
444,699.9486352633235
445,699.9064707920359
446,699.8646864697332
447,699.8232936279325
448,699.7823010151494
449,699.7417147580993
450,699.7015383151413
451,699.661772426122
452,699.6224150631407
453,699.5834613863759
454,699.5449037083428
455,699.5067314692291
456,699.4689312257996
457,699.4314866570901
458,699.3943785915988
459,699.357585062176
460,699.3210813952977
461,699.2848403404241
462,699.2488322431446
463,699.2130252635901
464,699.1773856397834
465,699.1418779944391
466,699.1064656829041
467,699.0711111789454
468,699.035776493982
469,699.0004236245993
470,698.9650150228266
471,698.9295140830867
472,698.8938856386161
473,698.8580964588022
474,698.8221157377202
475,698.7859155635012
476,698.7494713584263
477,698.7127622811404
478,698.6757715848306
479,698.6384869278949
480,698.6009006359391
481,698.5630099156072
482,698.5248170216713
483,698.4863293789506
484,698.4475596601823
485,698.4085258203329
486,698.3692510873225
487,698.3297639089604
488,698.2900978561936
489,698.250291483257
490,698.2103881454489
491,698.1704357750843
492,698.1304866166297
493,698.0905969235295
494,698.050826620984
495,698.0112389395994
496,697.9719000238636
497,697.9328785173485
498,697.8942451247235
499,697.8560721503196
500,697.8184330142709
501,697.7814017492725
502,697.7450524827249
503,697.7094589101398
504,697.6746937663221
505,697.6408283010607
506,697.6079317657616
507,697.5760709168168
508,697.5453095411328
509,697.5157080095903
510,697.4873228648688
511,697.4602064500463
512,697.4344065831298
513,697.4099662807832
514,697.3869235329599
515,697.3653111293366
516,697.3451565382729
517,697.3264818394204
518,697.309303711975
519,697.2936334813122
520,697.279477226573
521,697.2668359504235
522,697.255705810116
523,697.2460784065357
524,697.2379411251903
525,697.2312775204709
526,697.226067732896
527,697.2222889290837
528,697.2199157556669
529,697.2189208005259
530,697.2192750567065
531,697.2209483855587
532,697.2239099757892
533,697.2281287945265
534,697.2335740255427
535,697.2402154888646
536,697.2480240355072
537,697.2569719110742
538,697.2670330824106
539,697.2781835222712
540,697.2904014477228
541,697.3036675083143
542,697.3179649200048
543,697.3332795410062
544,697.349599886359
545,697.3669170791733
546,697.3852247378824
547,697.4045188003446
548,697.4247972869933
549,697.4460600067373
550,697.4683082115365
551,697.4915442084791
552,697.5157709405364
553,697.5409915479131
554,697.5672089214364
555,697.5944252588192
556,697.6226416341839
557,697.651857590628
558,697.6820707647973
559,697.7132765513793
560,697.7454678139101
561,697.778634646344
562,697.812764187962
563,697.8478404928273
564,697.8838444540391
565,697.9207537820259
566,697.9585430347995
567,697.9971836967286
568,698.036644301509
569,698.0768905947053
570,698.1178857312124
571,698.1595905029087
572,698.2019635916347
573,698.2449618427137
574,698.2885405549976
575,698.3326537849948
576,698.3772546643961
577,698.4222957310513
578,698.4677292723856
579,698.5135076778771
580,698.5595837949473
581,698.60591128148
582,698.6524449484667
583,698.6991410876583
584,698.7459577807533
585,698.7928551875474
586,698.8397958103528
587,698.8867447316072
588,698.9336698216126
589,698.9805419138036
590,699.0273349454768
591,699.0740260623072
592,699.1205956853584
593,699.1670275399473
594,699.2133086466253
595,699.2594292753267
596,699.3053828642389
597,699.3511659053959
598,699.396777799754
599,699.4422206854748
600,699.4874992438944
601,699.5326204877553
602,699.5775935355249
603,699.6224293741864
604,699.6671406112033
605,699.7117412149718
606,699.7562462425749
607,699.800671554529
608,699.8450335182714
609,699.8893487042768
610,699.9336335796246
611,699.9779042033372
612,700.0221759268447
613,700.0664631025442
614,700.110778803893
615,700.1551345616066
616,700.1995401218649
617,700.2440032332438
618,700.2885294687583
619,700.3331220880708
620,700.3777819432114
621,700.4225074296359
622,700.4672944832342
623,700.5121366226243
624,700.5570250343233
625,700.6019486964625
626,700.646894535434
627,700.6918476097142
628,700.7367913156481
629,700.781707610305
630,700.8265772462315
631,700.8713800122189
632,700.916094973524
633,700.9607007049043
634,701.0051755105582
635,701.0494976262246
636,701.0936453998195
637,701.1375974480046
638,701.1813327871624
639,701.2248309383034
640,701.2680720061218
641,701.3110367325422
642,701.3537065249552
643,701.3960634593506
644,701.4380902586363
645,701.4797702462503
646,701.5210872749259
647,701.5620256308096
648,701.6025699144508
649,701.6427049021872
650,701.6824153931791
651,701.7216860479587
652,701.7605012239609
653,701.7988448126588
654,701.8367000817167
655,701.874049523938
656,701.9108747134136
657,701.9471561689484
658,701.9828732251794
659,702.0180039117693
660,702.0525248403007
661,702.0864110976239
662,702.119636144145
663,702.1521717162002
664,702.1839877330248
665,702.2150522104778
666,702.2453311849824
667,702.2747886515383
668,702.3033865191387
669,702.3310845861595
670,702.3578405380135
671,702.3836099699456
672,702.4083464391142
673,702.4320015514086
674,702.4545250888959
675,702.475865182951
676,702.4959685364115
677,702.5147806963251
678,702.5322463772474
679,702.5483098332315
680,702.5629152745174
681,702.5760073229213
682,702.5875314983666
683,702.5974347278899
684,702.605665868057
685,702.6121762321064
686,702.6169201137499
687,702.6198552998441
688,702.6209435641763
689,702.6201511346602
690,702.6174491263815
691,702.6128139334088
692,702.6062275735694
693,702.5976779824882
694,702.5871592553834
695,702.5746718366985
696,702.5602226584951
697,702.5438252289345
698,702.5254996724182
699,702.505272723212
700,702.4831776746722
701,702.4592542864746
702,702.4335486522147
703,702.4061130292166
704,702.3770056316505
705,702.346290387853
706,702.3140366635531
707,702.2803189541812
708,702.2452165504883
709,702.2088131814353
710,702.1711966368895
711,702.1324583712131
712,702.0926930882584
713,702.0519983086409
714,702.0104739208131
715,701.9682217177491
716,701.9253449210448
717,701.8819476946942
718,701.8381346520647
719,701.794010360911
720,701.749678851763
721,701.7052431347265
722,701.6608047290581
723,701.6164632087825
724,701.572315765997
725,701.528456792009
726,701.4849774761541
727,701.4419654233236
728,701.3995042931924
729,701.3576734659305
730,701.3165477402329
731,701.2761970695911
732,701.2366863419736
733,701.1980752069546
734,701.1604179532955
735,701.1237634389213
736,701.0881550737859
737,701.0536308542269
738,701.0202234452864
739,700.987960305262
740,700.9568638449597
741,700.9269516136119
742,700.8982365046328
743,700.8707269764973
744,700.8444272854213
745,700.8193377260549
746,700.7954548742595
747,700.7727718235273
748,700.7512784055151
749,700.7309613866743
750,700.7118046365858
751,700.6937892675459
752,700.6768937476205
753,700.6610939905037
754,700.6463634256738
755,700.6326730523714
756,700.6199914813257
757,700.6082849689062
758,700.5975174490435
759,700.5876505687365
760,700.5786437336614
761,700.5704541715512
762,700.5630370221022
763,700.5563454623501
764,700.5503308756274
765,700.5449430706688
766,700.5401305550429
767,700.5358408633795
768,700.5320209360958
769,700.5286175397307
770,700.5255777167175
771,700.5228492508729
772,700.5203811349
773,700.5181240274113
774,700.5160306887623
775,700.5140563867601
776,700.5121592648861
777,700.5103006672955
778,700.5084454168523
779,700.5065620448003
780,700.5046229727913
781,700.5026046492098
782,700.5004876419639
783,700.498256689714
784,700.4959007135463
785,700.4934127916705
786,700.490790100651
787,700.4880338272495
788,700.4851490546175
789,700.482144625671
790,700.4790329859063
791,700.4758300080462
792,700.4725548013787
793,700.4692295091502
794,700.4658790979067
795,700.4625311428667
796,700.4592156125036
797,700.455964653612
798,700.4528123763906
799,700.4497946382382
800,700.446948824503
801,700.4443136236094
802,700.4419287929161
803,700.4398349110178
804,700.4380731124575
805,700.4366848017407
806,700.4357113445212
807,700.4351937345042
808,700.4351722353621
809,700.435685998189
810,700.4367726564873
811,700.4384679017766
812,700.4408050437764
813,700.4438145606936
814,700.4475236479727
815,700.4519557769902
816,700.4571302769231
817,700.4630619525748
818,700.4697607486506
819,700.4772314678182
820,700.4854735467703
821,700.4944808919903
822,700.5042417751649
823,700.5147387871945
824,700.5259488494447
825,700.5378432810049
826,700.5503879210228
827,700.5635433056046
828,700.5772648988907
829,700.5915033770204
830,700.6062049617306
831,700.6213117982609
832,700.6367623711286
833,700.6524919513466
834,700.6684330693935
835,700.6845160091931
836,700.7006693189905
837,700.7168203348647
838,700.7328957117334
839,700.7488219556272
840,700.7645259502843
841,700.7799354707373
842,700.7949796760978
843,700.8095895730646
844,700.8236984414941
845,700.8372422145429
846,700.8501598083433
847,700.8623933989098
848,700.8738886462886
849,700.884594867979
850,700.8944651656617
851,700.9034565110394
852,700.9115297976941
853,700.9186498659784
854,700.9247855069634
855,700.9299094495615
856,700.9339983328362
857,700.9370326639746
858,700.9389967615248
859,700.9398786829383
860,700.9396701352237
861,700.9383663680202
862,700.9359660496743
863,700.9324711282582
864,700.9278866803146
865,700.9222207503918
866,700.9154841843779
867,700.9076904593234
868,700.8988555118331
869,700.8889975664016
870,700.8781369647493
871,700.8662959977253
872,700.8534987426484
873,700.8397709104612
874,700.8251397081523
875,700.8096337221433
876,700.7932828274986
877,700.7761181259683
878,700.758171913586
879,700.7394776764405
880,700.72007011157
881,700.6999851686824
882,700.6792601075796
883,700.657933565661
884,700.636045629534
885,700.6136379046511
886,700.5907535773815
887,700.5674374651035
888,700.543736051332
889,700.5196975040006
890,700.4953716756896
891,700.4708100851173
892,700.4460658797802
893,700.4211937802494
894,700.3962500073286
895,700.3712921939223
896,700.3463792835339
897,700.3215714164533
898,700.29692980305
899,700.2725165816848
900,700.2483946570297
901,700.2246275133776
902,700.2012789970537
903,700.1784130625945
904,700.1560934792158
905,700.1343834971109
906,700.113345476784
907,700.0930404884587
908,700.0735278922349
909,700.0548649123963
910,700.037106220258
911,700.0203035389248
912,700.004505280682
913,699.9897562243527
914,699.9760972369295
915,699.9635650416856
916,699.9521920332952
917,699.9420061385738
