frame_number,force
0,701.4544020875703
1,701.4588366197555
2,701.4626237302797
3,701.4657124213367
4,701.4680529629918
5,701.4695973854792
6,701.4702999571422
7,701.4701176431714
8,701.4690105400267
9,701.4669422799708
10,701.4638803995754
11,701.4597966657514
12,701.4546673534354
13,701.4484734707855
14,701.4412009300728
15,701.4328406646223
16,701.4233886936979
17,701.4128461380236
18,701.4012191886452
19,701.3885190311271
20,701.3747617261647
21,701.359968047384
22,701.344163277954
23,701.3273769696389
24,701.3096426703255
25,701.2909976275786
26,701.2714824754576
27,701.2511409100806
28,701.2300193577644
29,701.20816663925
30,701.1856336346871
31,701.1624729557512
32,701.1387386320479
33,701.114485817851
34,701.0897705225406
35,701.0646493651714
36,701.0391793515022
37,701.0134176706719
38,700.9874215081221
39,700.9612478709442
40,700.9349534213178
41,700.9085943128836
42,700.8822260238207
43,700.8559031796963
44,700.8296793596121
45,700.8036068807451
46,700.7777365580843
47,700.7521174373154
48,700.7267964998086
49,700.701818340415
50,700.677224821445
51,700.6530547093236
52,700.6293433034313
53,700.6061220690783
54,700.5834182877761
55,700.5612547374958
56,700.5396494138326
57,700.518615301061
58,700.4981602007651
59,700.4782866247072
60,700.4589917571502
61,700.4402674899102
62,700.4221005313151
63,700.4044725882419
64,700.3873606189057
65,700.3707371534805
66,700.3545706795068
67,700.3388260882261
68,700.3234651759551
69,700.3084471921532
70,700.293729424146
71,700.2792678079437
72,700.2650175547208
73,700.250933782637
74,700.2369721434237
75,700.2230894325284
76,700.2092441710338
77,700.1953971477952
78,700.1815119116133
79,700.1675552051864
80,700.1534973343217
81,700.1393124673057
82,700.1249788609183
83,700.1104790116857
84,700.0957997336133
85,700.0809321664423
86,700.0658717206317
87,700.0506179659658
88,700.0351744699891
89,700.0195485913606
90,700.0037512325933
91,699.9877965565158
92,699.9717016707336
93,699.9554862841366
94,699.9391723391217
95,699.9227836227973
96,699.9063453602296
97,699.8898837930979
98,699.8734257482416
99,699.8569982025346
100,699.8406278527063
101,699.8243407003314
102,699.8081616627306
103,699.7921142200049
104,699.7762201071396
105,699.7604990586462
106,699.7449686118771
107,699.7296439737606
108,699.7145379537772
109,699.6996609635022
110,699.6850210806571
111,699.670624174074
112,699.6564740855008
113,699.6425728642432
114,699.6289210507355
115,699.6155180050408
116,699.6023622759787
117,699.5894520058869
118,699.576785364595
119,699.5643610039125
120,699.5521785211711
121,699.5402389178145
122,699.5285450373322
123,699.5171019665293
124,699.5059173855037
125,699.4950018545813
126,699.4843690301889
127,699.4740358052933
128,699.4640223728205
129,699.4543522122796
130,699.4450520011383
131,699.4361514538808
132,699.427683093213
133,699.4196819591355
134,699.4121852622412
135,699.4052319878148
136,699.3988624577383
137,699.3931178583656
138,699.3880397444487
139,699.3836695311683
140,699.3800479869471
141,699.3772147381537
142,699.3752077933863
143,699.3740630909581
144,699.3738140695013
145,699.3744912590971
146,699.3761218896724
147,699.3787295148131
148,699.3823336519864
149,699.3869494429354
150,699.3925873394619
151,699.399252820107
152,699.4069461434957
153,699.4156621448244
154,699.4253900824762
155,699.4361135412041
156,699.4478103964677
157,699.4604528418602
158,699.4740074792013
159,699.488435469519
160,699.5036927426139
161,699.519730262515
162,699.5364943455268
163,699.5539270268054
164,699.5719664708048
165,699.5905474208396
166,699.6096016832864
167,699.6290586419466
168,699.648845797491
169,699.6688893261586
170,699.689114651633
171,699.709447024509
172,699.729812104594
173,699.7501365420194
174,699.7703485536642
175,699.7903784918254
176,699.8101594023568
177,699.8296275693972
178,699.8487230431202
179,699.8673901454562
180,699.8855779466039
181,699.9032407032053
182,699.9203382481686
183,699.9368363223728
184,699.9527068394025
185,699.9679280758727
186,699.9824847817899
187,699.9963682076626
188,700.0095760474711
189,700.0221122989855
190,700.0339870451979
191,700.0452161627255
192,700.055820964799
193,700.065827787632
194,700.0752675291773
195,700.0841751482834
196,700.0925891305606
197,700.1005509260206
198,700.1081043635871
199,700.1152950483535
200,700.1221697478953
201,700.1287757738891
202,700.135160365552
203,700.1413700823
204,700.1474502138713
205,700.1534442163423
206,700.1593931817421
207,700.1653353475072
208,700.1713056505232
209,700.1773353299264
210,700.1834515833723
211,700.189677282302
212,700.1960307517929
213,700.202525619376
214,700.2091707350256
215,700.2159701621788
216,700.222923237846
217,700.2300246987395
218,700.2372648694586
219,700.2446299076165
220,700.2521020991503
221,700.2596601949857
222,700.2672797780434
223,700.2749336479006
224,700.2825922103057
225,700.290223860973
226,700.2977953570942
227,700.305272174077
228,700.312618847858
229,700.3197993048174
230,700.3267771825766
231,700.3335161460153
232,700.3399802033949
233,700.3461340272436
234,700.3519432837212
235,700.3573749728866
236,700.3623977809468
237,700.3669824441723
238,700.3711021225719
239,700.3747327799983
240,700.3778535667427
241,700.380447200825
242,700.3825003443486
243,700.3840039710491
244,700.3849537207872
245,700.385350236635
246,700.385199480536
247,700.3845130240526
248,700.3833083108052
249,700.3816088864111
250,700.3794445904435
251,700.3768517040461
252,700.3738730467851
253,700.3705580169195
254,700.366962570294
255,700.3631491345437
256,700.3591864570493
257,700.3551493864777
258,700.3511185883076
259,700.347180194677
260,700.3434253889177
261,700.3399499258772
262,700.3368535906516
263,700.3342396001441
264,700.3322139532534
265,700.3308847364699
266,700.3303613927807
267,700.3307539630341
268,700.3321723094743
269,700.3347253304267
270,700.338520173361
271,700.3436614513657
272,700.3502504661766
273,700.3583844401935
274,700.3681557607725
275,700.3796512418636
276,700.3929514096693
277,700.4081298197444
278,700.4252524129408
279,700.4443769173314
280,700.4655523029311
281,700.4888182956089
282,700.5142049561384
283,700.5417323298883
284,700.5714101719163
285,700.6032377510704
286,700.6372037355941
287,700.6732861622539
288,700.7114524909997
289,700.7516597469659
290,700.7938547506932
291,700.8379744356807
292,700.8839462499855
293,700.9316886360776
294,700.981111581159
295,701.0321172288548
296,701.0846005421854
297,701.1384500065602
298,701.1935483604726
299,701.2497733413832
300,701.3069984351245
301,701.3650936183902
302,701.4239260850429
303,701.4833609485255
304,701.5432619150673
305,701.6034919252296
306,701.6639137635054
307,701.7243906362468
308,701.7847867171895
309,701.8449676582842
310,701.9048010625529
311,701.964156915813
312,702.022907975126
313,702.0809301132667
314,702.1381026199472
315,702.194308461708
316,702.249434503392
317,702.3033716953208
318,702.3560152316094
319,702.4072646855495
320,702.4570241271672
321,702.5052022266548
322,702.5517123467093
323,702.5964726272807
324,702.6394060672122
325,702.6804406077955
326,702.7195092229002
327,702.7565500191413
328,702.7915063476753
329,702.8243269268485
330,702.8549659726875
331,702.8833833330398
332,702.9095446214013
333,702.933421347509
334,702.9549910425596
335,702.9742373767391
336,702.9911502656346
337,703.0057259606673
338,703.0179671176672
339,703.0278828377384
340,703.0354886757945
341,703.0408066140686
342,703.043864999542
343,703.0446984450593
344,703.0433476942734
345,703.0398594512018
346,703.0342861762206
347,703.0266858513221
348,703.0171217180379
349,703.0056619916519
350,702.9923795553399
351,702.9773516375284
352,702.9606594748537
353,702.9423879616496
354,702.9226252853539
355,702.9014625462083
356,702.8789933594471
357,702.8553134387244
358,702.8305201604513
359,702.8047121095731
360,702.7779886078232
361,702.7504492255022
362,702.7221932774058
363,702.6933193031693
364,702.6639245327032
365,702.6341043387995
366,702.6039516808987
367,702.5735565459298
368,702.5430053937529
369,702.5123806155449
370,702.4817600128457
371,702.4512163029145
372,702.4208166535182
373,702.3906222485891
374,702.3606878861361
375,702.33106161122
376,702.3017843887827
377,702.2728898225761
378,702.2444039269661
379,702.2163449583815
380,702.1887233131586
381,702.1615414984775
382,702.1347941823594
383,702.1084683269326
384,702.0825434067809
385,702.0569917120157
386,702.0317787341573
387,702.0068636317546
388,701.9821997715285
389,701.9577353396114
390,701.9334140161184
391,701.9091757044819
392,701.8849573044106
393,701.8606935145089
394,701.8363176486522
395,701.8117624498545
396,701.786960886567
397,701.7618469187496
398,701.7363562239592
399,701.7104268760676
400,701.6839999704164
401,701.6570201897231
402,701.6294363059933
403,701.6012016154765
404,701.57227430569
405,701.5426177551893
406,701.5122007682357
407,701.4809977479841
408,701.4489888128709
409,701.4161598608937
410,701.3825025852101
411,701.3480144424796
412,701.3126985736882
413,701.2765636765992
414,701.2396238294784
415,701.2018982668725
416,701.1634111094245
417,701.1241910505298
418,701.084271003092
419,701.0436877103753
420,701.0024813262289
421,700.9606949711482
422,700.918374271217
423,700.8755668872498
424,700.832322041873
425,700.7886900526347
426,700.7447218788899
427,700.7004686889981
428,700.6559814526746
429,700.6113105618398
430,700.5665054825602
431,700.521614440698
432,700.4766841440901
433,700.4317595437304
434,700.3868836351476
435,700.342097299124
436,700.297439178662
437,700.2529455872634
438,700.2086504425838
439,700.1645852195104
440,700.1207789176248
441,700.0772580394132
442,700.0340465766923
443,699.9911660029677
444,699.948635268965
445,699.9064707977898
446,699.8646864755989
447,699.8232936339089
448,699.7823010212348
449,699.741714764291
450,699.7015383214358
451,699.6617724325151
452,699.6224150696285
453,699.583461392954
454,699.5449037150064
455,699.5067314759733
456,699.4689312326194
457,699.4314866639803
458,699.3943785985538
459,699.3575850691899
460,699.321081402364
461,699.2848403475361
462,699.2488322502959
463,699.2130252707744
464,699.177385646995
465,699.1418780016727
466,699.1064656901549
467,699.0711111862094
468,699.0357765012545
469,699.000423631876
470,698.9650150301023
471,698.9295140903558
472,698.8938856458727
473,698.8580964660395
474,698.8221157449304
475,698.785915570676
476,698.7494713655566
477,698.712762288217
478,698.6757715918444
479,698.6384869348364
480,698.6009006427983
481,698.563009922374
482,698.5248170283365
483,698.4863293855053
484,698.4475596666182
485,698.4085258266424
486,698.3692510934982
487,698.3297639149954
488,698.2900978620811
489,698.2502914889903
490,698.2103881510213
491,698.1704357804897
492,698.130486621862
493,698.0905969285842
494,698.050826625858
495,698.0112389442907
496,697.9719000283716
497,697.9328785216744
498,697.8942451288698
499,697.8560721542894
500,697.818433018068
501,697.7814017529012
502,697.7450524861898
503,697.7094589134463
504,697.6746937694759
505,697.6408283040684
506,697.6079317686307
507,697.5760709195556
508,697.5453095437504
509,697.5157080120957
510,697.4873228672717
511,697.4602064523567
512,697.4344065853581
513,697.4099662829403
514,697.386923535057
515,697.3653111313848
516,697.345156540283
517,697.3264818414026
518,697.3093037139387
519,697.2936334832663
520,697.2794772285259
521,697.2668359523838
522,697.2557058120917
523,697.2460784085347
524,697.2379411272203
525,697.2312775225396
526,697.2260677350109
527,697.222288931252
528,697.2199157578956
529,697.2189208028216
530,697.2192750590751
531,697.2209483880059
532,697.22390997832
533,697.2281287971457
534,697.2335740282551
535,697.2402154916747
536,697.2480240384192
537,697.2569719140918
538,697.267033085537
539,697.2781835255089
540,697.2904014510739
541,697.3036675117806
542,697.3179649235876
543,697.3332795447056
544,697.3495998901744
545,697.3669170831031
546,697.3852247419243
547,697.4045188044958
548,697.4247972912505
549,697.4460600110965
550,697.4683082159939
551,697.4915442130305
552,697.5157709451768
553,697.5409915526371
554,697.5672089262375
555,697.5944252636897
556,697.6226416391146
557,697.6518575956089
558,697.6820707698184
559,697.7132765564302
560,697.7454678189803
561,697.7786346514235
562,697.8127641930415
563,697.8478404978983
564,697.8838444590942
565,697.9207537870589
566,697.9585430398055
567,697.9971837017043
568,698.0366443064529
569,698.0768905996177
570,698.1178857360951
571,698.1595905077644
572,698.2019635964667
573,698.2449618475255
574,698.2885405597923
575,698.3326537897752
576,698.3772546691644
577,698.4222957358095
578,698.4677292771361
579,698.5135076826227
580,698.5595837996909
581,698.6059112862247
582,698.6524449532161
583,698.6991410924161
584,698.7459577855234
585,698.7928551923342
586,698.8397958151616
587,698.8867447364438
588,698.9336698264835
589,698.9805419187154
590,699.0273349504362
591,699.0740260673203
592,699.120595690431
593,699.1670275450847
594,699.2133086518321
595,699.2594292806074
596,699.305382869597
597,699.3511659108342
598,699.3967778052742
599,699.442220691077
600,699.4874992495776
601,699.5326204935177
602,699.5775935413637
603,699.6224293800973
604,699.6671406171811
605,699.7117412210105
606,699.7562462486679
607,699.8006715606692
608,699.8450335244517
609,699.8893487104899
610,699.9336335858636
611,699.9779042095954
612,700.0221759331164
613,700.0664631088245
614,700.1107788101782
615,700.1551345678942
616,700.1995401281537
617,700.244003239534
618,700.2885294750505
619,700.3331220943663
620,700.3777819495122
621,700.422507435944
622,700.4672944895519
623,700.5121366289536
624,700.5570250406658
625,700.6019487028198
626,700.6468945418064
627,700.6918476161012
628,700.7367913220479
629,700.7817076167147
630,700.8265772526473
631,700.8713800186363
632,700.9160949799377
633,700.9607007113088
634,701.0051755169478
635,701.0494976325933
636,701.0936454061618
637,701.1375974543151
638,701.1813327934357
639,701.2248309445345
640,701.2680720123064
641,701.3110367386773
642,701.3537065310389
643,701.3960634653826
644,701.4380902646177
645,701.4797702521835
646,701.521087280814
647,701.562025636656
648,701.6025699202589
649,701.6427049079599
650,701.6824153989182
651,701.7216860536653
652,701.7605012296355
653,701.798844818301
654,701.8367000873255
655,701.8740495295117
656,701.9108747189497
657,701.9471561744439
658,701.9828732306312
659,702.0180039171737
660,702.0525248456543
661,702.0864111029232
662,702.1196361493875
663,702.1521717213836
664,702.1839877381475
665,702.215052215538
666,702.2453311899787
667,702.2747886564697
668,702.3033865240044
669,702.3310845909593
670,702.3578405427478
671,702.3836099746151
672,702.4083464437199
673,702.4320015559521
674,702.4545250933797
675,702.4758651873781
676,702.4959685407857
677,702.5147807006512
678,702.532246381531
679,702.5483098374796
680,702.5629152787373
681,702.5760073271208
682,702.5875315025537
683,702.5974347320724
684,702.6056658722426
685,702.612176236302
686,702.6169201179623
687,702.6198553040796
688,702.6209435684402
689,702.6201511389569
690,702.6174491307145
691,702.6128139377805
692,702.6062275779815
693,702.5976779869412
694,702.587159259877
695,702.5746718412317
696,702.5602226630663
697,702.5438252335406
698,702.5254996770554
699,702.5052727278761
700,702.4831776793582
701,702.4592542911763
702,702.4335486569257
703,702.4061130339304
704,702.3770056363609
705,702.3462903925546
706,702.3140366682412
707,702.2803189588516
708,702.2452165551375
709,702.2088131860608
710,702.1711966414891
711,702.1324583757854
712,702.0926930928018
713,702.0519983131538
714,702.010473925294
715,701.9682217221964
716,701.9253449254572
717,701.8819476990707
718,701.8381346564043
719,701.7940103652132
720,701.7496788560269
721,701.7052431389509
722,701.6608047332418
723,701.6164632129247
724,701.5723157700974
725,701.5284567960671
726,701.4849774801695
727,701.4419654272964
728,701.3995042971228
729,701.3576734698191
730,701.3165477440812
731,701.2761970734014
732,701.2366863457479
733,701.1980752106953
734,701.160417957005
735,701.1237634426026
736,701.0881550774413
737,701.0536308578593
738,701.0202234488979
739,700.987960308854
740,700.9568638485329
741,700.9269516171669
742,700.8982365081694
743,700.8707269800151
744,700.8444272889203
745,700.819337729535
746,700.7954548777207
747,700.772771826969
748,700.751278408937
749,700.7309613900759
750,700.7118046399668
751,700.6937892709057
752,700.6768937509588
753,700.6610939938207
754,700.6463634289705
755,700.6326730556489
756,700.6199914845855
757,700.6082849721507
758,700.5975174522753
759,700.5876505719584
760,700.5786437368765
761,700.5704541747635
762,700.5630370253161
763,700.5563454655702
764,700.5503308788582
765,700.5449430739145
766,700.540130558308
767,700.5358408666683
768,700.5320209394123
769,700.5286175430782
770,700.5255777200987
771,700.5228492542896
772,700.5203811383531
773,700.5181240309012
774,700.5160306922886
775,700.5140563903217
776,700.5121592684814
777,700.5103006709219
778,700.5084454205069
779,700.5065620484801
780,700.5046229764934
781,700.5026046529315
782,700.5004876457027
783,700.4982566934681
784,700.4959007173142
785,700.4934127954515
786,700.490790104445
787,700.4880338310568
788,700.4851490584388
789,700.4821446295073
790,700.4790329897594
791,700.4758300119186
792,700.4725548052733
793,700.46922951307
794,700.465879101855
795,700.4625311468463
796,700.4592156165176
797,700.4559646576631
798,700.4528123804819
799,700.4497946423722
800,700.4469488286818
801,700.4443136278345
802,700.4419287971887
803,700.439834915339
804,700.438073116828
805,700.4366848061611
806,700.4357113489915
807,700.4351937390247
808,700.4351722399331
809,700.4356860028103
810,700.4367726611583
811,700.438467906496
812,700.4408050485418
813,700.4438145655016
814,700.4475236528194
815,700.451955781871
816,700.4571302818331
817,700.4630619575089
818,700.4697607536033
819,700.4772314727842
820,700.4854735517445
821,700.4944808969674
822,700.5042417801398
823,700.5147387921623
824,700.5259488544015
825,700.537843285947
826,700.5503879259476
827,700.5635433105103
828,700.5772649037762
829,700.5915033818848
830,700.6062049665729
831,700.6213118030809
832,700.6367623759263
833,700.6524919561224
834,700.6684330741475
835,700.6845160139256
836,700.700669323702
837,700.7168203395553
838,700.7328957164035
839,700.7488219602768
840,700.7645259549131
841,700.7799354753445
842,700.7949796806822
843,700.8095895776248
844,700.8236984460284
845,700.8372422190496
846,700.8501598128207
847,700.8623934033564
848,700.8738886507018
849,700.884594872356
850,700.8944651699994
851,700.9034565153348
852,700.9115298019442
853,700.9186498701798
854,700.9247855111126
855,700.9299094536548
856,700.9339983368696
857,700.9370326679447
858,700.938996765428
859,700.9398786867717
860,700.9396701389849
861,700.9383663717075
862,700.9359660532867
863,700.9324711317954
864,700.9278866837772
865,700.9222207537805
866,700.9154841876938
867,700.907690462568
868,700.8988555150084
869,700.8889975695101
870,700.8781369677939
871,700.8662960007094
872,700.8534987455757
873,700.8397709133363
874,700.8251397109805
875,700.8096337249302
876,700.7932828302503
877,700.7761181286912
878,700.758171916287
879,700.7394776791263
880,700.7200701142469
881,700.699985171357
882,700.6792601102577
883,700.6579335683479
884,700.6360456322341
885,700.6136379073685
886,700.5907535801198
887,700.5674374678657
888,700.5437360541204
889,700.5196975068161
890,700.4953716785317
891,700.4708100879845
892,700.4460658826715
893,700.4211937831633
894,700.396250010263
895,700.3712921968744
896,700.3463792865006
897,700.3215714194308
898,700.2969298060345
899,700.2725165846725
900,700.2483946600172
901,700.2246275163623
902,700.2012790000332
903,700.1784130655666
904,700.1560934821779
905,700.1343835000604
906,700.1133454797184
907,700.0930404913755
908,700.0735278951317
909,700.0548649152709
910,700.0371062231084
911,700.0203035417497
912,700.004505283481
913,699.9897562271262
914,699.9760972396782
915,699.9635650444102
916,699.9521920359961
917,699.9420061412507
