frame_number,force
0,701.4183816483686
1,701.4542085955247
2,701.4891031052266
3,701.5223319766636
4,701.553194557138
5,701.5810381120428
6,701.6052720562328
7,701.6253809741522
8,701.6409362826026
9,701.6516062788367
10,701.6571641781335
11,701.6574936394725
12,701.6525913058348
13,701.6425660844163
14,701.6276351836239
15,701.6081171878119
16,701.5844226169545
17,701.5570424710146
18,701.5265351914094
19,701.4935122969916
20,701.458622749959
21,701.4225360055506
22,701.3859237859621
23,701.3494408899898
24,701.3137056929189
25,701.2792812039279
26,701.2466574815944
27,701.2162359280361
28,701.1883157221633
29,701.1630826063622
30,701.1406004299357
31,701.1208061288689
32,701.1035089576192
33,701.0883946316867
34,701.0750346388655
35,701.0629005358692
36,701.0513827320493
37,701.0398130936536
38,701.0274906155308
39,701.0137093421641
40,700.9977876355538
41,700.979097749941
42,700.9570944916524
43,700.931341614522
44,700.9015346495601
45,700.8675190862432
46,700.8293030617207
47,700.78706386528
48,700.7411476969032
49,700.6920623672245
50,700.640463024161
51,700.5871314641516
52,700.5329500507116
53,700.4788716468482
54,700.4258871715629
55,700.374992342374
56,700.3271549265374
57,700.2832835714324
58,700.2441991407047
59,700.2106093934888
60,700.1830876978245
61,700.1620562548056
62,700.1477740776675
63,700.1403297572189
64,700.1396389138234
65,700.1454462465645
66,700.1573321714352
67,700.1747240112894
68,700.1969114761845
69,700.2230658731494
70,700.2522622941052
71,700.2835040093944
72,700.315748360627
73,700.3479334951294
74,700.3790052597305
75,700.4079434715055
76,700.4337866741014
77,700.4556544883744
78,700.4727668258818
79,700.4844594656169
80,700.4901956802627
81,700.4895737236848
82,700.4823301290829
83,700.4683389781933
84,700.4476075892297
85,700.4202693770834
86,700.3865748419208
87,700.3468816193946
88,700.3016442866217
89,700.251404320041
90,700.1967803850852
91,700.1384590081464
92,700.0771855732719
93,700.0137554647183
94,699.9490050460882
95,699.8838020484076
96,699.8190348688643
97,699.7556003075168
98,699.6943894399527
99,699.6362716409967
100,699.5820771473398
101,699.5325788448268
102,699.4884741147397
103,699.4503675723959
104,699.4187554293048
105,699.3940120879863
106,699.3763794906408
107,699.3659596536036
108,699.362710651619
109,699.3664460643918
110,699.3768376623628
111,699.3934210059583
112,699.4156036867356
113,699.4426760736184
114,699.473824556003
115,699.5081473636621
116,699.5446730854013
117,699.5823819748412
118,699.6202299673611
119,699.6571750172609
120,699.6922049574038
121,699.7243656895622
122,699.7527882341808
123,699.7767130872254
124,699.7955104939971
125,699.8086956297003
126,699.8159381738868
127,699.817066236411
128,699.812064919194
129,699.8010699636715
130,699.784357016361
131,699.762327133658
132,699.7354892565385
133,699.7044404528839
134,699.669844697728
135,699.6324108756459
136,699.592870641602
137,699.5519568500429
138,699.5103834662467
139,699.4688280938899
140,699.4279182790401
141,699.3882224459492
142,699.3502457445647
143,699.3144304235514
144,699.2811597497623
145,699.250764100149
146,699.2235277571795
147,699.1996951801852
148,699.1794760006175
149,699.1630484661894
150,699.1505613410013
151,699.1421343805071
152,699.1378576162422
153,699.1377898787139
154,699.1419571556637
155,699.1503513941332
156,699.1629301663392
157,699.1796173118619
158,699.2003044060986
159,699.2248528019622
160,699.253096015554
161,699.2848422711805
162,699.3198770287244
163,699.3579652958034
164,699.3988535278158
165,699.4422709923858
166,699.4879305977071
167,699.5355292572632
168,699.5847478351524
169,699.6352506539516
170,699.6866845548132
171,699.7386776092683
172,699.7908377360766
173,699.8427516020716
174,699.893984268355
175,699.9440801001459
176,699.9925654794267
177,700.038953809662
178,700.0827531485477
179,700.1234765169734
180,700.1606545328164
181,700.1938496375791
182,700.2226709595201
183,700.2467887988983
184,700.2659477621917
185,700.2799776823323
186,700.288801643672
187,700.2924406668934
188,700.2910148659159
189,700.2847411423912
190,700.2739277237289
191,700.2589660654716
192,700.2403208078119
193,700.218518562097
194,700.1941362465926
195,700.167789457341
196,700.1401210262547
197,700.1117896685378
198,700.0834585818529
199,700.0557839504258
200,700.0294033559229
201,700.0049240836497
202,699.9829113631284
203,699.9638767403205
204,699.9482669456216
205,699.9364536951805
206,699.9287248071851
207,699.925276852548
208,699.9262094008644
209,699.9315209134347
210,699.9411065036888
211,699.9547580017949
212,699.972166860024
213,699.9929303393459
214,700.0165611686557
215,700.0425005908818
216,700.0701345139665
217,700.0988123861314
218,700.1278683485149
219,700.156644104248
220,700.184512744089
221,700.2109024969477
222,700.2353190750924
223,700.2573650571941
224,700.2767547607526
225,700.2933234206105
226,700.307030126809
227,700.3179546159505
228,700.326288454013
229,700.3323214100142
230,700.3364240119824
231,700.3390274372462
232,700.3406019700061
233,700.3416352189624
234,700.3426111393075
235,700.343990699868
236,700.3461948274713
237,700.3495900450405
238,700.3544769762613
239,700.3610816730414
240,700.3695496320197
241,700.3799423954237
242,700.3922366623199
243,700.4063258030799
244,700.4220236135367
245,700.4390701284137
246,700.4571393609639
247,700.4758489093676
248,700.4947713696517
249,700.5134473502294
250,700.5313996560304
251,700.5481480372458
252,700.5632238477475
253,700.5761840014773
254,700.5866237176323
255,700.5941877118297
256,700.5985796917868
257,700.5995701565346
258,700.5970025040215
259,700.5907973566124
260,700.5809549291868
261,700.5675552878861
262,700.5507564935052
263,700.5307908112679
264,700.5079592965515
265,700.4826251336707
266,700.455206199363
267,700.4261674450231
268,700.3960137128142
269,700.365283431943
270,700.3345433224326
271,700.3043838575295
272,700.2754149186217
273,700.2482609556405
274,700.2235550997884
275,700.2019319677171
276,700.1840191742062
277,700.1704277266597
278,700.1617415269153
279,700.1585062297421
280,700.1612177358571
281,700.170310620628
282,700.1861468275348
283,700.2090049924842
284,700.2390707638804
285,700.2764284205994
286,700.321054040435
287,700.3728105201916
288,700.431444871136
289,700.4965883029682
290,700.5677595823896
291,700.6443719889868
292,700.7257439225684
293,700.8111129211607
294,700.8996526215435
295,700.9904920643864
296,701.0827366489208
297,701.1754899060454
298,701.2678751237987
299,701.3590558446668
300,701.4482543875433
301,701.5347677242111
302,701.6179801955449
303,701.6973727536844
304,701.7725287381078
305,701.843136574961
306,701.9089900549925
307,701.9699868530121
308,702.0261257118567
309,702.0775023819866
310,702.1243041639339
311,702.1668028289156
312,702.205345762092
313,702.2403453097429
314,702.2722664544053
315,702.3016130500522
316,702.3289129371428
317,702.3547023863395
318,702.3795104729616
319,702.4038440225135
320,702.4281736081742
321,702.4529208444019
322,702.4784471067621
323,702.5050438829921
324,702.5329251221144
325,702.5622220511422
326,702.592980899241
327,702.6251638164687
328,702.6586530220216
329,702.6932578923618
330,702.728724398586
331,702.7647461668978
332,702.8009765207523
333,702.837041072872
334,702.8725506041964
335,702.9071139825285
336,702.9403507412088
337,702.9719027506754
338,703.0014442887822
339,703.028689843945
340,703.0533991963923
341,703.0753796341207
342,703.0944854214006
343,703.1106147652939
344,703.1237045776351
345,703.1337234161914
346,703.1406631325474
347,703.144529884753
348,703.1453352326621
349,703.1430880336384
350,703.1377878178555
351,703.1294202257882
352,703.1179549002798
353,703.1033459486599
354,703.0855347972839
355,703.0644550457497
356,703.040038841756
357,703.0122243239022
358,702.9809637618345
359,702.946232096531
360,702.9080356021668
361,702.8664203342009
362,702.8214799073959
363,702.7733620388549
364,702.7222733071978
365,702.6684817537022
366,702.6123172127624
367,702.5541695280621
368,702.4944850408895
369,702.4337618515344
370,702.3725442547873
371,702.3114164371044
372,702.2509951488138
373,702.1919208327906
374,702.1348467234573
375,702.0804257047749
376,702.0292950866302
377,701.9820597596866
378,701.9392743554318
379,701.9014251302123
380,701.868912391366
381,701.8420343818365
382,701.8209735411231
383,701.8057859026866
384,701.7963941347724
385,701.7925845119505
386,701.7940079796317
387,701.8001854052978
388,701.8105170391929
389,701.8242961157636
390,701.8407264073875
391,701.8589433382252
392,701.8780379296245
393,701.8970824590909
394,701.9151564471723
395,701.9313715493552
396,701.9448941198503
397,701.9549645741276
398,701.9609130990059
399,701.9621715833256
400,701.9582817695527
401,701.9488996340234
402,701.933796066884
403,701.9128541063112
404,701.8860631894676
405,701.8535110314285
406,701.8153738595472
407,701.7719058437934
408,701.7234286119684
409,701.6703216247611
410,701.6130138768068
411,701.5519769706689
412,701.4877192462034
413,701.4207804611713
414,701.3517265114779
415,701.281143779094
416,701.2096328182092
417,701.1378011629134
418,701.0662550694434
419,700.9955900906227
420,700.9263805606271
421,700.8591682485561
422,700.7944505352629
423,700.7326685274402
424,700.6741956169108
425,700.6193270836638
426,700.568271334011
427,700.521143229347
428,700.4779597557089
429,700.4386381135124
430,700.4029962554997
431,700.3707559702807
432,700.3415487064256
433,700.3149243413778
434,700.2903629605349
435,700.2672894501172
436,700.2450904082942
437,700.223132637069
438,700.200782356747
439,700.1774243107626
440,700.1524800903514
441,700.12542523773
442,700.0958048613953
443,700.063247532547
444,700.0274771452852
445,699.9883222854969
446,699.945722541012
447,699.899731198669
448,699.8505139883866
449,699.7983438997557
450,699.7435924487004
451,699.686717972987
452,699.6282515682424
453,699.568781196125
454,699.5089343620273
455,699.4493596386036
456,699.3907072850883
457,699.3336093322911
458,699.278659747416
459,699.2263955465478
460,699.1772798269742
461,699.1316875747384
462,699.0898948345654
463,699.0520715327098
464,699.0182780146946
465,698.9884652361476
466,698.9624784760381
467,698.9400643476404
468,698.9208807683294
469,698.9045094886169
470,698.8904707770989
471,698.8782398182085
472,698.8672642489273
473,698.8569820854483
474,698.8468391378726
475,698.8363049279161
476,698.8248861757875
477,698.8121371554347
478,698.7976665889435
479,698.7811411492894
480,698.7622859716952
481,698.7408827961514
482,698.7167664616237
483,698.6898204415531
484,698.6599719813228
485,698.627187233064
486,698.5914666318474
487,698.5528406548269
488,698.5113660722978
489,698.4671227949092
490,698.4202113584741
491,698.3707509791991
492,698.3188780989173
493,698.2647454944321
494,698.2085222176821
495,698.1503946626204
496,698.0905688339343
497,698.0292735084668
498,697.9667636398575
499,697.9033232512587
500,697.8392672169325
501,697.7749416109548
502,697.7107225431033
503,697.6470135567135
504,697.5842417549504
505,697.5228528587924
506,697.4633053661767
507,697.4060639059671
508,697.3515918568924
509,697.3003433994927
510,697.2527553266045
511,697.2092389969604
512,697.1701726943554
513,697.1358944408897
514,697.1066951582161
515,697.0828120378267
516,697.0644220528019
517,697.0516357079028
518,697.0444913636871
519,697.0429506914912
520,697.046895893693
521,697.0561292165327
522,697.0703750554054
523,697.0892846654382
524,697.1124431528854
525,697.1393780921671
526,697.1695689305807
527,697.2024564061601
528,697.2374514790195
529,697.2739436458976
530,697.3113088387577
531,697.3489172966669
532,697.3861418178907
533,697.4223666867247
534,697.4569973864269
535,697.4894710205559
536,697.5192672271836
537,697.5459192998005
538,697.5690252147177
539,697.5882582927036
540,697.6033772401133
541,697.6142352557139
542,697.62078777161
543,697.6230983069903
544,697.6213419006725
545,697.6158056464815
546,697.6068859633193
547,697.5950823555647
548,697.5809875314125
549,697.5652738876406
550,697.5486766332393
551,697.5319742039254
552,697.5159669278258
553,697.5014549732625
554,697.489216505892
555,697.4799868730446
556,697.4744395627894
557,697.4731696059637
558,697.4766799908175
559,697.4853715387804
560,697.4995365082599
561,697.5193559566512
562,697.5449006760272
563,697.5761353892328
564,697.6129258349995
565,697.6550483104157
566,697.7022011321468
567,697.7540173673567
568,697.8100781481952
569,697.8699259356616
570,697.933077189301
571,697.9990339781829
572,698.0672941306938
573,698.1373596112666
574,698.2087429997033
575,698.2809722534178
576,698.3535942565968
577,698.4261778153086
578,698.4983166216763
579,698.5696323623567
580,698.6397778021537
581,698.7084394966996
582,698.7753398200442
583,698.8402381877443
584,698.9029315831547
585,698.9632545949787
586,699.02107911144
587,699.0763137032723
588,699.1289026728847
589,699.178824754893
590,699.2260914689757
591,699.2707451164404
592,699.3128563989296
593,699.352521665346
594,699.3898598590321
595,699.4250092873436
596,699.4581243413064
597,699.4893722949217
598,699.5189303643568
599,699.5469832964037
600,699.5737218158755
601,699.5993422249678
602,699.6240472852242
603,699.6480482502704
604,699.6715676235208
605,699.694841974284
606,699.7181240511301
607,699.7416835576291
608,699.7658062742788
609,699.7907915490293
610,699.8169483383499
611,699.8445899246909
612,699.8740273157873
613,699.9055613077588
614,699.9394733107555
615,699.9760152607225
616,700.015399204148
617,700.0577873275608
618,700.1032832166734
619,700.1519249891634
620,700.2036807477032
621,700.2584466326872
622,700.316047634424
623,700.3762411925541
624,700.4387234045695
625,700.5031374264294
626,700.5690835055686
627,700.6361301151393
628,700.7038257854359
629,700.7717113162661
630,700.8393320386818
631,700.906249704605
632,700.9720534905548
633,701.036369592713
634,701.0988689997392
635,701.1592731980872
636,701.2173577180307
637,701.2729535594083
638,701.325946668917
639,701.3762757640189
640,701.4239288597721
641,701.4689388244744
642,701.5113782141902
643,701.551353581481
644,701.5889994081648
645,701.6244717253253
646,701.6579413868075
647,701.6895869571157
648,701.7195873239828
649,701.7481144033229
650,701.7753265220751
651,701.8013631123616
652,701.8263412441501
653,701.8503543535481
654,701.8734733009712
655,701.8957496089724
656,701.9172204922243
657,701.9379152215654
658,701.9578624027354
659,701.9770977372614
660,701.9956717137351
661,702.0136565442688
662,702.0311516303406
663,702.0482869591161
664,702.0652240655751
665,702.0821544788183
666,702.0992958069862
667,702.1168857151647
668,702.135174014275
669,702.1544130090725
670,702.1748462658617
671,702.1966961095394
672,702.220150420146
673,702.2453495669744
674,702.272374455785
675,702.3012366034008
676,702.3318709579986
677,702.3641319761515
678,702.397793285824
679,702.4325510464579
680,702.4680308459407
681,702.5037977190401
682,702.5393686780493
683,702.574227017935
684,702.6078376308901
685,702.6396626514786
686,702.6691768666552
687,702.6958823774776
688,702.7193220032375
689,702.7390909167951
690,702.7548460028931
691,702.7663124769662
692,702.7732874653292
693,702.7756405297404
694,702.7733114097605
695,702.7663054456729
696,702.7546872146215
697,702.7385729086711
698,702.718121952826
699,702.6935283283057
700,702.6650120408733
701,702.6328111444892
702,702.597174654484
703,702.5583565311558
704,702.5166107326746
705,702.4721872392927
706,702.4253290154074
707,702.3762700481739
708,702.3252347130268
709,702.2724386267487
710,702.2180908868701
711,702.162397334024
712,702.1055643552808
713,702.0478027783772
714,701.9893314900736
715,701.9303804455792
716,701.871192730051
717,701.8120254058439
718,701.7531490830804
719,701.6948463698197
720,701.6374094556794
721,701.5811370623704
722,701.5263309213165
723,701.4732918054628
724,701.4223149315168
725,701.3736843627663
726,701.3276660456338
727,701.2844993504647
728,701.2443873473305
729,701.2074863841664
730,701.1738957561258
731,701.1436483272304
732,701.1167029053141
733,701.0929390519843
734,701.0721549003126
735,701.054068437913
736,701.038322531515
737,701.0244937144396
738,701.0121044599412
739,701.0006383461634
740,700.9895572577285
741,700.9783197009515
742,700.9663995007903
743,700.9533044718546
744,700.9385948599831
745,700.9219012600839
746,700.9029413582015
747,700.8815344254242
748,700.8576122876929
749,700.831225693119
750,700.8025455232585
751,700.7718588666306
752,700.7395603501424
753,700.7061392604003
754,700.6721629793424
755,700.6382572342238
756,700.60508370251
757,700.5733156117702
758,700.5436120693248
759,700.5165919281907
760,700.4928081091808
761,700.4727234919746
762,700.4566896756207
763,700.4449299649071
764,700.4375278402241
765,700.4344219644344
766,700.435408447821
767,700.4401505558467
768,700.4481953453698
769,700.4589960406287
770,700.4719384892328
771,700.4863698318483
772,700.5016275533394
773,700.51706729624
774,700.5320881148377
775,700.5461541372142
776,700.5588118544708
777,700.5697025094892
778,700.5785693620746
779,700.5852599597131
780,700.5897238560264
781,700.592006386743
782,700.5922391230218
783,700.5906275627387
784,700.5874365937424
785,700.5829743200787
786,700.577574952159
787,700.5715815161292
788,700.5653290509124
789,700.5591287871755
790,700.5532536805329
791,700.5479256604378
792,700.5433049993433
793,700.5394822551206
794,700.5364732943757
795,700.5342179061931
796,700.53258234828
797,700.5313658445765
798,700.5303107559969
799,700.5291159887013
800,700.5274531056641
801,700.5249844519273
802,700.5213824083412
803,700.5163487597346
804,700.5096331722592
805,700.5010498894603
806,700.4904918784612
807,700.4779417354007
808,700.463478748977
809,700.4472816895293
810,700.4296270990334
811,700.4108830129628
812,700.3914981685308
813,700.3719869962694
814,700.3529111344935
815,700.3348587020608
816,700.3184228566322
817,700.3041811221165
818,700.2926766493052
819,700.2844021263542
820,700.2797866228826
821,700.2791853194665
822,700.282871867056
823,700.2910330379349
824,700.3037653586279
825,700.3210735134214
826,700.3428704371423
827,700.3689791632072
828,700.3991365943249
829,700.4329993046077
830,700.4701512515333
831,700.5101130272999
832,700.5523521715604
833,700.5962941284829
834,700.641333595531
835,700.6868462000508
836,700.7322005685545
837,700.7767708521799
838,700.8199496439515
839,700.8611610550918
840,700.8998735933429
841,700.935612405287
842,700.9679703395643
843,700.9966171413095
844,701.0213060088431
845,701.0418768680016
846,701.0582560366543
847,701.0704523083858
848,701.0785497705518
849,701.082697910109
850,701.0830997947353
851,701.0799993154154
852,701.0736685711711
853,701.0643964207651
854,701.0524790015562
855,701.0382126537489
856,701.0218893009636
857,701.0037940445732
858,700.9842045459418
859,700.9633916431762
860,700.9416205793134
861,700.9191522726817
862,700.8962442402466
863,700.8731509877915
864,700.8501238104984
865,700.8274099980622
866,700.8052514449047
867,700.7838826379607
868,700.7635279285834
869,700.7443979209573
870,700.726684800313
871,700.7105565497799
872,700.6961502572625
873,700.6835650014963
874,700.6728550299698
875,700.6640240369613
876,700.6570212777235
877,700.651740025571
878,700.6480185790145
879,700.6456437533172
880,700.6443565815375
881,700.6438598024404
882,700.6438266251666
883,700.6439102171917
884,700.6437533358352
885,700.6429975277317
886,700.6412914094626
887,700.6382977311159
888,700.6336991434516
889,700.6272027501751
890,700.618543612829
891,700.6074874312451
892,700.5938326772213
893,700.5774125160302
894,700.5580969139517
895,700.5357953781828
896,700.5104607330164
897,700.4820941437555
898,700.4507512852064
899,700.4165491943867
900,700.3796730190238
901,700.3403816258924
902,700.2990109035034
903,700.2559736267015
904,700.2117549902651
905,700.1669033459306
906,700.1220162101189
907,700.0777221775444
908,700.0346599203152
909,699.9934558636227
910,699.9547022803287
911,699.9189373931302
912,699.8866286759974
913,699.8581600425327
914,699.8338231684261
915,699.8138129062748
916,699.7982265331786
917,699.787066322312
