frame_number,force
0,701.4462093563168
1,701.4539290429855
2,701.4610601614687
3,701.4675153475064
4,701.4732085567235
5,701.4780560266017
6,701.4819772082576
7,701.4848956582307
8,701.4867398797853
9,701.4874441020761
10,701.4869489840584
11,701.4852022291749
12,701.4821590981836
13,701.4777828115724
14,701.4720448385891
15,701.4649250750729
16,701.4564119158823
17,701.4465022294993
18,701.4352012422337
19,701.4225223375286
20,701.4084867734312
21,701.3931233203415
22,701.3764678230485
23,701.3585626957531
24,701.3394563644781
25,701.3192026747972
26,701.2978602818271
27,701.2754920349734
28,701.2521643656868
29,701.2279466855373
30,701.2029108046075
31,701.177130384226
32,701.1506804398476
33,701.1236369070537
34,701.0960762769753
35,701.0680753001848
36,701.0397107528663
37,701.0110592562365
38,700.9821971387054
39,700.953200329217
40,700.9241442689541
41,700.8951038265888
42,700.866153199661
43,700.8373657830026
44,700.8088139862998
45,700.7805689868147
46,700.7527004075671
47,700.7252759141866
48,700.6983607262431
49,700.672017043267
50,700.646303392367
51,700.621273912142
52,700.5969775951368
53,700.5734575172388
54,700.5507500855725
55,700.5288843354746
56,700.5078813029825
57,700.4877534947342
58,700.468504474177
59,700.4501285806774
60,700.4326107947653
61,700.4159267581771
62,700.4000429523941
63,700.3849170346333
64,700.3704983267315
65,700.3567284510556
66,700.3435421073895
67,700.3308679828749
68,700.3186297822148
69,700.3067473594087
70,700.2951379282159
71,700.283717327303
72,700.272401316378
73,700.2611068798976
74,700.2497535143012
75,700.238264473156
76,700.2265679431343
77,700.2145981242566
78,700.202296191106
79,700.1896111163644
80,700.1765003421517
81,700.1629302880378
82,700.1488766883356
83,700.1343247563271
84,700.119269179429
85,700.1037139560189
86,700.0876720897849
87,700.0711651590417
88,700.0542227766033
89,700.0368819529527
90,700.0191863737864
91,700.0011856025754
92,699.982934218528
93,699.9644908996738
94,699.9459174597727
95,699.9272778466828
96,699.9086371092606
97,699.8900603405501
98,699.8716116077286
99,699.8533528840097
100,699.8353430030583
101,699.817636660374
102,699.8002834874098
103,699.7833272229061
104,699.7668050028361
105,699.7507467867748
106,699.735174935296
107,699.7201039496603
108,699.705540380382
109,699.6914829052199
110,699.6779225713389
111,699.6648431927076
112,699.6522218926558
113,699.6400297817412
114,699.6282327613523
115,699.6167924432785
116,699.6056671747638
117,699.5948131568795
118,699.5841856405674
119,699.5737401791034
120,699.5634339089719
121,699.5532268248562
122,699.5430830102574
123,699.5329717844577
124,699.5228687298493
125,699.5127565706263
126,699.5026258828899
127,699.4924756250466
128,699.482313484108
129,699.4721560378331
130,699.4620287357777
131,699.4519657056024
132,699.4420093946391
133,699.4322100596896
134,699.4226251194838
135,699.4133183846739
136,699.4043591812118
137,699.3958213857003
138,699.3877823959792
139,699.3803220649578
140,699.3735216272242
141,699.3674626440835
142,699.3622259843319
143,699.3578908481102
144,699.3545338321633
145,699.3522280287401
146,699.3510421488107
147,699.3510396638283
148,699.3522779673319
149,699.3548075646095
150,699.3586713023386
151,699.3639036510036
152,699.3705300536996
153,699.3785663568628
154,699.3880183399067
155,699.3988813596146
156,699.4111401208153
157,699.4247685786045
158,699.4397299717989
159,699.4559769842275
160,699.4734520293829
161,699.4920876532175
162,699.5118070485867
163,699.5325246731561
164,699.5541469613095
165,699.5765731205316
166,699.5996960035518
167,699.6234030476571
168,699.6475772712289
169,699.6720983157868
170,699.6968435212913
171,699.7216890236688
172,699.7465108655825
173,699.771186113235
174,699.7955939732271
175,699.8196169045012
176,699.8431417209819
177,699.8660606801695
178,699.888272551103
179,699.9096836513071
180,699.9302088369257
181,699.9497724252585
182,699.9683090265297
183,699.9857642620507
184,700.0020953479445
185,700.0172715267598
186,700.0312743336539
187,700.0440976890777
188,700.055747815483
189,700.0662429811011
190,700.0756130791356
191,700.0838990555446
192,700.0911522026294
193,700.097433338272
194,700.1028118909389
195,700.1073649079087
196,700.1111759998024
197,700.1143342312605
198,700.1169329675246
199,700.1190686884647
200,700.1208397825326
201,700.1223453328994
202,700.1236839086401
203,700.1249523759528
204,700.1262447465001
205,700.1276510804358
206,700.12925645998
207,700.131140045914
208,700.1333742258386
209,700.1360238617774
210,700.1391456462007
211,700.1427875777533
212,700.1469885683383
213,700.151778190501
214,700.1571765689796
215,700.1631944148272
216,700.1698331963952
217,700.1770854389868
218,700.1849351431185
219,700.1933583088239
220,700.2023235497065
221,700.211792775706
222,700.2217219184924
223,700.232061669607
224,700.242758201484
225,700.2537538472199
226,700.2649877250486
227,700.2763963037105
228,700.2879139120747
229,700.2994732007135
230,700.311005566382
231,700.3224415531186
232,700.333711245167
233,700.3447446664793
234,700.3554721993532
235,700.365825031653
236,700.375735638809
237,700.3851383033809
238,700.3939696710577
239,700.402169338435
240,700.4096804663262
241,700.4164504126221
242,700.4224313789787
243,700.4275810648604
244,700.4318633213551
245,700.435248796709
246,700.4377155661156
247,700.4392497393366
248,700.4398460396773
249,700.439508345594
250,700.4382501827573
251,700.4360951518936
252,700.433077277273
253,700.4292412618305
254,700.4246426370737
255,700.419347799212
256,700.4134339268787
257,700.4069887788921
258,700.4001103715428
259,700.3929065344144
260,700.385494343491
261,700.377999431799
262,700.3705551812758
263,700.3633018036727
264,700.3563853214517
265,700.3499564618043
266,700.344169479459
267,700.3391809268502
268,700.3351483914321
269,700.3322292180343
270,700.3305792297768
271,700.3303514556396
272,700.3316948681346
273,700.3347531328138
274,700.3396633734737
275,700.3465549613638
276,700.3555483407517
277,700.3667539051498
278,700.3802709386474
279,700.3961866363188
280,700.4145752171222
281,700.4354971419194
282,700.45899844841
283,700.4851102139621
284,700.5138481558282
285,700.545212375689
286,700.5791872531
287,700.6157414915671
288,700.6548283213015
289,700.6963858625517
290,700.7403376514718
291,700.7865933264999
292,700.8350494676838
293,700.885590575585
294,700.9380901718006
295,700.9924120002727
296,701.0484113063837
297,701.1059361682607
298,701.1648288523588
299,701.2249271651548
300,701.286065775077
301,701.3480774819935
302,701.4107944146223
303,701.4740491401716
304,701.5376756765318
305,701.6015104044282
306,701.6653928823431
307,701.7291665684295
308,701.7926794512265
309,701.855784587166
310,701.9183405404337
311,701.9802117210191
312,702.0412686192373
313,702.1013879384534
314,702.160452631191
315,702.218351846594
316,702.2749807995574
317,702.330240574682
318,702.3840378812808
319,702.4362847767559
320,702.4868983734716
321,702.5358005406715
322,702.5829176111657
323,702.6281801035148
324,702.6715224726479
325,702.7128829029948
326,702.7522031571403
327,702.789428489893
328,702.8245076328825
329,702.8573928488157
330,702.888040048853
331,702.9164089634797
332,702.9424633576166
333,702.9661712830565
334,702.9875053630501
335,703.0064431032222
336,703.0229672200882
337,703.0370659747317
338,703.0487334965301
339,703.0579700816744
340,703.0647824540744
341,703.069183980755
342,703.0711948376913
343,703.0708421238596
344,703.0681599220366
345,703.063189306268
346,703.0559782983303
347,703.0465817777954
348,703.0350613515789
349,703.0214851892591
350,703.0059278303495
351,702.9884699687558
352,702.969198217307
353,702.948204851599
354,702.9255875285479
355,702.9014489724937
356,702.8758966212066
357,702.849042225477
358,702.8210013982006
359,702.7918931109845
360,702.7618391375534
361,702.7309634432972
362,702.6993915193317
363,702.6672496586315
364,702.6346641729036
365,702.6017605524078
366,702.5686625757584
367,702.5354913815984
368,702.5023645181635
369,702.4693949889426
370,702.436690311312
371,702.4043516001908
372,702.3724726828102
373,702.3411392468222
374,702.3104280241025
375,702.2804060163805
376,702.251129773953
377,702.2226447425977
378,702.1949846953967
379,702.1681712664583
380,702.1422136037933
381,702.11710815874
382,702.0928386278669
383,702.0693760592327
384,702.0466791293109
385,702.0246945918129
386,702.0033578960974
387,701.9825939702351
388,701.962318161224
389,701.9424373220594
390,701.9228510322581
391,701.9034529341652
392,701.884132161191
393,701.8647748273025
394,701.8452655424002
395,701.8254889173642
396,701.8053310255084
397,701.7846807930363
398,701.7634312981471
399,701.741480964162
400,701.7187346348557
401,701.6951045212882
402,701.6705110115735
403,701.644883339201
404,701.6181601101929
405,701.5902896932042
406,701.5612304800362
407,701.5309510273783
408,701.499430092918
409,701.466656578702
410,701.4326293912468
411,701.3973572227073
412,701.3608582529741
413,701.3231597708264
414,701.2842977132041
415,701.2443161241385
416,701.2032665375551
417,701.1612072898822
418,701.1182027692657
419,701.0743226097402
420,701.0296408415946
421,700.984235011879
422,700.9381852902112
423,700.8915735755286
424,700.8444826203122
425,700.7969951895128
426,700.7491932704652
427,700.7011573470128
428,700.6529657468459
429,700.6046940673344
430,700.5564146832793
431,700.5081963400518
432,700.4601038361155
433,700.4121977981048
434,700.3645345485562
435,700.3171660614679
436,700.2701399954578
437,700.2234997899161
438,700.1772848072103
439,700.1315305041201
440,700.0862686180735
441,700.0415273573628
442,699.9973315874021
443,699.9537030059086
444,699.9106602989058
445,699.8682192677564
446,699.8263929162281
447,699.7851914874283
448,699.7446224444928
449,699.7046903953579
450,699.6653969681763
451,699.6267406477638
452,699.5887165845894
453,699.5513163870991
454,699.5145279064938
455,699.4783350215205
456,699.4427174306437
457,699.4076504609519
458,699.3731049069672
459,699.339046916352
460,699.3054379408467
461,699.2722347685045
462,699.2393896485144
463,699.206850514579
464,699.1745613084714
465,699.1424624026308
466,699.1104911187047
467,699.0785823365709
468,699.0466691856662
469,699.0146838085996
470,698.9825581861119
471,698.9502250110158
472,698.9176185959569
473,698.8846757964415
474,698.8513369276315
475,698.8175466516805
476,698.7832548128977
477,698.7484172015364
478,698.7129962328314
479,698.6769615342944
480,698.6402904397348
481,698.602968392346
482,698.5649892612341
483,698.5263555758893
484,698.4870786817808
485,698.447178818458
486,698.4066851200472
487,698.3656355373726
488,698.3240766814326
489,698.2820635889409
490,698.2396594107337
491,698.1969350232354
492,698.1539685640599
493,698.1108448963462
494,698.0676550105179
495,698.0244953736382
496,697.981467234016
497,697.9386758835708
498,697.8962298759246
499,697.8542401972637
500,697.8128193901046
501,697.7720806349997
502,697.7321367994382
503,697.6930994659149
504,697.6550779527422
505,697.6181783417679
506,697.5825025265021
507,697.5481472926873
508,697.5152034425568
509,697.4837549750067
510,697.4538783356865
511,697.4256417511058
512,697.3991046579736
513,697.3743172345362
514,697.3513200370697
515,697.330143742892
516,697.3108090010462
517,697.2933263930013
518,697.2776965080457
519,697.2639101400874
520,697.2519486123556
521,697.2417842333982
522,697.2333808828287
523,697.2266947194588
524,697.2216749979483
525,697.2182649738075
526,697.2164028727605
527,697.2160229006741
528,697.2170562739554
529,697.2194322556755
530,697.2230791876293
531,697.2279255114265
532,697.2339007721131
533,697.2409365963712
534,697.2489676349796
535,697.2579324569472
536,697.2677743814506
537,697.2784422336604
538,697.2898910115293
539,697.3020824524165
540,697.3149854901603
541,697.3285765938497
542,697.3428399793136
543,697.3577676846104
544,697.3733595022752
545,697.3896227636682
546,697.4065719740848
547,697.4242283007868
548,697.44261891932
549,697.4617762270262
550,697.4817369379787
551,697.5025410805491
552,697.5242309244766
553,697.5468498660258
554,697.5704412985812
555,697.5950474944715
556,697.62070852267
557,697.6474612255007
558,697.6753382754586
559,697.7043673306783
560,697.7345703038729
561,697.7659627548219
562,697.798553411953
563,697.8323438252567
564,697.8673281504888
565,697.9034930622313
566,697.9408177902152
567,697.9792742700771
568,698.0188273976498
569,698.0594353752537
570,698.101050138489
571,698.1436178519542
572,698.1870794620713
573,698.2313712955134
574,698.2764256937007
575,698.3221716777778
576,698.36853564288
577,698.415442082385
578,698.4628143403002
579,698.5105753842167
580,698.5586485857375
581,698.6069584925622
582,698.6554315771177
583,698.7039969500305
584,698.7525870307878
585,698.8011381701076
586,698.8495912182459
587,698.8978920324853
588,698.945991917063
589,698.9938479898672
590,699.0414234714831
591,699.0886878930647
592,699.1356172203738
593,699.1821938928479
594,699.2284067786815
595,699.2742510487599
596,699.3197279734127
597,699.3648446469842
598,699.4096136469615
599,699.4540526366922
600,699.4981839224852
601,699.5420339760418
602,699.5856329312483
603,699.629014060772
604,699.6722132337164
605,699.7152683521333
606,699.758218762925
607,699.8011046437716
608,699.843966366732
609,699.8868438483831
610,699.9297758976355
611,699.9727995711352
612,700.0159495438012
613,700.0592575011192
614,700.1027515609862
615,700.146455735695
616,700.1903894479603
617,700.234567116906
618,700.2789978291801
619,700.3236851071528
620,700.3686267820177
621,700.413814975953
622,700.4592361945861
623,700.504871527925
624,700.5506969537118
625,700.5966837324852
626,700.6427988805547
627,700.6890057067872
628,700.7352644004551
629,700.7815326582324
630,700.8277663377493
631,700.8739201233925
632,700.9199481883971
633,700.9658048370741
634,701.0114451128037
635,701.0568253602637
636,701.1019037330774
637,701.1466406405393
638,701.1909991296758
639,701.2349452014337
640,701.2784480614301
641,701.321480305953
642,701.3640180434944
643,701.406040952064
644,701.4475322726609
645,701.4884787387842
646,701.5288704411976
647,701.5687006279271
648,701.6079654426615
649,701.6466636095696
650,701.6847960767476
651,701.7223656319686
652,701.7593765033932
653,701.7958339558182
654,701.8317438900629
655,701.8671124490777
656,701.9019456310167
657,701.9362489087246
658,701.9700268559459
659,702.0032827805245
660,702.0360183630714
661,702.0682332974873
662,702.0999249291692
663,702.1310878884185
664,702.1617137200127
665,702.191790514045
666,702.2213025464415
667,702.2502299386534
668,702.2785483448781
669,702.3062286734179
670,702.333236848262
671,702.3595336185421
672,702.3850744267729
673,702.4098093501223
674,702.4336831301896
675,702.4566353048567
676,702.4786004517225
677,702.499508548409
678,702.5192854512198
679,702.5378534892901
680,702.5551321662386
681,702.5710389565223
682,702.5854901799344
683,702.5984019350482
684,702.609691071473
685,702.6192761817528
686,702.6270785952526
687,702.6330233570642
688,702.6370401750125
689,702.6390643179305
690,702.6390374486629
691,702.6369083763445
692,702.6326337155524
693,702.6261784449524
694,702.6175163633177
695,702.6066304445267
696,702.5935130950746
697,702.5781663184403
698,702.560601791077
699,702.5408408552172
700,702.5189144342177
701,702.4948628766508
702,702.4687357350698
703,702.4405914838575
704,702.4104971785597
705,702.3785280583886
706,702.3447670953528
707,702.3093044968765
708,702.2722371711542
709,702.2336681636265
710,702.1937060693114
711,702.1524644219918
712,702.1100610597067
713,702.0666174667209
714,702.0222580936083
715,701.9771096576735
716,701.9313004258148
717,701.8849594829683
718,701.8382159922902
719,701.7911984564051
720,701.744033990231
721,701.6968476151418
722,701.6497615825757
723,701.6028947325319
724,701.5563618884556
725,701.5102732863957
726,701.4647340356477
727,701.4198436110729
728,701.3756953821747
729,701.332376188517
730,701.2899659737585
731,701.2485374909265
732,701.2081560898375
733,701.1688795949706
734,701.1307582797049
735,701.0938349404105
736,701.0581450704925
737,701.023717130035
738,700.9905729016513
739,700.9587279179206
740,700.9281919415707
741,700.8989694784988
742,700.8710603068592
743,700.8444600107989
744,700.8191605109896
745,700.7951505831396
746,700.7724163505802
747,700.7509417310296
748,700.7307088151221
749,700.7116981581322
750,700.6938889753446
751,700.6772592412817
752,700.6617856996766
753,700.6474437939171
754,700.6342075281924
755,700.6220492697344
756,700.6109395036341
757,700.6008465536203
758,700.5917362838952
759,700.5835717983516
760,700.5763131552443
761,700.5699171182737
762,700.5643369677197
763,700.5595223957604
764,700.555419508076
765,700.5519709500646
766,700.549116170141
767,700.5467918234826
768,700.5449323078938
769,700.5434704121623
770,700.542338049205
771,700.5414670424271
772,700.5407899336993
773,700.5402407842198
774,700.5397559438062
775,700.5392747683893
776,700.5387402692196
777,700.5380996811409
778,700.5373049420349
779,700.5363130811207
780,700.5350865188359
781,700.5335932838387
782,700.5318071530673
783,700.5297077201351
784,700.5272803972363
785,700.5245163569705
786,700.5214124225752
787,700.5179709162669
788,700.5141994743745
789,700.5101108355481
790,700.5057226067366
791,700.501057011778
792,700.4961406284252
793,700.4910041206941
794,700.4856819745639
795,700.4802122453743
796,700.4746363229115
797,700.4689987153805
798,700.4633468490844
799,700.457730878476
800,700.4522035000449
801,700.44681976142
802,700.4416368543901
803,700.4367138789297
804,700.4321115658995
805,700.4278919483563
806,700.424117973788
807,700.4208530512765
808,700.4181605294498
809,700.4161031041632
810,700.4147421585009
811,700.4141370404668
812,700.4143442859346
813,700.4154167984168
814,700.4174030042661
815,700.4203460097019
816,700.4242827905113
817,700.4292434443284
818,700.4352505299779
819,700.4423185108142
820,700.450453311554
821,700.4596519921324
822,700.4699025380146
823,700.4811837641704
824,700.4934653293739
825,700.5067078579871
826,700.5208631673443
827,700.5358746000671
828,700.5516774611337
829,700.5681995575178
830,700.5853618335533
831,700.6030790902855
832,700.6212607744887
833,700.6398118232022
834,700.658633551557
835,700.6776245740992
836,700.696681751439
837,700.7157011537836
838,700.7345790307949
839,700.7532127746127
840,700.7715018611373
841,700.7893487537376
842,700.8066597524008
843,700.8233457696505
844,700.8393230140639
845,700.8545135650273
846,700.8688458283034
847,700.8822548686094
848,700.8946826209749
849,700.9060779874915
850,700.9163968308599
851,700.9256018803687
852,700.9336625685023
853,700.940554816526
854,700.9462607848357
855,700.9507685990609
856,700.9540720576279
857,700.9561703225953
858,700.9570675933094
859,700.95677276093
860,700.9552990411837
861,700.9526635838233
862,700.9488870602754
863,700.9439932341941
864,700.9380085216051
865,700.9309615479261
866,700.9228827089429
867,700.9138037419642
868,700.903757311829
869,700.8927766146627
870,700.8808950014507
871,700.8681456247152
872,700.854561114739
873,700.8401732954463
874,700.8250129526732
875,700.809109668142
876,700.7924917303943
877,700.7751861294096
878,700.7572186360304
879,700.7386139621717
880,700.719395993704
881,700.6995880848553
882,700.6792134009611
883,700.6582952951659
884,700.6368577038329
885,700.6149255451529
886,700.5925251066402
887,700.5696844100896
888,700.5464335460559
889,700.5228049726157
890,700.4988337748104
891,700.4745578824417
892,700.4500182452645
893,700.425258966124
894,700.4003273942882
895,700.3752741827565
896,700.3501533134997
897,700.325022092437
898,700.2999411119232
899,700.2749741738266
900,700.2501881620432
901,700.2256528503068
902,700.2014406299968
903,700.1776261439829
904,700.1542858170773
905,700.1314972810604
906,700.1093387012106
907,700.0878880206634
908,700.0672221478436
909,700.0474161188969
910,700.028542269506
911,700.0106694479996
912,699.9938622952179
913,699.9781806083514
914,699.9636787986004
915,699.9504054474245
916,699.938402962096
917,699.9277073266535
