frame_number,force
0,701.4485321659382
1,701.4553594695486
2,701.4615833801586
3,701.4671267834129
4,701.4719138395234
5,701.4758708064796
6,701.4789268383533
7,701.4810147503769
8,701.4820717419263
9,701.4820400676188
10,701.480867645565
11,701.478508591159
12,701.4749236658735
13,701.4700806338454
14,701.4639545235449
15,701.4565277960065
16,701.4477904240354
17,701.437739888271
18,701.4263810959085
19,701.4137262263646
20,701.3997945062637
21,701.3846119153886
22,701.3682108268139
23,701.3506295882476
24,701.3319120562367
25,701.3121070977677
26,701.2912680730418
27,701.2694523096594
28,701.2467205750786
29,701.2231365534841
30,701.1987663354004
31,701.1736779316426
32,701.147940824663
33,701.1216255680905
34,701.0948034399232
35,701.067546149007
36,701.0399255902437
37,701.0120136416951
38,700.9838819955629
39,700.9556020141865
40,700.9272446011868
41,700.8988800762697
42,700.870578040108
43,700.8424072143636
44,700.8144352428518
45,700.7867284429816
46,700.7593515000297
47,700.7323670991241
48,700.7058354918717
49,700.6798139980766
50,700.6543564483518
51,700.6295125796522
52,700.6053274017992
53,700.5818405579702
54,700.5590857046311
55,700.5370899355686
56,700.5158732712971
57,700.4954482314363
58,700.4758195051983
59,700.4569837332324
60,700.4389294113369
61,700.4216369228351
62,700.4050787023888
63,700.3892195301719
64,700.3740169524743
65,700.3594218237268
66,700.3453789647663
67,700.3318279306341
68,700.3187038772712
69,700.3059385116809
70,700.2934611068466
71,700.2811995616977
72,700.2690814866837
73,700.2570352957572
74,700.2449912850608
75,700.232882677366
76,700.2206466101485
77,700.208225045618
78,700.1955655836719
79,700.1826221625028
80,700.1693556349422
81,700.1557342113732
82,700.1417337630854
83,700.1273379840343
84,700.1125384141075
85,700.0973343324395
86,700.0817325334777
87,700.0657469998102
88,700.0493984843064
89,700.0327140118617
90,700.0157263097259
91,699.998473175071
92,699.9809967882712
93,699.9633429798513
94,699.9455604582589
95,699.9277000047709
96,699.9098136413988
97,699.8919537782172
98,699.8741723487162
99,699.8565199455896
100,699.8390449736625
101,699.8217928397963
102,699.8048052006493
103,699.7881192881194
104,699.7717673298037
105,699.7557760789003
106,699.7401664653873
107,699.7249533775939
108,699.7101455795038
109,699.695745764246
110,699.6817507395414
111,699.6681517378918
112,699.6549348433573
113,699.642081526932
114,699.6295692827297
115,699.6173723570212
116,699.605462561575
117,699.5938101613968
118,699.5823848241479
119,699.5711566140228
120,699.5600970074287
121,699.5491799027586
122,699.5383825931914
123,699.5276866708201
124,699.5170788330854
125,699.5065515681172
126,699.4961037028927
127,699.4857408052414
128,699.4754754361664
129,699.465327252464
130,699.4553229621658
131,699.4454961380035
132,699.4358868970601
133,699.4265414571981
134,699.4175115820498
135,699.4088539267531
136,699.4006292974215
137,699.3929018395697
138,699.3857381744987
139,699.3792065064787
140,699.3733757248167
141,699.3683145217797
142,699.3640905406529
143,699.3607695602002
144,699.3584147145447
145,699.3570857425868
146,699.3568382598127
147,699.3577230481892
148,699.3597853655076
149,699.3630642810789
150,699.3675920476365
151,699.3733935199721
152,699.3804856314513
153,699.388876941068
154,699.39856726481
155,699.4095474041591
156,699.4217989810219
157,699.4352943833036
158,699.449996820803
159,699.4658604885786
160,699.4828308340157
161,699.5008449231794
162,699.5198319009627
163,699.5397135381311
164,699.5604048572987
165,699.5818148297731
166,699.603847135823
167,699.6264009809911
168,699.6493719599492
169,699.6726529579516
170,699.6961350794886
171,699.7197085947085
172,699.7432638958201
173,699.7666924571026
174,699.7898877931549
175,699.8127464108223
176,699.8351687507372
177,699.857060114132
178,699.878331569138
179,699.8989008277593
180,699.9186930803907
181,699.9376417707897
182,699.9556892925339
183,699.9727875883154
184,699.9888986350928
185,700.0039948007166
186,700.0180590612069
187,700.0310850721446
188,700.0430770921913
189,700.054049761268
190,700.0640277402334
191,700.0730452228588
192,700.0811453341954
193,700.0883794316119
194,700.0948063250444
195,700.10049143092
196,700.1055058707386
197,700.1099255227404
198,700.1138300350539
199,700.1173018101886
200,700.1204249715138
201,700.1232843222114
202,700.1259643076884
203,700.128547994155
204,700.1311160777611
205,700.1337459390636
206,700.1365107562212
207,700.1394786874868
208,700.1427121307042
209,700.1462670664813
210,700.1501924928679
211,700.1545299611132
212,700.1593132223215
213,700.1645679926028
214,700.1703118401801
215,700.1765541934676
216,700.1832964657639
217,700.1905322901536
218,700.1982478566406
219,700.2064223414599
220,700.2150284154574
221,700.2240328145459
222,700.2333969511229
223,700.2430775422237
224,700.2530272301335
225,700.263195175736
226,700.2735276129312
227,700.2839683606335
228,700.2944592945787
229,700.3049407846096
230,700.3153521056896
231,700.3256318330778
232,700.3357182332649
233,700.3455496618828
234,700.3550649780134
235,700.3642039818033
236,700.3729078796729
237,700.3811197786561
238,700.3887852082661
239,700.3958526654504
240,700.4022741769342
241,700.408005873483
242,700.41300857085
243,700.4172483515976
244,700.4206971411269
245,700.4233332709135
246,700.425142022458
247,700.4261161463533
248,700.4262563508787
249,700.4255717527794
250,700.4240802801736
251,700.4218090155807
252,700.4187944667639
253,700.4150827540419
254,700.41072970454
255,700.4058008465513
256,700.4003713004165
257,700.3945255648662
258,700.3883571986748
259,700.3819683971536
260,700.3754694628666
261,700.368978171214
262,700.3626190343559
263,700.3565224703048
264,700.3508238866023
265,700.3456626897795
266,700.3411812338801
267,700.337523723692
268,700.3348350893372
269,700.3332598473695
270,700.3329409600244
271,700.3340186999102
272,700.336629523698
273,700.340904956982
274,700.3469704941808
275,700.3549445209104
276,700.3649372694879
277,700.3770498197669
278,700.3913731575801
279,700.4079873026491
280,700.4269605173232
281,700.448348606838
282,700.47219432105
283,700.4985268669054
284,700.527361539631
285,700.5586994785369
286,700.592527551348
287,700.6288183702352
288,700.667530442921
289,700.7086084620378
290,700.7519837343024
291,700.7975747478018
292,700.8452878711723
293,700.895018173727
294,700.9466503518413
295,701.0000597445444
296,701.0551134194709
297,701.1116713082122
298,701.1695873681728
299,701.2287107478083
300,701.288886933938
301,701.3499588623625
302,701.411767975447
303,701.4741552134769
304,701.5369619314215
305,701.600030738425
306,701.6632062616852
307,701.726335837516
308,701.7892701304518
309,701.8518636781885
310,701.9139753582116
311,701.9754687721969
312,702.0362125462522
313,702.0960805478585
314,702.1549520231667
315,702.212711660569
316,702.2692495883725
317,702.3244613167161
318,702.3782476363608
319,702.4305144878952
320,702.4811728131582
321,702.53013839783
322,702.5773317127081
323,702.6226777620144
324,702.666105948887
325,702.7075499691515
326,702.746947743639
327,702.7842413968294
328,702.8193772857904
329,702.8523060785907
330,702.8829828768365
331,702.9113673745215
332,702.9374240456998
333,702.9611223554051
334,702.9824369896547
335,703.0013480998865
336,703.0178415548618
337,703.0319091901049
338,703.0435490428281
339,703.0527655601995
340,703.0595697711243
341,703.0639794153655
342,703.0660190269421
343,703.0657199702414
344,703.0631204279107
345,703.0582653407392
346,703.0512063016945
347,703.0420014081418
348,703.0307150773195
349,703.0174178304956
350,703.0021860511655
351,702.9851017219146
352,702.9662521426964
353,702.9457296303704
354,702.9236311962671
355,702.9000581965092
356,702.8751159494384
357,702.8489133155773
358,702.8215622373615
359,702.7931772375778
360,702.7638748764623
361,702.7337731674573
362,702.702990950846
363,702.6716472238245
364,702.6398604264514
365,702.6077476857473
366,702.5754240240831
367,702.5430015418767
368,702.5105885879155
369,702.4782889323503
370,702.4462009563091
371,702.4144168681531
372,702.3830219515775
373,702.3520938476029
374,702.321701872565
375,702.2919063771968
376,702.262758155972
377,702.2342979189267
378,702.2065558394061
379,702.1795511913533
380,702.1532920899148
381,702.1277753491955
382,702.1029864697628
383,702.0788997651891
384,702.0554786323883
385,702.0326759663724
386,702.0104347171559
387,701.9886885843832
388,701.9673628431431
389,701.9463752921544
390,701.9256373129745
391,701.9050550254208
392,701.8845305194003
393,701.8639631378386
394,701.8432507816102
395,701.8222912066863
396,701.8009832860864
397,701.7792282139369
398,701.7569306346173
399,701.7339996845948
400,701.7103499368292
401,701.6859022385496
402,701.6605844349574
403,701.6343319748055
404,701.607088397597
405,701.5788057052627
406,701.5494446239315
407,701.5189747641459
408,701.4873746897939
409,701.4546319058812
410,701.4207427725987
411,701.3857123490213
412,701.3495541662695
413,701.3122899286133
414,701.2739491418106
415,701.2345686700165
416,701.1941922248064
417,701.1528697912875
418,701.1106569970201
419,701.0676144307652
420,701.0238069204349
421,700.9793027818453
422,700.9341730508767
423,700.8884907120747
424,700.8423299374564
425,700.7957653498793
426,700.7488713245887
427,700.7017213401109
428,700.6543873862765
429,700.606939434172
430,700.5594449713244
431,700.5119686054616
432,700.4645717406007
433,700.4173123285527
434,700.3702446964376
435,700.3234194468318
436,700.2768834228037
437,700.230679726546
438,700.1848477784146
439,700.1394234032421
440,700.0944389326937
441,700.0499233152952
442,700.005902228047
443,699.9623981841621
444,699.9194306306327
445,699.8770160279339
446,699.835167903161
447,699.7938968685289
448,699.7532106003717
449,699.7131137789262
450,699.6736079941467
451,699.6346916258378
452,699.5963597072549
453,699.5586037806996
454,699.52141175226
455,699.4847677515477
456,699.4486520020965
457,699.4130407096485
458,699.3779059785892
459,699.3432157698385
460,699.3089339145538
461,699.2750201961518
462,699.2414305092943
463,699.2081171001818
464,699.1750288889883
465,699.1421118730395
466,699.1093096077514
467,699.0765637604351
468,699.043814729894
469,699.0110023232553
470,698.9780664807444
471,698.9449480379748
472,698.9115895130928
473,698.8779359034033
474,698.843935473756
475,698.8095405176085
476,698.7747080721239
477,698.7394005715141
478,698.7035864275621
479,698.6672405314274
480,698.6303446752694
481,698.5928878953794
482,698.5548667401958
483,698.51628546672
484,698.4771561678373
485,698.4374988316521
486,698.3973413327869
487,698.3567193551183
488,698.3156762458688
489,698.2742628018079
490,698.2325369884363
491,698.1905635925725
492,698.1484138095202
493,698.1061647688595
494,698.0638990062276
495,698.0217038896786
496,697.9796710072123
497,697.9378955179482
498,697.8964754657852
499,697.8555110536587
500,697.8151038789987
501,697.7753561349406
502,697.7363697852289
503,697.6982457229373
504,697.6610829244011
505,697.6249776102214
506,697.5900224246434
507,697.5563056434096
508,697.5239104195257
509,697.4929140771324
510,697.4633874650699
511,697.4353943817628
512,697.4089910806888
513,697.38422586208
514,697.3611387535503
515,697.3397612808619
516,697.3201163298233
517,697.3022181012249
518,697.2860721625451
519,697.2716756017555
520,697.2590172883295
521,697.2480782440285
522,697.2388321220236
523,697.2312457881978
524,697.22527999321
525,697.220890118809
526,697.2180269787821
527,697.2166376550607
528,697.2166663524607
529,697.21805525983
530,697.220745409348
531,697.2246775280422
532,697.2297928759104
533,697.2360340638794
534,697.2433458429366
535,697.2516758539646
536,697.2609753267949
537,697.2711997169822
538,697.2823092696259
539,697.2942695010381
540,697.3070515904922
541,697.3206326748276
542,697.3349960385426
543,697.350131192247
544,697.3660338335798
545,697.382705686807
546,697.4001542200201
547,697.4183922417059
548,697.4374373810718
549,697.4573114593919
550,697.4780397639449
551,697.4996502417597
552,697.5221726349562
553,697.545637580876
554,697.570075699214
555,697.5955166871289
556,697.6219884423949
557,697.6495162334465
558,697.6781219335433
559,697.7078233342079
560,697.7386335501022
561,697.7705605236813
562,697.8036066343057
563,697.83776841382
564,697.8730363687482
565,697.9093949073175
566,697.9468223669525
567,697.9852911352586
568,698.0247678558178
569,698.0652137095854
570,698.106584762675
571,698.1488323712284
572,698.1919036338445
573,698.2357418822662
574,698.2802872025837
575,698.3254769823604
576,698.3712464826001
577,698.4175294349706
578,698.4642586626371
579,698.5113667184388
580,698.5587865296918
581,698.6064520367
582,698.6542988126135
583,698.7022646550148
584,698.7502901428662
585,698.7983191542033
586,698.8462993397288
587,698.8941825466801
588,698.9419251873624
589,698.9894885476167
590,699.0368390315139
591,699.0839483392996
592,699.130793576335
593,699.177357292018
594,699.2236274493974
595,699.2695973277107
596,699.315265360999
597,699.3606349168107
598,699.4057140204249
599,699.4505150318919
600,699.4950542846265
601,699.5393516944293
602,699.5834303462957
603,699.6273160634952
604,699.671036960058
605,699.714622975034
606,699.7581053858863
607,699.8015163000762
608,699.8448881279353
609,699.8882530441184
610,699.9316424467581
611,699.9750864224532
612,700.0186132233207
613,700.0622487615882
614,700.1060161281374
615,700.1499351436466
616,700.1940219536322
617,700.2382886802951
618,700.2827431434623
619,700.3273886603077
620,700.3722239302025
621,700.4172430080747
622,700.4624353673038
623,700.5077860506758
624,700.5532759045298
625,700.5988818874515
626,700.6445774423789
627,700.6903329207239
628,700.736116048191
629,700.7818924226332
630,700.8276260337356
631,700.8732797929229
632,700.9188160605665
633,700.9641971574007
634,701.0093858484946
635,701.0543457904131
636,701.0990419343875
637,701.1434408803157
638,701.187511178507
639,701.2312235781438
640,701.2745512227589
641,701.31746979325
642,701.3599575986448
643,701.4019956148137
644,701.4435674714576
645,701.4846593873106
646,701.5252600529847
647,701.565360461519
648,701.6049536892733
649,701.6440346337276
650,701.682599718136
651,701.7206465741751
652,701.7581737129285
653,701.7951801928813
654,701.8316652912217
655,701.8676281815204
656,701.9030676181785
657,701.9379816274023
658,701.9723672051515
659,702.0062200224722
660,702.0395341371848
661,702.072301709201
662,702.1045127162932
663,702.1361546684728
664,702.1672123218979
665,702.1976673965324
666,702.2274983044232
667,702.2566798963068
668,702.2851832333159
669,702.3129753891211
670,702.340019287395
671,702.3662735807148
672,702.3916925796095
673,702.4162262431036
674,702.4398202430757
675,702.4624161131727
676,702.483951489734
677,702.5043604487521
678,702.5235739398067
679,702.541520314389
680,702.558125941887
681,702.5733159026096
682,702.5870147441832
683,702.5991472855192
684,702.6096394517783
685,702.6184191245285
686,702.6254169924993
687,702.6305673888868
688,702.6338091012018
689,702.635086139728
690,702.6343484509018
691,702.6315525628078
692,702.6266621524516
693,702.6196485285387
694,702.6104910277246
695,702.5991773253346
696,702.5857036631273
697,702.5700749973524
698,702.5523050707354
699,702.5324164123917
700,702.5104402701445
701,702.4864164801401
702,702.4603932784745
703,702.4324270583611
704,702.4025820747953
705,702.3709300981359
706,702.3375500194883
707,702.3025274135506
708,702.2659540665375
709,702.2279274761416
710,702.1885503275915
711,702.1479299468922
712,702.1061777311169
713,702.0634085562309
714,702.0197401641257
715,701.9752925310377
716,701.9301872194487
717,701.88454671641
718,701.8384937636725
719,701.7921506875653
720,701.7456387375172
721,701.6990774415215
722,701.6525839855043
723,701.6062726214204
724,701.5602541057121
725,701.5146351668564
726,701.4695180001678
727,701.4249997904063
728,701.3811722666503
729,701.3381212974981
730,701.2959265368014
731,701.2546611303878
732,701.2143914928287
733,701.1751771611831
734,701.1370707307018
735,701.100117875493
736,701.0643574544002
737,701.0298216987295
738,700.9965364743829
739,700.9645216067195
740,700.9337912530448
741,700.9043543067401
742,700.8762148195389
743,700.8493724327323
744,700.8238228109294
745,700.7995580711943
746,700.7765671962659
747,700.7548364157277
748,700.7343495369457
749,700.7150882106641
750,700.6970321233816
751,700.6801591164617
752,700.6644452372811
753,700.649864729986
754,700.6363899738164
755,700.6239913770793
756,700.612637235706
757,700.6022935668576
758,700.5929239294009
759,700.5844892440574
760,700.5769476274293
761,700.5702542564129
762,700.5643612816667
763,700.5592178091912
764,700.554769967441
765,700.550961074352
766,700.5477319139607
767,700.5450211249675
768,700.542765694202
769,700.5409015388615
770,700.5393641549117
771,700.5380893059312
772,700.5370137266733
773,700.5360758179384
774,700.5352163127972
775,700.534378897627
776,700.5335107744427
777,700.5325631541176
778,700.5314916739286
779,700.5302567373712
780,700.5288237782676
781,700.5271634534824
782,700.5252517689063
783,700.5230701428644
784,700.520605411058
785,700.5178497781644
786,700.5148007229311
787,700.5114608645994
788,700.5078377977111
789,700.5039439004513
790,700.4997961204327
791,700.4954157419797
792,700.4908281397891
793,700.4860625247258
794,700.4811516884624
795,700.4761317539493
796,700.4710419368354
797,700.4659243191301
798,700.460823632894
799,700.4557870500388
800,700.4508639733602
801,700.4461058222731
802,700.4415658045721
803,700.437298664255
804,700.4333603959188
805,700.429807918063
806,700.4266986995498
807,700.424090334826
808,700.4220400649988
809,700.4206042443219
810,700.4198377545772
811,700.4197933720504
812,700.4205210935545
813,700.4220674311398
814,700.4244746907762
815,700.4277802565239
816,700.4320159052633
817,700.4372071762598
818,700.4433728154539
819,700.4505243082547
820,700.4586655085983
821,700.4677923672006
822,700.4778927585985
823,700.4889464047461
824,700.5009248924529
825,700.5137917823155
826,700.5275028075249
827,700.5420061618704
828,700.557242876622
829,700.5731472843283
830,700.5896475637848
831,700.6066663564635
832,700.6241214425947
833,700.6419264652043
834,700.6599916919356
835,700.6782248064235
836,700.696531722282
837,700.7148174125357
838,700.7329867456195
839,700.7509453169756
840,700.7686002638718
841,700.7858610503272
842,700.8026402081082
843,700.818854018416
844,700.8344231184969
845,700.8492730196829
846,700.8633345281618
847,700.8765440651254
848,700.8888438874413
849,700.9001822139209
850,700.9105132661294
851,700.9197972361171
852,700.9280001955326
853,700.9350939607368
854,700.9410559264961
855,700.9458688770065
856,700.9495207787812
857,700.9520045568245
858,700.9533178537209
859,700.9534627700882
860,700.9524455843028
861,700.9502764503351
862,700.9469690749565
863,700.9425403782064
864,700.9370101425932
865,700.9304006570057
866,700.9227363611516
867,700.9140434956574
868,700.9043497617257
869,700.8936839928144
870,700.8820758401447
871,700.8695554748155
872,700.8561533118437
873,700.8418997643919
874,700.8268250385458
875,700.810958979472
876,700.7943309781143
877,700.7769699439457
878,700.758904344772
879,700.74016231044
880,700.7207717940083
881,700.7007607814801
882,700.6801575395717
883,700.6589908899958
884,700.6372904980477
885,700.6150871630718
886,700.5924130993371
887,700.5693021981687
888,700.545790264987
889,700.5219152270748
890,700.4977173092083
891,700.4732391753163
892,700.4485260354377
893,700.4236257184606
894,700.3985887124991
895,700.3734681760043
896,700.3483199228486
897,700.3232023829064
898,700.2981765364154
899,700.273305816641
900,700.2486559719661
901,700.2242948761404
902,700.2002922744966
903,700.1767194550257
904,700.1536488368547
905,700.1311534746235
906,700.1093064844688
907,700.0881804048869
908,700.067846512916
909,700.0483741214568
910,700.0298298855266
911,700.01227714325
912,699.9957753122026
913,699.9803793550889
914,699.9661393228046
915,699.9530999788398
916,699.9413005057125
917,699.9307742903967
