acceleration,velocity,displacement
-0.013599052066786972,0.0,0.0
-0.014985861264606036,-7.146228332848252e-06,-1.786557083212063e-09
-0.01638387464838267,-1.4988662311095429e-05,-7.320279744197984e-09
-0.01779167910444859,-2.3532550749303243e-05,-1.6950583009297652e-08
-0.019207748031269182,-3.278240753323269e-05,-3.102932257993164e-08
-0.020630444698445154,-4.2741955715661277e-05,-4.991041339215513e-08
-0.022058026387863684,-5.3414073487238485e-05,-7.394942069288007e-08
-0.023488649316552427,-6.480074241334252e-05,-1.0350312466802532e-07
-0.024920374337234753,-7.690299832678931e-05,-1.3892905985305828e-07
-0.02635117340567208,-8.972088526251602e-05,-1.805850307503846e-07
-0.027778936795418895,-0.00010325341281278876,-2.288286052692108e-07
-0.02920148103448638,-0.00011749851727026508,-2.8401658778997425e-07
-0.030616557533640437,-0.0001324530269122968,-3.465044738356147e-07
-0.03202186186697371,-0.00014811263176245032,-4.166458885043015e-07
-0.03341504365145061,-0.0001644718581420564,-4.947920109804282e-07
-0.034793716959917,-0.0001815240482948983,-5.812909875896668e-07
-0.03615547119599099,-0.0001992613453338753,-6.764873359968603e-07
-0.03749788235404233,-0.00021767468372138363,-7.80721343260675e-07
-0.03881852457592521,-0.00023675378545387553,-8.943284605544899e-07
-0.04011498189782347,-0.0002564871620723127,-1.017638697436037e-06
-0.04138486006227963,-0.0002768621225623385,-1.1509760185946998e-06
-0.042625798259741415,-0.00029786478714284375,-1.2946577460209953e-06
-0.04383548066524371,-0.00031948010687409,-1.4489939695252287e-06
-0.045011647650067516,-0.0003416918889529178,-1.6142869684819807e-06
-0.046152106572671096,-0.00036448282750860245,-1.7908306475973608e-06
-0.04725474208097789,-0.0003878345396720147,-1.978909989392515e-06
-0.04831752588008835,-0.00041172760666228125,-2.178800525976089e-06
-0.04933852592863779,-0.0004361416196144628,-2.3907678325452747e-06
-0.050315915023092454,-0.00046105522985239535,-2.6150670449119894e-06
-0.05124797872198632,-0.00048644620328866506,-2.8519424031972544e-06
-0.05213312256317681,-0.0005122914786099558,-3.10162682367191e-06
-0.052969878538484,-0.000538567228885371,-3.3643415005457415e-06
-0.05375691080324103,-0.0005652489262208023,-3.6402955393222847e-06
-0.05449302060603861,-0.0005923114090731222,-3.929685623145766e-06
-0.05517715042659905,-0.0006197289518312816,-4.232695713371867e-06
-0.055808387311239605,-0.0006474753362657413,-4.5494967853961225e-06
-0.0563859653982336,-0.0006755239244431095,-4.880246600573335e-06
-0.05690926762929355,-0.0007038477326999913,-5.225089514859111e-06
-0.057377826647976096,-0.0007324195062693088,-5.584156324601436e-06
-0.05779132489122421,-0.0007612117941541089,-5.95756414970729e-06
-0.05814959388771062,-0.0007901970238488427,-6.345416354208028e-06
-0.058452612785430264,-0.0008193475755171279,-6.747802504049521e-06
-0.058700506138012254,-0.0008486358552479885,-7.1647983617408e-06
-0.0588935409834288,-0.0008780343670283488,-7.5964659173098836e-06
-0.059032123252451385,-0.0009075157830873189,-8.0428534548388e-06
-0.05911679354855565,-0.0009370530122875706,-8.503995653682522e-06
-0.059148222342542064,-0.000966619266260345,-8.9799137233195e-06
-0.05912720461948375,-0.0009961881230008515,-9.470615570634799e-06
-0.059054654004209395,-0.0010257335876567748,-9.976095998299205e-06
-0.05893159638227657,-0.0010552301502533964,-1.0496336932776747e-05
-0.05875916303363392,-0.001084652840107374,-1.103130768036694e-05
-0.05853858330496176,-0.001113977276692023,-1.1580965209566789e-05
-0.05827117685585907,-0.001143179716732228,-1.2145254457922852e-05
-0.05795834551805916,-0.0011722370973257076,-1.2724108661437335e-05
-0.05760156480833292,-0.0012011270749073056,-1.3317449704495588e-05
-0.05720237514003977,-0.0012298280598943988,-1.3925188488196013e-05
-0.05676237278708044,-0.0012583192468761787,-1.4547225314888657e-05
-0.05628320066662094,-0.001286580640239604,-1.5183450286667602e-05
-0.05576653902242817,-0.0013145930751618663,-1.583374371551797e-05
-0.055214096104712944,-0.0013423382339436516,-1.649797654279435e-05
-0.054627598948856215,-0.0013697986577070438,-1.7176010765707024e-05
-0.05400878435344796,-0.0013969577535326199,-1.786769986851694e-05
-0.05335939015293467,-0.0014237997971592155,-1.85728892561899e-05
-0.052681146875872026,-0.0014503099314164172,-1.9291416688333806e-05
-0.051975769874786325,-0.0014764741606040819,-2.002311271133893e-05
-0.05124495200354496,-0.0015022793410736648,-2.0767801086758367e-05
-0.050490356901678544,-0.0015277131682999707,-2.1525299214101776e-05
-0.049713612927018216,-0.0015527641607571449,-2.2295418546366056e-05
-0.04891630776352212,-0.00157742164092978,-2.3077964996787786e-05
-0.04809998371904437,-0.0016016757138004217,-2.3872739335470336e-05
-0.04726613371384001,-0.0016255172431586427,-2.46795375747101e-05
-0.04641619794597667,-0.0016489378260735967,-2.549815134201816e-05
-0.04555156121028375,-0.0016719297658626619,-2.6328368240002224e-05
-0.04467355084622674,-0.0016944860438767894,-2.7169972192437086e-05
-0.04378343529534417,-0.0017166002904121821,-2.802274377600933e-05
-0.042882423256022935,-0.0017382667550500238,-2.888646053737488e-05
-0.041971663426655724,-0.0017594802767206936,-2.976089729531756e-05
-0.04105224482412019,-0.0017802362537833875,-3.064582642794358e-05
-0.040125197655126996,-0.0018005306144031992,-3.1541018144990225e-05
-0.039191494709158906,-0.0018203597874942707,-3.2446240745464594e-05
-0.03825205323599823,-0.00183972067448056,-3.3361260860958304e-05
-0.037307737266842715,-0.0018586106221062703,-3.428584368510501e-05
-0.036359360335546397,-0.0018770273965068676,-3.521975318975829e-05
-0.03540768855665875,-0.0018949691587299188,-3.616275232856749e-05
-0.03445344401564841,-0.0019124344418729956,-3.7114603228718215e-05
-0.033497308417205635,-0.001929422129981209,-3.8075067371681764e-05
-0.03253992691962296,-0.0019459314388154162,-3.904390576388092e-05
-0.03158191206634661,-0.001961961898561909,-4.002087909822525e-05
-0.030623847720624528,-0.0019775133385086514,-4.100574790749289e-05
-0.029666292918421405,-0.001992585873668413,-4.1998272710537156e-05
-0.028709785570440224,-0.0020071798932906285,-4.2998214152276916e-05
-0.027754845955195707,-0.0020212960511720376,-4.400533313839258e-05
-0.026801979947554958,-0.0020349352576477255,-4.501939096559752e-05
-0.025851681926373524,-0.0020480986731162077,-4.60401494482885e-05
-0.024904437307201422,-0.0020607877029246015,-4.70673710422987e-05
-0.0239607246546457,-0.0020730039934150632,-4.810081896638362e-05
-0.023021017345696743,-0.002084749428915149,-4.914025732196617e-05
-0.022085784781373442,-0.0020960261294469167,-5.0185451211556685e-05
-0.021155493175908615,-0.002106836448936237,-5.123616685615247e-05
-0.020230605980260476,-0.0021171829737252792,-5.2292171711817854e-05
-0.01931158400987045,-0.002127068521222812,-5.3353234585554875e-05
-0.018398885343298792,-0.0021364961385611043,-5.4419125750500855e-05
-0.01749296504637896,-0.002145469101158524,-5.5489617060430764e-05
-0.01659427476578498,-0.002153990911111565,-5.656448206349829e-05
-0.015703262229609032,-0.002162065295360413,-5.7643496115116284e-05
-0.014820370686806117,-0.002169696203589517,-5.872643648985377e-05
-0.013946038309074116,-0.002176887805838487,-5.981308249221077e-05
-0.013080697571113215,-0.002183644489808534,-6.0903215566122525e-05
-0.01222477462232644,-0.002189970857856894,-6.199661940303888e-05
-0.011378688664674497,-0.002195871723678644,-6.309308004842277e-05
-0.010542851353422323,-0.0022013521086831685,-6.419238600651322e-05
-0.009717666236155326,-0.002206417238080563,-6.529432834320415e-05
-0.008903528240249798,-0.0022110725366996644,-6.639870078689921e-05
-0.008100823212269386,-0.0022153236245627942,-6.750529982721483e-05
-0.0073099275063051895,-0.002219176312242438,-6.861392481141613e-05
-0.006531207614787144,-0.002222636596022711,-6.972437803848242e-05
-0.005765019837646868,-0.0022257106528858193,-7.083646485070956e-05
-0.005011709992736497,-0.0022284048353434153,-7.194999372276687e-05
-0.00427161317641424,-0.002230725666135703,-7.306477634813665e-05
-0.003545053585905473,-0.0022326798328262828,-7.418062772287715e-05
-0.0028323444180110703,-0.002234274182327262,-7.529736622666554e-05
-0.0021337878648928646,-0.002235515715397988,-7.641481370109685e-05
-0.0014496752353642412,-0.002236411581173052,-7.753279552523961e-05
-0.0007802872339557473,-0.0022369690717903823,-7.865114068848047e-05
-0.00012589442387908833,-0.002237195617204841,-7.976968186072927e-05
0.0005132421185915816,-0.002237098780281163,-8.088825546010077e-05
0.001136869976197145,-0.0022366862522574657,-8.200670171823543e-05
0.0017447444289952103,-0.0022359658486561674,-8.312486474346383e-05
0.0023366274095578095,-0.0022349455056965293,-8.4242592582052e-05
0.0029122864265016517,-0.0022336332772375143,-8.535973727778552e-05
0.0034714935042857577,-0.0022320373322548175,-8.64761549301586e-05
0.004014024183310968,-0.002230165952832918,-8.759170575143053e-05
0.004539656618631273,-0.0022280275326324326,-8.870625412279686e-05
0.005048170806986454,-0.002225630575776028,-8.981966864989897e-05
0.005539347962009527,-0.002222983696083779,-9.093182221786393e-05
0.006012970049146397,-0.0022200956165809903,-9.204259204603012e-05
0.006468819486239464,-0.0022169751691971436,-9.315185974247466e-05
0.006906679012034378,-0.0022136312945725753,-9.425951135841708e-05
0.007326331721724436,-0.0022100730418891357,-9.536543744253251e-05
0.007727561267691535,-0.0022063095686417817,-9.646953309516523e-05
0.00811015222891942,-0.002202350140267629,-9.757169802239259e-05
0.00847389066285894,-0.0021982041295446845,-9.867183658984568e-05
0.00881856486076082,-0.0021938810156637797,-9.976985787614779e-05
0.009143966324141743,-0.002189390382867554,-0.00010086567572578062
0.009449890965298538,-0.002184741918545194,-0.0001019592088011338
0.009736140514113895,-0.002179945410675341,-0.00010305038063343894
0.01000252409599351,-0.0021750107445228143,-0.00010413911967223848
0.010248859937497422,-0.0021699478985144414,-0.0001052253593329978
0.010474977154744268,-0.002164766939241381,-0.00010630903804243676
0.010680717581348528,-0.0021594780155573578,-0.00010739009928113644
0.010865937599249295,-0.0021540913517622082,-0.00010846849162296633
0.011030509946701841,-0.0021486172398757207,-0.00010954416877087581
0.01117432548520929,-0.002143066031017743,-0.00011061708958859917
0.01129729490650556,-0.002137448125919814,-0.00011168721812783356
0.011399350357611962,-0.002131773964603785,-0.00011275452365046446
0.01148044696583297,-0.0021260540152729236,-0.00011381898064543363
0.0115405642587197,-0.0021202987624667855,-0.00011488056883986856
0.011579707489256973,-0.0021145186945297914,-0.0001159392732041177
0.01159790888508228,-0.0021087242904362065,-0.0001169950839503592
0.011595228841681012,-0.0021029260060045156,-0.00011804799652446938
0.011571757078799953,-0.0020971342595243955,-0.0001190980115908516
0.011527613777723968,-0.0020913594168102644,-0.00012014513500993526
0.011462950709587392,-0.0020856117756884365,-0.00012118937780805994
0.01137795235234149,-0.0020799015499229543,-0.00012223075613946278
0.011272836987155602,-0.00207423885258808,-0.00012326929124009054
0.01114785776966871,-0.002068633678898874,-0.0001243050093729623
0.011003303776967822,-0.002063095888512215,-0.00012533794176481508
0.010839501023764936,-0.0020576351873120317,-0.00012636812453377115
0.010656813422233466,-0.002052261108700532,-0.00012739559860777428
0.010455643643582131,-0.002046982994434078,-0.00012842040963355794
0.01023643383645797,-0.002041809975064068,-0.0001294426078759325
0.00999966616595375,-0.002036750950063465,-0.00013046224810721438
0.00974586314816496,-0.0020318145677349353,-0.00013147938948666397
0.009475587761729585,-0.0020270092050074617,-0.00013249409542984958
0.009189443318373307,-0.002022342947237436,-0.0001335064334679108
0.008888073070794117,-0.002017823568140144,-0.0001345164750967552
0.008572159528941567,-0.0020134585099902103,-0.00013552429561628778
0.008242423445221286,-0.0020092548642466697,-0.000136529973959847
0.007899622418950102,-0.0020052193527806267,-0.00013753359251410382
0.007544549065789569,-0.002001358309909442,-0.00013853523692977635
0.007178028700796634,-0.0019976776654677952,-0.00013953499592362067
0.0068009164934304195,-0.0019941829291692387,-0.00014053296107227993
0.006414094071516926,-0.001990879176528002,-0.00014152922659870426
0.0060184655823553295,-0.001987771036614534,-0.0001425238891519899
0.005614953260258818,-0.0019848626819038806,-0.0001435170475816195
0.005204492589567528,-0.001982157820441424,-0.0001445088027072058
0.004788027178947634,-0.0019796596904992953,-0.00014549925708494098
0.004366503472876401,-0.0019773710578363394,-0.00014648851477202488
0.003940865422321823,-0.00197529421561254,-0.0001474766810903871
0.0035120492240960648,-0.0019734309869509355,-0.00014846386239102797
0.003080978225115923,-0.0019717827300886324,-0.00014945016582028787
0.002648558078742103,-0.001970350346012668,-0.0001504356990893132
0.002215672232332167,-0.0019691342884348992,-0.0001514205702479251
0.001783177811928405,-0.001968134575923834,-0.00015240488746401476
0.0013519019515843976,-0.001967350805982956,-0.00015338875880949147
0.0009226385966788005,-0.00196678217084589,-0.00015437229205369867
0.00049614579772394,-0.0019664274747472894,-0.00015535559446509697
7.314350411361476e-05,-0.00196628515242183,-0.00015633877262188924
-0.000345688135929112,-0.001966353288579784,-0.00015732193223213963
-0.000759709963630195,-0.001966629638104674,-0.00015830517796381076
-0.0011683244792706792,-0.0019671116467153992,-0.00015928861328501579
-0.001570975984608397,-0.001967796471831369,-0.00016027234031465248
-0.0019671501908054183,-0.0019686810033752223,-0.00016125645968345412
-0.0023563732907147875,-0.0019697618842456025,-0.0001622410704053593
-0.002738210504713873,-0.00197103553019446,-0.00016322626975896933
-0.003112264121136228,-0.0019724981488509225,-0.00016421215317873066
-0.003478171064814403,-0.00197414575764741,-0.00016519881415535525
-0.003835600040457151,-0.001975974200423728,-0.00016618634414487302
-0.004184248310604589,-0.0019779791625114933,-0.00016717483248560684
-0.004523838175290068,-0.001980156184132967,-0.00016816436632226795
-0.004854113216246364,-0.001982500671980851,-0.0001691550305362964
-0.005174834352286129,-0.0019850079088729843,-0.00017014690768150988
-0.005485775733540635,-0.001987673061394441,-0.00017114007792407674
-0.005786720492812003,-0.001990491185451029,-0.0001721346189857881
-0.006077456378491268,-0.001993457229668855,-0.0001731306060895681
-0.006357771311487566,-0.0019965660365913497,-0.00017412811190613313
-0.006627448925413439,-0.001999812341650575,-0.00017512720650069363
-0.006886264153548103,-0.0020031907699203156,-0.00017612795727858636
-0.007133978919094492,-0.002006695830688476,-0.00017713042892873856
-0.007370337979031844,-0.0020103219099130076,-0.00017813468336388893
-0.007595064976007405,-0.0020140632606517675,-0.00017914077965653011
-0.0078078587677019515,-0.002017913991587695,-0.00018014877396958998
-0.008008390123653186,-0.0020218680538105337,-0.00018115871948093954
-0.008196298897247907,-0.002025919226065759,-0.0001821706663009086
-0.008371191785201713,-0.0020300610987363716,-0.00018318466138210913
-0.008532640773208188,-0.002034287056875974,-0.0001842007484210122
-0.008680182338449081,-0.0020385902626538885,-0.00018521896775089468
-0.008813317446987158,-0.0020429636376002474,-0.00018623935622595823
-0.008931512355867874,-0.002047399845050961,-0.00018726194709662103
-0.009034200211341076,-0.0020518912731927632,-0.00018828676987618195
-0.00912078342448014,-0.0020564300191017186,-0.00018931385019925557
-0.009190636797596068,-0.0020610078741572376,-0.0001903432096725703
-0.00924311136713429,-0.00206561631119842,-0.00019137486571890923
-0.009277538924767622,-0.0020702464737713954,-0.00019240883141515168
-0.009293237178941509,-0.002074889167797323,-0.00019344511532554386
-0.00928951551718922,-0.0020795348559713555,-0.00019448372133148604
-0.009265681316787207,-0.0020841736551798495,-0.00019552464845927383
-0.009221046728133054,-0.00208879533719108,-0.00019656789070736656
-0.009154935832508183,-0.00209338933283124,-0.00019761343687487215
-0.00906669206552638,-0.002097944739805749,-0.0001986612703930314
-0.008955685802851015,-0.002102450334272843,-0.00019971136916155106
-0.008821322018055362,-0.0021068945862280698,-0.0002007637053916763
-0.008663047932578381,-0.0021112656787157283,-0.00020181824545791225
-0.008480360577828349,-0.00211555153084333,-0.00020287494976030203
-0.008272814181800281,-0.002119739824533237,-0.00020393377259914617
-0.008040027285006197,-0.002123818034899939,-0.00020499466206400446
-0.007781689490658731,-0.002127773464093855,-0.0002060575599387529
-0.007497567762781563,-0.002131593278407215,-0.0002071224016243782
-0.00718751219717311,-0.0021352645483972035,-0.0002081891160810793
-0.00685146119671458,-0.0021387742917456753,-0.00020925762579111502
-0.00648944598542701,-0.0021421095185412105,-0.00021032784674368673
-0.00610159440183755,-0.0021452572786380265,-0.00021139968844298155
-0.005688133922351666,-0.0021482047107190738,-0.00021247305394032082
-0.00524939386989695,-0.002150939092667136,-0.00021354783989116738
-0.004785806757796446,-0.002153447892824059,-0.00021462393663754017
-0.004297908714777151,-0.0021557188216922026,-0.00021570122831616925
-0.003786338948767112,-0.0021577398836080887,-0.00021677959299249433
-0.0032518382345198787,-0.0021594994279039103,-0.00021785890282037234
-0.002695246438347444,-0.002160986199072127,-0.00021893902422711635
-0.002117499109843835,-0.0021621893854591747,-0.00022001981812324917
-0.0015196231770604138,-0.0021630986660309006,-0.0002211011401361217
-0.0009027317891024583,-0.0021637042547724412,-0.00022218284086632253
-0.00026801836475582366,-0.0021639969423109056,-0.00022326476616559335
0.00038325007878125725,-0.0021639681343823994,-0.00022434675743476668
0.0010497402351426527,-0.0021636098868039184,-0.00022542865194006325
0.0017300603737771213,-0.0021629149366516887,-0.00022651028314592714
0.00242276867991678,-0.002161876729388265,-0.00022759148106243712
0.003126381989538175,-0.0021604894417209014,-0.0002286720726052144
0.0038393848408874195,-0.002158748000013295,-0.00022975188196564794
0.0045602387683813745,-0.002156648094110978,-0.000230830730989179
0.00528739176848161,-0.002154186186476762,-0.00023190843955932594
0.00601928786308306,-0.002151359516568871,-0.00023298482598508734
0.00675437667015152,-0.002148166100435562,-0.00023405970738933843
0.007491122868822478,-0.0021446047255508187,-0.00023513290009583504
0.008228015426903235,-0.002140674940976887,-0.00023620422001246696
0.00896357644915902,-0.0021363770430078716,-0.00023727348300846314
0.009696369506062166,-0.0021317120565190664,-0.00023834050528334487
0.010425007313380787,-0.0021266817123142055,-0.00023940510372555317
0.011148158653251033,-0.0021212884208225476,-0.00024046709625883737
0.011864554458120036,-0.002115535242544705,-0.00024152630217467918
0.012572993015297337,-0.0021094258556763504,-0.00024258254244923443
0.013272344283161156,-0.002102964521351736,-0.00024363564004349145
0.013961553336295774,-0.0020961560469468714,-0.0002446854201855661
0.014639642978095824,-0.0020890057478682735,-0.00024573171063426986
0.015305715577442957,-0.0020815194082293887,-0.00024677434192329426
0.01595895419954645,-0.0020737032407851415,-0.0002478131475855479
0.0165986231084701,-0.0020655638464581374,-0.0002488479643573587
0.01722406772086581,-0.0020571081737508034,-0.0002498786323624109
0.01783471409167302,-0.0020483434782976686,-0.00025090499527542304
0.018430068018806468,-0.0020392772827700486,-0.00025192690046569
0.019009713864414503,-0.0020299173372992432,-0.0002529441991207073
0.019573313193438694,-0.00202027158053478,-0.0002539567463501658
0.020120603313209782,-0.002010348101408118,-0.0002549644012706515
0.020651395760898146,-0.002000155101639591,-0.0002559670270714134
0.021165574743563093,-0.0019897008590134754,-0.0002569644910615767
0.021663095503901164,-0.0019789936914516096,-0.000257956664699193
