frame_number,force
0,857.97616044781
1,857.8614456958622
2,857.7442109191379
3,857.6243630493891
4,857.5018350963982
5,857.3765935145312
6,857.2486451299175
7,857.1180433989889
8,856.9848937379509
9,856.849357677084
10,856.7116556310893
11,856.572068083331
12,856.430934974169
13,856.2886531371992
14,856.1456717527612
15,856.0024858945372
16,855.8596282758011
17,855.7176593267071
18,855.5771558537502
19,855.4386987521316
20,855.3028604702264
21,855.1701930598032
22,855.041217626145
23,854.9164158053269
24,854.7962235791972
25,854.6810273859819
26,854.5711622181491
27,854.4669113167698
28,854.3685071743412
29,854.2761337137097
30,854.1899295584541
31,854.1099922248252
32,854.03638295929
33,853.9691319170785
34,853.908243421524
35,853.8537011056059
36,853.8054727838138
37,853.7635149343754
38,853.7277766960636
39,853.6982032956554
40,853.6747388061492
41,853.657328100069
42,853.6459178477701
43,853.640456433257
44,853.6408926859876
45,853.6471733404939
46,853.6592391839603
47,853.6770199931091
48,853.700428576878
49,853.7293544224668
50,853.7636574879314
51,853.8031626079418
52,853.8476548913536
53,853.8968764646467
54,853.9505249178994
55,854.00825376645
56,854.0696751290657
57,854.1343646509263
58,854.2018684798729
59,854.2717118952958
60,854.3434090747725
61,854.4164734751895
62,854.4904283320071
63,854.5648167880439
64,854.6392111725131
65,854.7132210229822
66,854.7864995953355
67,854.8587487755209
68,854.92972242198
69,854.9992282470067
70,855.0671284468168
71,855.1333393992572
72,855.1978307875626
73,855.260624435937
74,855.321792983514
75,855.3814583417516
76,855.4397897549558
77,855.4970012646113
78,855.5533484367784
79,855.6091242703757
80,855.6646542280862
81,855.7202903408968
82,855.7764043343872
83,855.8333796972469
84,855.8916026130387
85,855.9514517991537
86,856.0132875441889
87,856.0774404781599
88,856.1442007027746
89,856.2138078152675
90,856.2864421849642
91,856.3622177382365
92,856.4411765266543
93,856.5232854228026
94,856.608435318805
95,856.6964431511327
96,856.7870569150676
97,856.8799635452168
98,856.9747991721015
99,857.0711609542592
100,857.1686195688437
101,857.2667315464655
102,857.3650508520452
103,857.4631393073571
104,857.5605755775359
105,857.656962556838
106,857.7519331286478
107,857.8451543993128
108,857.9363305574071
109,858.0252044936095
110,858.1115582879758
111,858.1952126829756
112,858.2760257173792
113,858.3538907693695
114,858.4287343208379
115,858.5005137747742
116,858.5692155936846
117,858.6348538971935
118,858.6974695388886
119,858.757129607648
120,858.8139272200734
121,858.8679813484114
122,858.9194362860683
123,858.9684602640428
124,859.0152427818692
125,859.0599904377077
126,859.1029213599054
127,859.144258615329
128,859.1842230974361
129,859.2230263902522
130,859.2608640450136
131,859.2979096440525
132,859.3343099457477
133,859.3701812873446
134,859.4056072931443
135,859.4406378309467
136,859.4752890958737
137,859.509544665673
138,859.5433573468279
139,859.5766516389547
140,859.6093267391337
141,859.6412601728239
142,859.6723122616681
143,859.7023316185821
144,859.7311616862613
145,859.7586480805656
146,859.7846462889647
147,859.809029187327
148,859.8316938428911
149,859.8525671181618
150,859.8716097032988
151,859.888818375066
152,859.9042264034315
153,859.9179020376977
154,859.9299449806731
155,859.9404808296952
156,859.9496536588297
157,859.9576171393409
158,859.9645247263156
159,859.970519467704
160,859.9757239934474
161,859.9802312308517
162,859.9840962980307
163,859.9873298612056
164,859.9898931515474
165,859.9916948992109
166,859.9925905122624
167,859.9923837191596
168,859.9908306218296
169,859.9876458659128
170,859.9825105719297
171,859.975081761374
172,859.9650031304876
173,859.9519170748364
174,859.9354778320137
175,859.9153655113851
176,859.8913006281035
177,859.8630585584522
178,859.8304831349238
179,859.7934984752504
180,859.7521181155967
181,859.7064505871133
182,859.6567007665765
183,859.6031666960083
184,859.5462320691762
185,859.4863550719328
186,859.4240545816617
187,859.3598948297409
188,859.2944695463847
189,859.2283864150111
190,859.1622524702236
191,859.0966609477041
192,859.032179992655
193,858.9693434726108
194,858.9086439179204
195,858.8505274058041
196,858.7953900781137
197,858.7435759452642
198,858.6953756519109
199,858.6510259453343
200,858.6107096865601
201,858.5745563525298
202,858.5426430521767
203,858.5149960890815
204,858.4915930584468
205,858.4723653999288
206,858.457201253917
207,858.4459483801533
208,858.4384168102135
209,858.434380887658
210,858.4335804854951
211,858.4357214812214
212,858.4404758884774
213,858.4474822247303
214,858.4563466506513
215,858.4666452027678
216,858.4779272294935
217,858.489720088321
218,858.5015352503555
219,858.512876022646
220,858.5232470092687
221,858.5321651824427
222,858.5391720964974
223,858.5438464667357
224,858.5458161906097
225,858.5447689830897
226,858.5404610781945
227,858.5327237852913
228,858.5214679573984
229,858.5066865596818
230,858.4884555419454
231,858.4669332015327
232,858.4423582041641
233,858.415046363035
234,858.3853861510966
235,858.3538328357924
236,858.3209011948115
237,858.2871569911437
238,858.2532076105615
239,858.2196923317691
240,858.1872725680016
241,858.1566221915592
242,858.1284178844015
243,858.1033294400276
244,858.0820100466801
245,858.0650866996448
246,858.0531509199095
247,858.0467498831616
248,858.0463779713713
249,858.0524687440522
250,858.0653873745996
251,858.0854236118897
252,858.1127852993799
253,858.1475925390264
254,858.189872784728
255,858.2395573356869
256,858.2964796728555
257,858.3603758440288
258,858.4308868530273
259,858.5075629133905
260,858.5898694649137
261,858.6771948694819
262,858.768859616561
263,858.8641267605702
264,858.9622132976093
265,859.0623022641696
266,859.1635554271835
267,859.2651264963355
268,859.3661748488508
269,859.4658798366738
270,859.5634558045136
271,859.6581678847907
272,859.7493483982712
273,859.8364133476836
274,859.9188781807293
275,859.9963718099818
276,860.0686478255943
277,860.1355919043917
278,860.1972246110539
279,860.2536991156999
280,860.3052937552438
281,860.3523997257912
282,860.3955044571522
283,860.4351714194815
284,860.4720172707333
285,860.5066873557331
286,860.5398305929082
287,860.5720747438006
288,860.6040030162754
289,860.6361329858128
290,860.6688989186059
291,860.7026385874507
292,860.7375854121279
293,860.773866233144
294,860.811504441171
295,860.8504277456468
296,860.8904796332268
297,860.9314334657676
298,860.9730081201263
299,861.0148840823817
300,861.0567190274186
301,861.0981621328964
302,861.1388666078852
303,861.1785000990338
304,861.216752802115
305,861.2533433132954
306,861.288022489901
307,861.3205757592459
308,861.3508243268434
309,861.3786256152844
310,861.4038731393493
311,861.4264959837147
312,861.4464580760869
313,861.4637574731794
314,861.478425859172
315,861.4905283984514
316,861.5001640178881
317,861.5074661307618
318,861.512603720568
319,861.5157825565096
320,861.5172461699483
321,861.5172761800097
322,861.5161916497782
323,861.5143473129341
324,861.5121306360012
325,861.5099577242225
326,861.5082680436752
327,861.5075178505941
328,861.5081721454748
329,861.5106949696182
330,861.5155379725484
331,861.5231273906849
332,861.5338498507132
333,861.5480376838899
334,861.565954633127
335,861.5877828779961
336,861.6136121516438
337,861.6434314331619
338,861.6771234383972
339,861.7144620441445
340,861.7551128316053
341,861.7986369855115
342,861.8444987582725
343,861.8920765969873
344,861.9406778176577
345,861.9895563842346
346,862.0379329683406
347,862.0850161524342
348,862.1300235201991
349,862.1722015064819
350,862.2108432050363
351,862.2453037208883
352,862.2750129434662
353,862.2994857200277
354,862.3183293807399
355,862.3312485455798
356,862.338047242169
357,862.3386285924598
358,862.3329925680958
359,862.3212324130917
360,862.3035302464302
361,862.280152182054
362,862.2514431301018
363,862.2178212827408
364,862.1797721545184
365,862.1378419867502
366,862.092630342074
367,862.0447817690383
368,861.99497649629
369,861.9439202343888
370,861.8923332798557
371,861.8409391402107
372,861.790452812536
373,861.7415687579615
374,861.694948617534
375,861.6512087825657
376,861.6109079856094
377,861.5745351045828
378,861.5424974135851
379,861.5151095869636
380,861.4925838502012
381,861.4750217529526
382,861.4624080962005
383,861.4546075554607
384,861.451364515104
385,861.452306590365
386,861.456952236368
387,861.4647226657635
388,861.4749580080065
389,861.4869373020193
390,861.4999016013153
391,861.5130792447168
392,861.5257122060384
393,861.5370823478852
394,861.5465363703958
395,861.553508299647
396,861.5575384707566
397,861.5582880200769
398,861.5555478963969
399,861.5492415092904
400,861.5394205252269
401,861.5262539486026
402,861.5100112765779
403,861.4910410249681
404,861.4697462432199
405,861.4465587931992
406,861.4219141606578
407,861.3962283733371
408,861.3698782312831
409,861.3431856054831
410,861.31640616907
411,861.2897226879447
412,861.2632428648417
413,861.237001551616
414,861.2109668556099
415,861.1850493551437
416,861.1591134366455
417,861.1329897507346
418,861.1064879340227
419,861.0794089293236
420,861.0515563529609
421,861.0227464360446
422,860.9928161876865
423,860.9616295846349
424,860.9290817300391
425,860.8951010417125
426,860.8596496400064
427,860.8227221665318
428,860.7843432439769
429,860.7445637436273
430,860.7034560549878
431,860.6611086600298
432,860.6176204187993
433,860.5730949938675
434,860.5276357861865
435,860.4813416978158
436,860.434304011274
437,860.3866046209079
438,860.3383157040225
439,860.2895007211255
440,860.2402164856866
441,860.1905159601009
442,860.1404513463127
443,860.0900769330296
444,860.0394511397374
445,859.9886373661196
446,859.9377035788256
447,859.8867208867624
448,859.8357615368752
449,859.7848967683517
450,859.7341948035477
451,859.6837189780664
452,859.6335257674558
453,859.583662430172
454,859.5341641938712
455,859.4850512318283
456,859.4363259280194
457,859.3879710021629
458,859.3399489602875
459,859.2922031370279
460,859.2446603873901
461,859.1972352982231
462,859.1498356285272
463,859.1023685546023
464,859.0547471642292
465,859.0068964887321
466,858.9587582354114
467,858.9102934116349
468,858.8614823071181
469,858.8123217682765
470,858.7628201758579
471,858.7129908661639
472,858.6628448825555
473,858.6123839467323
474,858.5615944405649
475,858.5104430111573
476,858.4588741517779
477,858.406809789186
478,858.3541506158432
479,858.300778747334
480,858.2465612798895
481,858.1913544128427
482,858.1350079266703
483,858.0773699309019
484,858.0182918735516
485,857.9576337956336
486,857.8952697501647
487,857.8310932843598
488,857.7650229585122
489,857.6970079655704
490,857.6270339073554
491,857.5551286851254
492,857.4813683806051
493,857.4058829635917
494,857.3288615674129
495,857.2505568845058
496,857.1712880634756
497,857.0914414634485
498,857.0114687485421
499,856.9318820122169
500,856.8532458647553
501,856.7761667021622
502,856.7012796751948
503,856.6292340900505
504,856.5606779968542
505,856.4962425700865
506,856.436526678166
507,856.3820819078952
508,856.3333983037512
509,856.2908911633085
510,856.2548893402545
511,856.2256256233898
512,856.2032298492043
513,856.187725375505
514,856.1790293313962
515,856.1769567253131
516,856.1812281599281
517,856.1914806188987
518,856.2072805243233
519,856.2281380283276
520,856.253521402299
521,856.2828705194283
522,856.3156087813879
523,856.3511533045998
524,856.3889235947946
525,856.4283491796734
526,856.4688767211126
527,856.5099770336242
528,856.5511522274849
529,856.5919429267947
530,856.6319353054905
531,856.6707676394884
532,856.7081361612621
533,856.7438001213535
534,856.777586064072
535,856.8093914100011
536,856.8391874572948
537,856.8670218050058
538,856.8930199944484
539,856.917385977044
540,856.9404009457569
541,856.9624201140828
542,856.9838671379111
543,857.0052260210124
544,857.0270305241119
545,857.0498512946573
546,857.074281117793
547,857.1009188336088
548,857.1303525491411
549,857.163142793552
550,857.1998062553596
551,857.2408007242368
552,857.2865118081886
553,857.3372418771467
554,857.3932015250938
555,857.4545037173478
556,857.5211607292123
557,857.5930839397279
558,857.670086453412
559,857.7518883804062
560,857.8381244832893
561,857.9283538680511
562,858.0220714447851
563,858.1187209305684
564,858.2177091442614
565,858.318421222562
566,858.4202361902687
567,858.5225421391851
568,858.6247502145003
569,858.7263066867139
570,858.8267025337793
571,858.9254801200372
572,859.0222367339198
573,859.1166249560972
574,859.2083500909903
575,859.2971651898074
576,859.3828644328686
577,859.4652757173134
578,859.5442532153265
579,859.6196705190872
580,859.6914148244106
581,859.7593824460823
582,859.823475865472
583,859.8836025135871
584,859.9396754997838
585,859.9916163991224
586,860.0393600200856
587,860.0828608876217
588,860.1221010617409
589,860.1570988596247
590,860.1879180022232
591,860.2146766048102
592,860.2375552713669
593,860.2568034205957
594,860.2727429785389
595,860.2857687708592
596,860.2963453221622
597,860.305000247504
598,860.3123148539389
599,860.3189128012028
600,860.3254476745411
601,860.3325902060369
602,860.3410157211946
603,860.3513921627152
604,860.3643687562698
605,860.3805651418145
606,860.4005606959765
607,860.4248838031905
608,860.4540009477438
609,860.4883056876445
610,860.5281078164984
611,860.5736232572208
612,860.6249653919944
613,860.6821385702672
614,860.745034427732
615,860.8134314022566
616,860.8869974948431
617,860.9652959887144
618,861.047793625146
619,861.1338706995941
620,861.2228326388912
621,861.3139227506954
622,861.4063359212216
623,861.4992330508463
624,861.5917559861296
625,861.6830426602019
626,861.772242077733
627,861.8585286767028
628,861.9411155459012
629,862.0192660456393
630,862.0923035211097
631,862.1596189021118
632,862.220676018957
633,862.2750145244222
634,862.3222505052978
635,862.3620751705031
636,862.3942522403727
637,862.418614682689
638,862.4350612899988
639,862.4435534455342
640,862.4441123616963
641,862.4368170012259
642,862.4218027252527
643,862.3992605442602
644,862.3694368105283
645,862.3326332582359
646,862.2892073154721
647,862.2395724733283
648,862.1841982423766
649,862.1236090173973
650,862.0583811599759
651,861.989137812345
652,861.9165412597032
653,861.8412829282294
654,861.7640712715822
655,861.6856178672678
656,861.6066220882639
657,861.527754823978
658,861.4496419228134
659,861.3728482361107
660,861.2978632363622
661,861.2250891178282
662,861.1548321516914
663,861.0872979636779
664,861.0225913035459
665,860.9607206675493
666,860.9016077788344
667,860.8451015168511
668,860.7909955280943
669,860.7390484715369
670,860.6890055957948
671,860.6406201045781
672,860.5936726734022
673,860.5479876639903
674,860.5034449747507
675,860.4599868694263
676,860.4176194651367
677,860.3764089325551
678,860.3364729452533
679,860.2979684257741
680,860.2610769821185
681,860.2259894922055
682,860.1928911087113
683,860.1619476286581
684,860.1332937927389
685,860.1070237288538
686,860.0831835269505
687,860.0617658899923
688,860.0427068952097
689,860.0258849781413
690,860.0111222397359
691,859.9981881230593
692,859.9868054683903
693,859.9766588954416
694,859.9674053202419
695,859.9586862193286
696,859.9501410744884
697,859.9414212853093
698,859.932203719566
699,859.9222030245521
700,859.9111819092441
701,859.8989588431253
702,859.8854129413318
703,859.8704861183512
704,859.8541828312058
705,859.8365678805457
706,859.8177627690502
707,859.7979410214305
708,859.7773227198528
709,859.7561683885452
710,859.7347722642737
711,859.7134548691454
712,859.6925546972244
713,859.6724188330646
714,859.6533924718839
715,859.6358075514255
716,859.6199709500806
717,859.6061528702064
718,859.59457604365
719,859.5854062942426
720,859.5787448800479
721,859.5746229572669
722,859.5729983906746
723,859.5737549621025
724,859.5767038752025
725,859.5815873911027
726,859.5880844674823
727,859.5958183555967
728,859.6043661248285
729,859.6132699962649
730,859.622050280609
731,859.6302197288795
732,859.637299178381
733,859.6428343981117
734,859.6464139253086
735,859.6476874333367
736,859.6463838440991
737,859.6423280816394
738,859.635455149405
739,859.6258202039774
740,859.6136035428763
741,859.5991098502049
742,859.5827615191038
743,859.5650863330573
744,859.5467002457606
745,859.5282864037755
746,859.5105717825157
747,859.4943027897642
748,859.480221030994
749,859.469040290265
750,859.461425693576
751,859.4579758737307
752,859.459208669554
753,859.4655505431473
754,859.4773296123989
755,859.4947720094215
756,859.5180011440813
757,859.5470393523532
758,859.581811394544
759,859.6221493871409
760,859.667798935982
761,859.7184263478547
762,859.7736267888946
763,859.8329332228008
764,859.8958259826791
765,859.96174288291
766,860.0300897906781
767,860.1002515109985
768,860.1716026959751
769,860.2435183166891
770,860.3153831253908
771,860.3865995756936
772,860.4565939052563
773,860.5248204868919
774,860.5907649856689
775,860.6539471400645
776,860.7139239958187
777,860.7702941720053
778,860.8227033583876
779,860.8708508915629
780,860.9144970127363
781,860.9534702273133
782,860.9876739918553
783,861.0170917875096
784,861.0417896462818
785,861.061915458159
786,861.07769482994
787,861.0894237306379
788,861.097458486817
789,861.1022038144449
790,861.1040995593576
791,861.1036067879654
792,861.101193872751
793,861.0973232345315
794,861.0924394086912
795,861.0869590489154
796,861.0812632989704
797,861.0756926416848
798,861.0705439894946
799,861.0660695785683
800,861.0624772405763
801,861.0599317603351
802,861.0585571131585
803,861.0584393412662
804,861.0596297667229
805,861.0621482739025
806,861.065986541046
807,861.0711112655086
808,861.0774675077972
809,861.0849822407745
810,861.093568078803
811,861.1031270539003
812,861.1135542439848
813,861.1247410325711
814,861.1365777724002
815,861.148955638045
816,861.1617674750689
817,861.1749074709023
818,861.1882695178405
819,861.2017442760592
820,861.2152151812926
821,861.2285538880832
822,861.2416157650994
823,861.2542359988145
824,861.2662266830828
825,861.2773751117057
826,861.287443413774
827,861.2961696240495
828,861.3032701866404
829,861.3084437493526
830,861.3113759876887
831,861.3117451578726
832,861.3092281008412
833,861.3035064490797
834,861.2942728132736
835,861.281236785413
836,861.2641307128212
837,861.2427153318778
838,861.2167854129375
839,861.1861755042465
840,861.1507657174617
841,861.1104873721573
842,861.0653282671885
843,861.0153373595199
844,860.9606286727463
845,860.9013842980164
846,860.8378563527797
847,860.7703677016815
848,860.6993111439963
849,860.6251467038841
850,860.5483966818018
851,860.469638243382
852,860.389493505439
853,860.3086173000606
854,860.2276830392367
855,860.1473673290103
856,860.0683341329967
857,859.9912193114997
858,859.9166162780294
859,859.8450633787971
860,859.77703343386
861,859.7129256613281
862,859.6530599737592
863,859.5976734911524
864,859.5469191196041
865,859.500866147818
866,859.4595028933567
867,859.4227413925081
868,859.3904239745599
869,859.3623313791526
870,859.3381919508274
871,859.3176914069641
872,859.30048271915
873,859.2861957524858
874,859.2744464057498
875,859.2648450218069
876,859.2570038277324
877,859.2505432156031
878,859.2450968097244
879,859.2403154176733
880,859.235870079888
881,859.2314545112808
882,859.2267872416654
883,859.2216136556865
884,859.2157079390399
885,859.2088748089313
886,859.2009509599847
887,859.1918063307286
888,859.1813454293317
889,859.1695089620548
890,859.1562759097723
891,859.1416660582408
892,859.1257428319072
893,859.1086160933057
894,859.0904443648965
895,859.0714358149743
896,859.0518474399213
897,859.0319821359625
898,859.0121836226532
899,858.9928293642653
900,858.9743217532409
901,858.9570778719916
902,858.9415181144532
903,858.9280538962932
904,858.9170747282669
905,858.9089350866143
906,858.903941679661
907,858.9023417591471
908,858.9043130422864
909,858.9099557068009
910,858.9192869193527
911,858.932238448324
912,858.94865795049
913,858.9683143927822
914,858.9909078083721
915,859.0160832843595
916,859.0434487487358
917,859.0725957340306
