frame_number,force
0,857.6651697528856
1,857.5462124257276
2,857.4269369710798
3,857.3074534611355
4,857.1878774575844
5,857.0683297706307
6,856.9489361847689
7,856.8298271519648
8,856.7111374530565
9,856.593005828421
10,856.4755745792326
11,856.3589891408461
12,856.2433976300172
13,856.128950367941
14,856.0157993814887
15,855.904097885363
16,855.7939997480788
17,855.6856589448312
18,855.5792290006224
19,855.4748624274952
20,855.3727101601804
21,855.2729209947422
22,855.1756410347656
23,855.0810131492597
24,854.9891764458188
25,854.9002657618621
26,854.8144111761891
27,854.731737542822
28,854.6523640491648
29,854.5764038006423
30,854.5039634339048
31,854.4351427603458
32,854.3700344412854
33,854.3087236959157
34,854.2512880429671
35,854.1977970769457
36,854.1483122796476
37,854.1028868674797
38,854.0615656749252
39,854.0243850742756
40,853.9913729314849
41,853.962548597702
42,853.93792293578
43,853.9174983808733
44,853.90126903407
45,853.8892207878134
46,853.8813314817602
47,853.8775710877844
48,853.8779019230627
49,853.8822788903346
50,853.8906497443684
51,853.9029553833803
52,853.9191301638716
53,853.9391022371962
54,853.9627939060906
55,853.9901219992474
56,854.0209982617571
57,854.0553297588975
58,854.093019290335
59,854.133965811427
60,854.178064858143
61,854.2252089721549
62,854.2752881227756
63,854.3281901225324
64,854.3838010332934
65,854.4420055601297
66,854.5026874305261
67,854.5657297570222
68,854.6310153817608
69,854.6984272017479
70,854.767848474015
71,854.839163100273
72,854.9122558909273
73,854.987012808397
74,855.0633211895914
75,855.1410699472646
76,855.220149749934
77,855.3004531802029
78,855.3818748716101
79,855.4643116244043
80,855.5476625008384
81,855.6318289007274
82,855.7167146181299
83,855.8022258800585
84,855.8882713682101
85,855.9747622249927
86,856.0616120456231
87,856.1487368585429
88,856.2360550965734
89,856.3234875610406
90,856.4109573807493
91,856.4983899674481
92,856.5857129693944
93,856.67285622469
94,856.7597517160257
95,856.8463335282875
96,856.932537810081
97,857.0183027396038
98,857.1035684945107
99,857.1882772247478
100,857.2723730270102
101,857.3558019195792
102,857.438511816603
103,857.5204525011624
104,857.6015755966256
105,857.6818345359435
106,857.7611845287444
107,857.8395825262752
108,857.9169871843065
109,857.9933588240691
110,858.0686593912294
111,858.1428524129407
112,858.2159029531159
113,858.2877775662319
114,858.3584442501162
115,858.4278723982424
116,858.4960327519801
117,858.5628973530555
118,858.6284394963002
119,858.6926336826853
120,858.7554555725376
121,858.8168819386603
122,858.876890618863
123,858.9354604672851
124,858.992571304036
125,859.0482038631068
126,859.1023397391338
127,859.1549613341151
128,859.2060518054319
129,859.2555950165233
130,859.3035754914544
131,859.3499783744945
132,859.3947893956599
133,859.4379948429331
134,859.4795815416093
135,859.5195368409863
136,859.5578486084589
137,859.5945052309653
138,859.6294956236396
139,859.6628092454828
140,859.6944361219822
141,859.7243668748584
142,859.7525927592839
143,859.7791057088241
144,859.8038983879721
145,859.8269642516178
146,859.8482976103506
147,859.8678937002804
148,859.8857487560169
149,859.9018600854915
150,859.9162261454675
151,859.9288466168557
152,859.9397224791463
153,859.948856083251
154,859.9562512219753
155,859.9619131974428
156,859.9658488851294
157,859.9680667945579
158,859.9685771269194
159,859.9673918299337
160,859.9645246502488
161,859.9599911836494
162,859.9538089231734
163,859.9459973049256
164,859.9365777512286
165,859.9255737108676
166,859.913010696349
167,859.8989163179132
168,859.8833203135817
169,859.8662545741214
170,859.8477531617449
171,859.827852321604
172,859.8065904854199
173,859.7840082667757
174,859.7601484476234
175,859.7350559554731
176,859.7087778305687
177,859.6813631820925
178,859.6528631321991
179,859.6233307465742
180,859.5928209502908
181,859.5613904279892
182,859.5290975078815
183,859.4960020298689
184,859.4621651990955
185,859.4276494272672
186,859.3925181647331
187,859.3568357265857
188,859.3206671159342
189,859.2840778471935
190,859.2471337718914
191,859.209900909271
192,859.1724452837569
193,859.1348327710168
194,859.0971289538843
195,859.0593989889481
196,859.0217074842814
197,858.9841183886039
198,858.9466948920842
199,858.909499338965
200,858.8725931522221
201,858.8360367705018
202,858.7998895975517
203,858.764209964194
204,858.7290551026339
205,858.6944811325887
206,858.6605430584164
207,858.6272947760823
208,858.5947890884866
209,858.5630777274799
210,858.5322113810167
211,858.502239724299
212,858.4732114542512
213,858.4451743269095
214,858.418175197159
215,858.3922600598152
216,858.3674740906321
217,858.3438616857266
218,858.3214664980959
219,858.3003314700794
220,858.280498860522
221,858.2620102650409
222,858.244906627294
223,858.2292282387227
224,858.2150147241401
225,858.2023050108972
226,858.191137280078
227,858.1815488990095
228,858.1735763350994
229,858.167255051486
230,858.1626193852568
231,858.1597024091982
232,858.1585357782441
233,858.1591495618973
234,858.1615720638925
235,858.1658296304199
236,858.1719464485494
237,858.1799443370784
238,858.1898425325935
239,858.2016574737872
240,858.2154025869308
241,858.231088075059
242,858.2487207131535
243,858.2683036515913
244,858.2898362302981
245,858.3133138062126
246,858.3387275966379
247,858.3660645408097
248,858.3953071816994
249,858.4264335698679
250,858.4594171910815
251,858.4942269192105
252,858.5308269956383
253,858.5691770362546
254,858.6092320671993
255,858.6509425905884
256,858.694254681112
257,858.739110113671
258,858.7854465214688
259,858.8331975835151
260,858.8822932402986
261,858.9326599361564
262,858.9842208864685
263,859.0368963673818
264,859.0906040255378
265,859.1452592052461
266,859.2007752905532
267,859.2570640596532
268,859.3140360491082
269,859.371600925434
270,859.4296678616901
271,859.4881459166015
272,859.5469444133389
273,859.6059733145133
274,859.6651435894651
275,859.7243675696857
276,859.7835592882614
277,859.8426347995027
278,859.9015124754577
279,859.9601132767932
280,860.0183609964697
281,860.0761824755002
282,860.1335077907697
283,860.1902704154619
284,860.2464073531296
285,860.3018592468225
286,860.3565704649124
287,860.4104891653508
288,860.4635673401659
289,860.5157608422114
290,860.5670293964898
291,860.617336598498
292,860.6666499016637
293,860.7149405950612
294,860.7621837715848
295,860.8083582860095
296,860.853446701989
297,860.8974352268989
298,860.9403136333796
299,860.9820751664846
300,861.0227164355844
301,861.0622372906034
302,861.1006406826205
303,861.1379325092181
304,861.1741214453021
305,861.2092187605123
306,861.2432381248087
307,861.2761954041605
308,861.3081084483118
309,861.3389968724113
310,861.3688818340888
311,861.3977858075219
312,861.4257323561097
313,861.4527459054461
314,861.4788515182743
315,861.5040746730156
316,861.5284410473564
317,861.5519763082673
318,861.5747059096532
319,861.5966548985543
320,861.6178477305316
321,861.6383080947633
322,861.658058749509
323,861.6771213688316
324,861.6955164016281
325,861.713262944014
326,861.7303786259466
327,861.7468795127041
328,861.7627800215746
329,861.7780928539731
330,861.7928289432526
331,861.8069974187007
332,861.820605586545
333,861.833658929106
334,861.8461611234102
335,861.8581140804569
336,861.8695180058637
337,861.8803714818775
338,861.8906715700659
339,861.9004139336602
340,861.9095929784387
341,861.9182020109712
342,861.9262334128457
343,861.9336788291733
344,861.9405293691626
345,861.9467758158722
346,861.9524088414923
347,861.9574192238985
348,861.9617980600019
349,861.9655369716905
350,861.9686283008111
351,861.9710652904512
352,861.9728422504262
353,861.9739547052119
354,861.9743995226739
355,861.9741750220974
356,861.9732810604072
357,861.9717190961157
358,861.9694922312158
359,861.9666052316628
360,861.9630645271853
361,861.958878191085
362,861.9540559006206
363,861.9486088785164
364,861.9425498161196
365,861.9358927788422
366,861.928653094759
367,861.9208472275137
368,861.9124926349964
369,861.9036076156123
370,861.8942111442908
371,861.8843227005126
372,861.8739620905285
373,861.8631492658105
374,861.851904139774
375,861.8402464049103
376,861.8281953525083
377,861.8157696971085
378,861.8029874078064
379,861.7898655485213
380,861.776420129366
381,861.7626659712332
382,861.7486165856452
383,861.7342840717422
384,861.7196790320428
385,861.7048105083436
386,861.6896859387828
387,861.674311136578
388,861.6586902902301
389,861.6428259841829
390,861.626719238193
391,861.6103695631018
392,861.5937750303178
393,861.5769323520483
394,861.559836969166
395,861.5424831436311
396,861.5248640525408
397,861.5069718809618
398,861.4887979106824
399,861.4703326022235
400,861.4515656681968
401,861.432486137285
402,861.413082409365
403,861.3933423032905
404,861.3732530994952
405,861.3528015799334
406,861.3319740679317
407,861.3107564702289
408,861.2891343228687
409,861.2670928418443
410,861.2446169787338
411,861.2216914811872
412,861.1983009579357
413,861.1744299477164
414,861.1500629910237
415,861.1251847030702
416,861.0997798460164
417,861.0738333985399
418,861.0473306211355
419,861.0202571159219
420,860.9925988799887
421,860.9643423514995
422,860.9354744480333
423,860.9059825969758
424,860.8758547580663
425,860.8450794384687
426,860.8136457009701
427,860.7815431660657
428,860.748762008686
429,860.7152929502749
430,860.6811272470113
431,860.6462566751918
432,860.6106735150133
433,860.5743705340476
434,860.5373409716165
435,860.49957852518
436,860.4610773398092
437,860.4218320017097
438,860.381837536487
439,860.3410894124631
440,860.2995835490619
441,860.2573163301009
442,860.2142846216374
443,860.1704857937779
444,860.1259177457857
445,860.0805789340831
446,860.0344684032877
447,859.9875858209632
448,859.939931517029
449,859.8915065287304
450,859.8423126517022
451,859.7923524970845
452,859.7416295541212
453,859.690148257535
454,859.6379140592747
455,859.5849335047492
456,859.5312143140507
457,859.4767654687331
458,859.4215973044433
459,859.365721609266
460,859.309151727195
461,859.2519026657353
462,859.1939912062874
463,859.1354360156679
464,859.0762577568357
465,859.016479196566
466,858.956125307552
467,858.8952233624467
468,858.8338030178463
469,858.7718963870772
470,858.7095381015263
471,858.6467653608762
472,858.5836179728943
473,858.5201383834603
474,858.4563716973689
475,858.3923656901636
476,858.328170810833
477,858.2638401746677
478,858.1994295451154
479,858.1349973032566
480,858.0706044036069
481,858.006314315218
482,857.9421929473835
483,857.8783085596061
484,857.8147316557381
485,857.7515348623282
486,857.6887927912179
487,857.6265818865307
488,857.5649802564741
489,857.5040674906852
490,857.4439244639786
491,857.3846331273115
492,857.3262762867682
493,857.2689373714289
494,857.212700190931
495,857.1576486833029
496,857.1038666534444
497,857.051437502666
498,857.0004439500201
499,856.9509677465974
500,856.9030893844579
501,856.8568878024212
502,856.8124400914966
503,856.7698212031196
504,856.7291036633654
505,856.6903572959767
506,856.6536489565857
507,856.6190422801697
508,856.5865974436514
509,856.5563709455765
510,856.528415404852
511,856.5027793805839
512,856.4795072150441
513,856.4586389015575
514,856.4402099785227
515,856.4242514499771
516,856.4107897323086
517,856.3998466260116
518,856.3914393107132
519,856.3855803610912
520,856.3822777809664
521,856.3815350529512
522,856.3833512015642
523,856.3877208684722
524,856.3946343991936
525,856.4040779409731
526,856.4160335515895
527,856.4304793186539
528,856.4473894885701
529,856.4667346038475
530,856.4884816471094
531,856.512594190114
532,856.5390325463349
533,856.567753925953
534,856.5987125923969
535,856.6318600198334
536,856.6671450511634
537,856.7045140559933
538,856.7439110877959
539,856.7852780392435
540,856.8285547946846
541,856.8736793789342
542,856.9205881018503
543,856.9692156985283
544,857.0194954653529
545,857.0713593925703
546,857.1247382944251
547,857.1795619381949
548,857.2357591736179
549,857.2932580642283
550,857.3519860220629
551,857.4118699471178
552,857.4728363727676
553,857.5348116180494
554,857.5977219473184
555,857.6614937374312
556,857.7260536523771
557,857.7913288250635
558,857.8572470456546
559,857.9237369554611
560,857.9907282450106
561,858.0581518547405
562,858.1259401767134
563,858.1940272557257
564,858.2623489880365
565,858.3308433156315
566,858.3994504135034
567,858.4681128670521
568,858.5367758365757
569,858.605387205956
570,858.6738977129363
571,858.7422610587176
572,858.8104339949914
573,858.8783763869892
574,858.9460512517234
575,859.0134247712608
576,859.0804662814609
577,859.1471482369146
578,859.2134461528584
579,859.279338524751
580,859.3448067261108
581,859.4098348851342
582,859.4744097406738
583,859.5385204783968
584,859.6021585481915
585,859.6653174639529
586,859.7279925867659
587,859.7901808923999
588,859.8518807240421
589,859.9130915313324
590,859.9738135968855
591,860.0340477515005
592,860.0937950791483
593,860.1530566127528
594,860.2118330219388
595,860.2701242944111
596,860.3279294134137
597,860.3852460346739
598,860.4420701670732
599,860.4983958617238
600,860.5542149141122
601,860.6095165837035
602,860.6642873350097
603,860.7185106035919
604,860.772166589773
605,860.8252320822044
606,860.8776803130243
607,860.9294808461532
608,860.9805995002023
609,861.0309983075107
610,861.080635510953
611,861.1294656002524
612,861.1774393894644
613,861.2245041369954
614,861.2706037089381
615,861.3156787856709
616,861.3596671106608
617,861.4025037794237
618,861.4441215658364
619,861.4844512825861
620,861.5234221723954
621,861.5609623266071
622,861.5969991275902
623,861.6314597112182
624,861.6642714454052
625,861.6953624204285
626,861.7246619464968
627,861.75210105374
628,861.7776129896481
629,861.8011337091024
630,861.8226023524411
631,861.8419617072626
632,861.8591586498484
633,861.8741445623513
634,861.8868757224344
635,861.8973136628231
636,861.9054254989223
637,861.9111842229642
638,861.9145689631677
639,861.9155652064487
640,861.9141649834276
641,861.9103670147017
642,861.9041768173993
643,861.8956067710837
644,861.8846761423741
645,861.8714110681334
646,861.8558444974669
647,861.8380160928643
648,861.8179720906786
649,861.7957651210709
650,861.7714539878247
651,861.7451034090863
652,861.7167837209045
653,861.6865705461623
654,861.6545444320005
655,861.6207904591263
656,861.585397826622
657,861.548459416175
658,861.5100713400899
659,861.4703324778803
660,861.4293440064155
661,861.387208928474
662,861.3440316042585
663,861.2999172901702
664,861.2549716888732
665,861.2093005141792
666,861.1630090735019
667,861.1162018697182
668,861.0689822234524
669,861.0214519161156
670,860.973710853379
671,860.925856748131
672,860.8779848216014
673,860.8301875214828
674,860.7825542564018
675,860.7351711466433
676,860.6881207914585
677,860.6414820537784
678,860.595329863854
679,860.5497350440969
680,860.5047641578441
681,860.4604793847033
682,860.4169384246185
683,860.37419443201
684,860.3322959804791
685,860.2912870577575
686,860.2512070900053
687,860.2120909943403
688,860.1739692585045
689,860.1368680465963
690,860.1008093296526
691,860.065811039667
692,860.0318872454677
693,859.9990483486933
694,859.9673012977805
695,859.9366498174734
696,859.9070946509984
697,859.8786338117677
698,859.8512628412556
699,859.8249750696186
700,859.799761875824
701,859.7756129445229
702,859.7525165175642
703,859.7304596386809
704,859.7094283904015
705,859.6894081225948
706,859.6703836722039
707,859.6523395736446
708,859.6352602591651
709,859.6191302483452
710,859.6039343258325
711,859.5896577062919
712,859.5762861854498
713,859.5638062762209
714,859.5522053292739
715,859.5414716379229
716,859.5315945277648
717,859.5225644318592
718,859.5143729523522
719,859.5070129093248
720,859.5004783774998
721,859.494764711353
722,859.4898685590133
723,859.4857878650739
724,859.4825218622079
725,859.4800710514234
726,859.478437170919
727,859.4776231537168
728,859.4776330743385
729,859.4784720847097
730,859.480146339382
731,859.4826629102799
732,859.4860296913957
733,859.4902552939938
734,859.4953489327737
735,859.5013203030799
736,859.5081794487429
737,859.5159366196611
738,859.5246021179371
739,859.5341861314649
740,859.5446985544119
741,859.5561487949046
742,859.5685455711863
743,859.5818966984249
744,859.5962088692442
745,859.6114874318212
746,859.6277361698214
747,859.6449570884004
748,859.6631502101687
749,859.6823133847029
750,859.7024421149374
751,859.7235294034037
752,859.7455656206232
753,859.7685383971715
754,859.7924325402386
755,859.8172299749813
756,859.8429097105274
757,859.8694478300979
758,859.8968175044733
759,859.9249890280252
760,859.9539298766531
761,859.9836047869491
762,860.0139758556761
763,860.0450026583794
764,860.0766423857883
765,860.1088499965824
766,860.141578384955
767,860.1747785611423
768,860.2083998426959
769,860.2423900538597
770,860.2766957301285
771,860.3112623250925
772,860.3460344170779
773,860.380955913839
774,860.4159702543782
775,860.4510206075429
776,860.4860500671361
777,860.5210018429241
778,860.5558194463355
779,860.5904468691416
780,860.6248287531084
781,860.6589105484483
782,860.6926386587179
783,860.7259605696994
784,860.758824960008
785,860.7911817918585
786,860.8229823814399
787,860.8541794494031
788,860.884727152768
789,860.9145810999685
790,860.9436983509011
791,860.97203740395
792,860.9995581721117
793,861.0262219505031
794,861.0519913776568
795,861.0768303930026
796,861.1007041926608
797,861.1235791851332
798,861.1454229478709
799,861.1662041853284
800,861.1858926891246
801,861.2044593011468
802,861.221875880542
803,861.2381152754077
804,861.2531512997916
805,861.2669587165828
806,861.2795132270312
807,861.2907914678138
808,861.3007710165856
809,861.3094304067354
810,861.3167491517188
811,861.3227077789882
812,861.3272878732726
813,861.3304721287595
814,861.3322444095622
815,861.3325898177296
816,861.3314947679502
817,861.3289470679914
818,861.3249360038667
819,861.3194524288467
820,861.3124888557552
821,861.3040395523341
822,861.2941006396042
823,861.2826701929533
824,861.2697483452889
825,861.255337391241
826,861.2394418912288
827,861.2220687740934
828,861.2032274368228
829,861.1829298396541
830,861.161190594651
831,861.138027045832
832,861.1134593390384
833,861.0875104798705
834,861.0602063781731
835,861.0315758777774
836,861.001650770562
837,860.9704657942908
838,860.9380586139627
839,860.9044697864623
840,860.8697427082136
841,860.8339235454916
842,860.7970611471524
843,860.7592069397534
844,860.7204148053098
845,860.6807409421923
846,860.640243709867
847,860.5989834582341
848,860.5570223423068
849,860.514424122995
850,860.4712539549344
851,860.4275781626378
852,860.38346400668
853,860.3389794421113
854,860.2941928717933
855,860.2491728977982
856,860.2039880742931
857,860.1587066653595
858,860.1133964109979
859,860.0681243042447
860,860.0229563819282
861,859.9779575310741
862,859.9331913124091
863,859.8887198019911
864,859.844603451834
865,859.8009009704047
866,859.7576692238221
867,859.7149631583246
868,859.6728357440792
869,859.6313379398671
870,859.5905186777477
871,859.5504248665292
872,859.5111014127624
873,859.4725912579833
874,859.4349354309358
875,859.3981731133985
876,859.3623417180714
877,859.3274769769496
878,859.2936130387441
879,859.260782574105
880,859.2290168875367
881,859.1983460349925
882,859.1687989461261
883,859.1404035499658
884,859.1131869024231
885,859.0871753138327
886,859.0623944748578
887,859.0388695794713
888,859.0166254440396
889,858.9956866216254
890,858.9760775105435
891,858.9578224560479
892,858.940945843853
893,858.9254721839657
894,858.9114261830487
895,858.8988328034512
896,858.8877173073331
897,858.8781052849176
898,858.8700226665302
899,858.8634957185333
900,858.8585510236018
901,858.8552154459843
902,858.8535160824292
903,858.8534801994479
904,858.8551351577505
905,858.8585083250555
906,858.8636269788407
907,858.870518200747
908,858.8792087642365
909,858.8897250169531
910,858.9020927592574
911,858.9163371206007
912,858.9324824354902
913,858.9505521205772
914,858.9705685539304
915,858.9925529570105
916,859.0165252792656
917,859.042504084561
