acceleration,velocity,displacement
-0.014895363946458712,0.0,0.0
-0.01625393545607812,-7.787324850634208e-06,-1.946831212658552e-09
-0.01761614019243248,-1.625484376276186e-05,-7.957373366007568e-09
-0.018980721058145255,-2.5404059075406292e-05,-1.8372099075549604e-08
-0.020346358262151674,-3.523582890548053e-05,-3.353207107077131e-08
-0.021711672071858455,-4.575033648898306e-05,-5.3778612419387205e-08
-0.023075225944979454,-5.694706099319254e-05,-7.94529617899311e-08
-0.024435530033604894,-6.882474998783863e-05,-1.108959145351889e-07
-0.025791045051237624,-8.138139375904926e-05,-1.4844745047191085e-07
-0.027140186490822803,-9.461420164456437e-05,-1.9244634932281426e-07
-0.02848132917864355,-0.00010851958056193095,-2.432297948744381e-07
-0.02981281214655578,-0.00012309311589323078,-3.0113296898822854e-07
-0.031132943803044953,-0.00013832955488063097,-3.66488636681694e-07
-0.03244000738043897,-0.00015422279267650194,-4.3962672357097723e-07
-0.03373226663110733,-0.0001707658611793885,-5.208738870349498e-07
-0.035007971741598344,-0.00018795092077256493,-6.105530825229382e-07
-0.03626536543149293,-0.00020576925506583774,-7.089831264825389e-07
-0.03750268920201856,-0.0002242112687242156,-8.164782574300522e-07
-0.03871818969590187,-0.00024326648844869573,-9.333476967232801e-07
-0.03991012512455519,-0.00026292356715381,-1.0598952106239065e-06
-0.04107677171334042,-0.0002831702913632839,-1.19641867525318e-06
-0.042216430112605015,-0.00030399359181977023,-1.3432096460489436e-06
-0.04332743172258873,-0.00032537955727856866,-1.5005529333235284e-06
-0.04440814488453109,-0.00034731345143034864,-1.6687261855007576e-06
-0.04545698089752728,-0.0003697797328758632,-1.8479994815773106e-06
-0.046472399828904186,-0.0003927620780574711,-2.0386349343106444e-06
-0.047452916092579914,-0.0004162434070378421,-2.240886305584473e-06
-0.04839710377288655,-0.0004402059120042087,-2.4549986353449855e-06
-0.04930360167069818,-0.00046463108836510486,-2.6812078854373138e-06
-0.050171118047121016,-0.0004894997682945597,-2.91974059960223e-06
-0.05099843504095016,-0.0005147921565665775,-3.170813580817514e-06
-0.05178441273993444,-0.0005404878685117987,-3.434633587087108e-06
-0.05252799289039459,-0.0005665659699193809,-3.711397046694903e-06
-0.053228202232682376,-0.0005930050187001501,-4.001289793849786e-06
-0.053884155451521046,-0.000619783108121201,-4.304486825555123e-06
-0.054495057731525534,-0.0006468779114169626,-4.621152080439664e-06
-0.055060206909834444,-0.0006742667275773026,-4.9514382401882306e-06
-0.05557899521980706,-0.000701926528109713,-5.295486554109984e-06
-0.056050910621926825,-0.0007298340045701465,-5.653426687279949e-06
-0.05647553772051404,-0.0007579656166557567,-6.025376592586425e-06
-0.0568525582679046,-0.0007862976406528614,-6.41144240691358e-06
-0.05718175126113902,-0.0008148062180351224,-6.811718371585576e-06
-0.05746299263923498,-0.0008434674040102159,-7.22628677709691e-06
-0.05769625459110969,-0.0008722572158178021,-7.655217932053916e-06
-0.05788160448624667,-0.0009011516805871412,-8.09857015615515e-06
-0.05801920344228764,-0.0009301268825692748,-8.556389796944255e-06
-0.05810930454503924,-0.0009591590095661065,-9.0287112699781e-06
-0.058152250735594886,-0.000988224398386265,-9.515557121966193e-06
-0.05814847237676087,-0.0010172995791643538,-1.0016938116353848e-05
-0.05809848450912575,-0.0010463613183858255,-1.0532853340741392e-05
-0.05800288380784946,-0.0010753866604650694,-1.1063290335454116e-05
-0.057862345254469906,-0.0011043529677306492,-1.1608225242503046e-05
-0.05767761854124742,-0.0011332379586795785,-1.2167622974105603e-05
-0.057449524227338275,-0.0011620197443717249,-1.274143739986843e-05
-0.057178949666985855,-0.001190676862845306,-1.3329611551672688e-05
-0.05686684473164355,-0.0012191883114449633,-1.3932077845245256e-05
-0.05651421735087239,-0.0012475335769655924,-1.4548758317347894e-05
-0.05612212890080002,-0.0012756926635285105,-1.517956487747142e-05
-0.055691689473670085,-0.001303646118122128,-1.582439957288408e-05
-0.055224053066271636,-0.0013313750537571134,-1.648315486585389e-05
-0.05472041272707479,-0.00135886117020545,-1.715571392184453e-05
-0.054181995701408456,-0.0013860867723125708,-1.7841950907474036e-05
-0.05361005861265124,-0.0014130347858910858,-1.854173129702495e-05
-0.05300588271609645,-0.0014396887712232727,-1.9254912186303542e-05
-0.05237076926072157,-0.0014660329342174772,-1.9981342612663728e-05
-0.05170603499101898,-0.0014920521352804123,-2.07208638800382e-05
-0.05101300781616835,-0.0015177318959822092,-2.1473309887853858e-05
-0.050293022668430824,-0.001543058403603359,-2.223850746275025e-05
-0.049547417568177696,-0.0015680185136625112,-2.3016276692066717e-05
-0.0487775299091981,-0.001592599750531855,-2.3806431258115308e-05
-0.047984692973552394,-0.0016167903062525428,-2.4608778772311408e-05
-0.04717023268063619,-0.00164057903766609,-2.5423121108291066e-05
-0.04633546457195088,-0.0016639554619792367,-2.62492547332024e-05
-0.045481691032232284,-0.0016869097508802825,-2.7086971036417278e-05
-0.044610198748630675,-0.0017094327233254983,-2.7936056654968723e-05
-0.04372225641110884,-0.0017315158371154333,-2.8796293795078957e-05
-0.04281911265764043,-0.0017531511793826206,-2.966746054920347e-05
-0.04190199426608206,-0.0017743314561135513,-3.054933120807751e-05
-0.04097210459125221,-0.0017950499808278848,-3.1441676567312875e-05
-0.04003062224270747,-0.0018153006625363747,-3.234426422815394e-05
-0.039078699996429496,-0.001835077993096159,-3.3256858892062074e-05
-0.0381174639318847,-0.0018543770340782376,-3.417922264885567e-05
-0.03714801278469271,-0.001873193403257382,-3.511111525818958e-05
-0.03617141750451788,-0.0018915232608296847,-3.605229442421134e-05
-0.03518872100689721,-0.0019093632954575385,-3.700251606328315e-05
-0.03420093810441447,-0.0019267107102353665,-3.7961534564706375e-05
-0.033209055596944106,-0.001943563208660706,-3.8929103044430396e-05
-0.03221403249532167,-0.0019599189806837726,-3.9904973591766515e-05
-0.031216800350778943,-0.001975776688895298,-4.088889750916128e-05
-0.030218263664651322,-0.0019911354548991555,-4.18806255451099e-05
-0.02921930035691608,-0.0020059948459045475,-4.287990812031082e-05
-0.02822076227482586,-0.002020354861562483,-4.388649554717758e-05
-0.027223475723223787,-0.0020342159210619956,-4.49001382428337e-05
-0.026228241997478738,-0.002047578850492171,-4.592058693572224e-05
-0.02523583790033367,-0.002060444870466624,-4.694759286596194e-05
-0.024247016226063366,-0.002072815583998223,-4.798090797957815e-05
-0.023262506199897847,-0.0020846929646047133,-4.902028511672889e-05
-0.022283013867787957,-0.002096079344621635,-5.006547819403547e-05
-0.021309222440551112,-0.0021069774036987197,-5.111624238111556e-05
-0.020341792604141044,-0.0021173901574598926,-5.2172334271405214e-05
-0.019381362811345528,-0.002127320946313764,-5.323351204734863e-05
-0.018428549569152724,-0.002136773424408889,-5.4299535640029296e-05
-0.017483947732500327,-0.0021457515487343023,-5.5370166883315096e-05
-0.016548130811879763,-0.0021542595683703976,-5.6445169662591274e-05
-0.015621651300474442,-0.002162302013898486,-5.75243100581585e-05
-0.01470504102483118,-0.0021698836869798125,-5.860735648337807e-05
-0.013798811520672109,-0.0021770096501161885,-5.969407981765207e-05
-0.01290345443327711,-0.002183685216604676,-6.078425353433229e-05
-0.012019441941143605,-0.002189915940698281,-6.187765382365803e-05
-0.011147227202116071,-0.002195707607984096,-6.297405971082863e-05
-0.010287244821900928,-0.0022010662259901006,-6.407325316932218e-05
-0.009439911344585045,-0.002205998015031722,-6.517501922957765e-05
-0.008605625763445313,-0.00221050939930873,-6.627914608316276e-05
-0.007784770048539777,-0.0022146069982617264,-6.738542518255538e-05
-0.0069777096858984755,-0.002218297618195336,-6.849365133666964e-05
-0.00618479422234795,-0.002221588244172397,-6.960362280226158e-05
-0.005406357810840829,-0.0022244860321806942,-7.071514137134985e-05
-0.0046427197534028766,-0.002226998301571755,-7.182801245478796e-05
-0.0038941850407639904,-0.0022291325277702966,-7.294204516212348e-05
-0.0031610448887263672,-0.0022308963352526694,-7.405705237787921e-05
-0.0024435772724760406,-0.00223229749079297,-7.517285083439062e-05
-0.001742047461982455,-0.0022333438969765846,-7.6289261181333e-05
-0.001056708564137929,-0.0022340435859831147,-7.740610805207293e-05
-0.00038780207867032386,-0.002234404713643817,-7.852322012697967e-05
0.000264441526698419,-0.00223443555378181,-7.964043019383607e-05
0.0008998022213830453,-0.0022341444928447893,-8.075757520549272e-05
0.0015180698039339508,-0.00223354002483846,-8.187449633491353e-05
0.002119043293506406,-0.0022326307465641,-8.299103902776417e-05
0.0027025303362260833,-0.0022314253531566667,-8.410705305269436e-05
0.0032683466418587494,-0.0022299326339121454,-8.522239254946156e-05
0.003816315464948143,-0.002228161468385444,-8.633691607503596e-05
0.004346267143190295,-0.0022261208227334094,-8.745048664781567e-05
0.004858038703894843,-0.0022238197462716384,-8.856297179006694e-05
0.005351473546720922,-0.0022212673682089844,-8.967424356868709e-05
0.0058264212077954545,-0.0022184728945203553,-9.078417863436943e-05
0.006282737207714512,-0.002215445604916478,-9.189265825922864e-05
0.006720282984083436,-0.0022121948498685286,-9.299956837292489e-05
0.007138925908042608,-0.0022087300476454973,-9.41047995973034e-05
0.007538539383079285,-0.0022050606813227166,-9.520824727954546e-05
0.007919003024006553,-0.002201196295720945,-9.630981152380638e-05
0.008280202915283625,-0.0021971464942361226,-9.740939722129565e-05
0.00862203195074061,-0.0021929209355196167,-9.850691407873459e-05
0.008944390258654825,-0.0021885293299672677,-9.96022766451063e-05
0.009247185715006514,-0.0021839814359738523,-0.00010069540433659159
0.009530334543445517,-0.0021792870559092393,-0.00010178622145956236
0.009793761994474641,-0.0021744560317747594,-0.00010287465723148337
0.010037403091243766,-0.0021694982405033297,-0.00010396064579955289
0.010261203426954522,-0.00216442358887378,-0.00010504412625689717
0.010465119998337822,-0.002159242008017457,-0.00010612504265611997
0.010649122060165155,-0.0021539634475028313,-0.00010720334402000005
0.01081319198761894,-0.0021485978689908852,-0.00010827898434912347
0.010957326136463446,-0.0021431552394598646,-0.00010935192262623616
0.011081535693105233,-0.0021376455240024726,-0.00011042212281710174
0.011185847506498342,-0.0021320786782025717,-0.000111489553867653
0.011270304892983501,-0.002126464640102701,-0.00011255418969722931
0.011334968406316473,-0.002120813321777876,-0.00011361600918769946
0.011379916568993023,-0.0021151346005340486,-0.00011467499616827745
0.011405246565408053,-0.0021094383097504483,-0.00011573113939584856
0.011411074899933801,-0.0021037342293841127,-0.0001167844325306322
0.011397538023456553,-0.0020980320761532652,-0.00011783487410701654
0.011364792931815113,-0.0020923414934144475,-0.00011888246749940847
0.011313017739215616,-0.00208667204074669,-0.00011992722088294875
0.01124241222774968,-0.0020810331832549485,-0.00012096914718894917
0.01115319837062818,-0.002075434280605354,-0.00012200826405491425
0.011045620824978399,-0.0020698845758064526,-0.00012304459376901719
0.010919947391480597,-0.002064393183752338,-0.00012407816320890688
0.010776469439876687,-0.0020589690795444985,-0.00012510900377473108
0.010615502297416668,-0.002053621086610175,-0.00012613715131626975
0.010437385592020208,-0.002048357864637816,-0.00012716264605408176
0.010242483537372112,-0.002043187897355468,-0.0001281855324945801
0.010031185146516063,-0.0020381194801844956,-0.00012920585933896508
0.009803904363111649,-0.0020331607078070885,-0.00013022367938596296
0.00956108010289031,-0.002028319461690588,-0.00013123904942833738
0.009303176199894656,-0.0020236033976148917,-0.00013225203014316376
0.009030681252372557,-0.0020190199332518247,-0.00013326268597588044
0.008744108362267784,-0.0020145762358481645,-0.00013427108501815543
0.008443994760332535,-0.0020102792100675144,-0.00013527729887963434
0.008130901305971062,-0.0020061354860509387,-0.00013628140255366396
0.00780541184806715,-0.002002151407762429,-0.00013728347427711731
0.007468132431913426,-0.001998333021692434,-0.00013828359538448103
0.007119690338236899,-0.0019946860659998964,-0.00013928185015640412
0.006760732943194907,-0.0019912159601795385,-0.00014027832566294897
0.006391926393628601,-0.0019879277953453326,-0.00014127311160183018
0.006013954100871862,-0.0019848263252217075,-0.00014226630013197195
0.005627515068236562,-0.0019819159579294305,-0.00014325798570275974
0.005233322078775365,-0.0019792007486426778,-0.00014424826487940276
0.004832099777536946,-0.0019766843931785997,-0.0001452372361648581
0.004424582685513494,-0.001974370222562837,-0.00014622499981879346
0.004011513181304016,-0.001972261198596133,-0.0001472116576740832
0.0035936394829542227,-0.0019703599104300682,-0.00014819731295133976
0.003171713658562002,-0.001968668572144689,-0.00014918207007198346
0.002746489691640729,-0.001967189021307138,-0.00015016603447034642
0.002318721624868313,-0.0019659227184780107,-0.00015114931240529271
0.001889161802018374,-0.001964870747621289,-0.00015213201077181755
0.0014585592225089122,-0.0019640338173651573,-0.00015311423691306416
0.0010276580177558195,-0.001963412263055091,-0.00015409609843316922
0.0005971960547636329,-0.001963006049536961,-0.00015507770301131723
0.00016790367029297245,-0.001962814774605697,-0.0001560591582173529
-0.0002594974620504682,-0.0019628376730536365,-0.00015704057132926775
-0.0006842953296955131,-0.001963073621251573,-0.00015802204915284405
-0.0011057884415490767,-0.001963521142194384,-0.00015900369784370555
-0.0015232865482122059,-0.0019641784109418244,-0.0001599856227319896
-0.0019361112195185482,-0.001965043260383757,-0.000160967928149821
-0.0023435962788161697,-0.001966113187258341,-0.00016195071726173151
-0.002745088096390828,-0.001967385358352143,-0.00016293409189813414
-0.0031399457478786036,-0.0019688566168132105,-0.00016391815239192548
-0.003527541047065547,-0.0019705234885119467,-0.00016490299741825677
-0.003907258466310031,-0.0019723821883902907,-0.00016588872383748232
-0.004278494961505676,-0.0019744286267472447,-0.00016687542654126672
-0.004640659720634669,-0.0019766584154177797,-0.00016786319830180797
-0.0049931738536759035,-0.0019790668738113573,-0.00016885212962411525
-0.005335470036915337,-0.001981649034784005,-0.00016984230860126408
-0.005666992119213855,-0.001984399650323037,-0.00017083382077254084
-0.005987194695010651,-0.001987313197026593,-0.00017182674898437824
-0.006295542650487825,-0.0019903838813629675,-0.00017282117325397562
-0.006591510694382945,-0.0019936056446991854,-0.00017381717063549116
-0.006874582889655934,-0.001996972168095195,-0.00017481481508868976
-0.007144252203243686,-0.00200047687686842,-0.00017581417734993066
-0.007400020088997355,-0.0020041129449414803,-0.00017681532480538314
-0.007641396116948391,-0.0020078732989929665,-0.00017781832136636676
-0.007867897663084248,-0.0020117506224379745,-0.0001788232273467245
-0.008079049677896742,-0.0020157373592732198,-0.0001798300993421523
-0.008274384557676326,-0.002019825717832113,-0.00018083899011142864
-0.008453442147467216,-0.0020240076745083988,-0.00018184994845951377
-0.008615769905644704,-0.002028274977521677,-0.0001828630191225213
-0.00876092325605245,-0.0020326191508121014,-0.00018387824265460475
-0.008888466145396583,-0.0020370314981624634,-0.0001848956553168484
-0.008997971814023226,-0.0020415031076523186,-0.0001859152889683021
-0.009089023779948281,-0.0020460248565508116,-0.00018693717095935288
-0.009161217030605776,-0.0020505874167534503,-0.00018796132402767895
-0.009214159413679274,-0.0020551812608645215,-0.00018898776619708345
-0.00924747321599959,-0.002059796669021941,-0.00019001651067955506
-0.0092607969172225,-0.0020644237365552466,-0.00019104756578094934
-0.009253787103679677,-0.002069052382560472,-0.00019208093481072827
-0.009226120527942824,-0.0020736723594683777,-0.00019311661599623548
-0.009177496299038471,-0.0020782732636751232,-0.00019415460240202134
-0.009107638184570091,-0.0020828445472960253,-0.00019519488185476414
-0.009016296999382346,-0.0020873755310920135,-0.00019623743687436116
-0.008903253048890997,-0.002091855418604082,-0.00019728224461178519
-0.008768318592315671,-0.002096273311514384,-0.0001983292767943148
-0.008611340292728871,-0.002100618226235645,-0.00019937849967875231
-0.008432201624701246,-0.0021048791117150027,-0.00020042987401323997
-0.008230825213444364,-0.0021090448684245393,-0.00020148335500827486
-0.008007175079563935,-0.0021131043684977915,-0.00020253889231750544
-0.007761258761548588,-0.0021170464769580694,-0.0002035964300288694
-0.007493129286243103,-0.002120860073970017,-0.00020465590666660143
-0.007202886957866713,-0.0021245340780310447,-0.00020571725520460168
-0.006890680938999904,-0.0021280574700052613,-0.00020678040309161076
-0.006556710600472736,-0.0021314193178901294,-0.0002078452722885846
-0.00620122661941828,-0.002134608802195102,-0.0002089117793186059
-0.005824531805947941,-0.0021376152418014437,-0.00020997983532960502
-0.005426981641078981,-0.0021404281201632003,-0.0002110493461700962
-0.005008984511903422,-0.002143037111701446,-0.00021212021247806235
-0.00457100163171826,-0.0021454321082373514,-0.00021319232978304705
-0.004113546631800816,-0.0021476032453032314,-0.0002142655886214322
-0.003637184810785954,-0.002149540928163878,-0.00021533987466479897
-0.0031425320314503,-0.002151235857374437,-0.00021641506886118354
-0.0026302532630052247,-0.002152679053698051,-0.00021749104758895165
-0.002101060775595635,-0.0021538618822077014,-0.0002185676828229281
-0.0015557119988795437,-0.0021547760754013203,-0.00021964484231233036
-0.0009950070589160574,-0.0021554137551657694,-0.00022072238976997212
-0.0004197860101329456,-0.002155767453433032,-0.00022180018507212182
0.00016907421621464156,-0.002155830131381511,-0.00022287808446832546
0.0007706631208722461,-0.0021555951970472394,-0.00022395594080043264
0.0013840401738886329,-0.002155056521223549,-0.00022503360373000034
0.0020082385511506875,-0.002154208451542289,-0.0002261109199731918
0.002642269041041025,-0.002153045824644241,-0.00022718773354223843
0.003285124092046323,-0.002151563976360969,-0.00022826388599248972
0.003935781972398895,-0.002149758749844858,-0.00022933921667404118
0.004593211013823352,-0.0021476265015983025,-0.00023041356298690198
0.005256373912445704,-0.002145164105366735,-0.00023148676063864323
0.005924232058625157,-0.002142368953873967,-0.0002325586439034534
0.006595749862851812,-0.002139238958393598,-0.0002336290458815203
0.007269899038456393,-0.002135772546168271,-0.00023469779875766076
0.007945662796280777,-0.0021319686557095866,-0.0002357647340581302
0.008622039903839312,-0.0021278267300345564,-0.00023682968290456626
0.00929804856198646,-0.0021233467079181,-0.00023789247626405442
0.00997273005530296,-0.0021185290132637777,-0.00023895294519434988
0.010645152138464372,-0.002113374542715336,-0.00024001092108334466
0.011314412129886221,-0.0021078846516482484,-0.00024106623588193555
0.0119796396946618,-0.0021020611386921113,-0.00024211872232952065
0.012639999308662258,-0.0020959062289412802,-0.000243168214171429
0.013294692403557433,-0.002089422556013225,-0.0002442145463676676
0.01394295919900134,-0.0020826131431125852,-0.00024525755529244904
0.014584080233802785,-0.002075481383254384,-0.0002462970789240408
0.015217377612230298,-0.002068031018792876,-0.0002473329570245526
0.015842215984202605,-0.0020602661203937677,-0.0002483650313093493
0.016458003279155836,-0.002052191065577928,-0.0002493931456058422
0.017064191214227774,-0.002043810516954582,-0.00025041714600147535
0.017660275599750853,-0.0020351294002510876,-0.0002514368809807768
0.018245796468565535,-0.0020261528822340083,-0.00025245220155139804
0.018820338057118483,-0.002016886348602587,-0.0002534629613591072
0.019383528661986508,-0.002007335381922811,-0.0002544690167917386
0.019935040385374792,-0.0019975057396609706,-0.0002554702270721345
0.020474588771627885,-0.00198740333237172,-0.0002564664543401427
