acceleration,velocity,displacement
-0.013791192565740027,0.0,0.0
-0.015174567983306523,-7.241440137261638e-06,-1.8103600343154096e-09
-0.016567905923123082,-1.5177058613869038e-05,-7.4149847220980794e-09
-0.017969811663700253,-2.3811488010574872e-05,-1.716212137820906e-08
-0.0193787861594222,-3.314863746635549e-05,-3.1402152747441647e-08
-0.020793229378329326,-4.319164135079337e-05,-5.048722245172886e-08
-0.02221144434253653,-5.394280978100983e-05,-7.477083523467966e-08
-0.023631641868159237,-6.540358133368377e-05,-1.0460743301335306e-07
-0.02505194599841374,-7.757447830032701e-05,-1.4035194792185577e-07
-0.026470400117536503,-9.045506482931458e-05,-1.8235933370426617e-07
-0.02788497372592208,-0.00010404390829017923,-2.309840769841396e-07
-0.029293569851565074,-0.00011833854418455102,-2.865796901028222e-07
-0.030694033068699087,-0.00013333544491461705,-3.494981873776142e-07
-0.03208415808683796,-0.0001490299927035013,-4.200895467821438e-07
-0.03346169886175076,-0.0001654164569406485,-4.987011591931813e-07
-0.03482437816974103,-0.00018248797619852144,-5.856772674779738e-07
-0.0361698975813838,-0.00020023654513630265,-6.813583978116798e-07
-0.037495947766542484,-0.00021865300647328422,-7.860807857140766e-07
-0.03880021905286824,-0.0002377270481781369,-9.001757993769318e-07
-0.040080412144933346,-0.0002574472059775873,-1.023969362915863e-06
-0.04133424889605277,-0.00027780087123783386,-1.1577813822197182e-06
-0.04255948301607885,-0.00029877430421586677,-1.3019251760831433e-06
-0.04375391059950295,-0.0003203526526197622,-1.4567069152920506e-06
-0.04491538037000563,-0.00034251997536213937,-1.622425072287526e-06
-0.0460418035576956,-0.00036525927134406467,-1.799369883964077e-06
-0.0471311633482551,-0.00038855251307055237,-1.987822830067731e-06
-0.0481815238614635,-0.000412380684872982,-2.1880561295536147e-06
-0.049191038624180346,-0.000436723825494393,-2.4003322571454586e-06
-0.05015795849993763,-0.0004615610747754225,-2.6249034822129125e-06
-0.05108063903154826,-0.00048687072415829396,-2.8620114319463416e-06
-0.051957547154200937,-0.0005126302707047312,-3.111886680662098e-06
-0.05278726724618352,-0.0005388164743048273,-3.3747483669144876e-06
-0.053568506495411575,-0.000565405417740226,-3.650803839925751e-06
-0.054300099566650474,-0.0005923725692557416,-3.940248336674743e-06
-0.054981012556879434,-0.000619692847286624,-4.2432646908103345e-06
-0.0556103462278393,-0.0006473406869828037,-4.560023074377691e-06
-0.05618733850746094,-0.0006752901081666288,-4.8906807731650495e-06
-0.05671136625553634,-0.0007035147843573781,-5.235381996296051e-06
-0.05718194629311842,-0.0007319881124945418,-5.594257720509031e-06
-0.057598735699966465,-0.0007606832829928131,-5.96742556938087e-06
-0.057961531390841176,-0.000789573349765515,-6.354989727570452e-06
-0.05827026898907579,-0.0008186312998604942,-6.7570408899769545e-06
-0.058525021021997733,-0.0008478301223632626,-7.173656245532894e-06
-0.058725994466619705,-0.0008771428762354169,-7.604899495182564e-06
-0.058873527677374096,-0.0009065427567714154,-8.050820903434271e-06
-0.05896808673162601,-0.0009360031603736654,-8.511457382720542e-06
-0.0590102612302933,-0.0009654977473641452,-8.986832609654994e-06
-0.059000759586647106,-0.0009950005025683804,-9.476957172138125e-06
-0.05894040382725591,-0.001024485793421856,-9.981828746135683e-06
-0.05883012392176365,-0.001053928425359111,-1.0501432300830926e-05
-0.05867095165864053,-0.001083303694254212,-1.1035740330734256e-05
-0.05846401409155362,-0.0011125874356917604,-1.158471311322075e-05
-0.05821052658872327,-0.0011417560708618297,-1.2148298989859146e-05
-0.05791178552113815,-0.001170786648889295,-1.2726434669796928e-05
-0.0575691606268691,-0.0011996568854262969,-1.3319045553375825e-05
-0.05718408709243903,-0.001228345197356124,-1.3926046074071431e-05
-0.0567580573995123,-0.0012568307334791117,-1.454734005678024e-05
-0.05629261299563428,-0.0012850934010778983,-1.5182821090419492e-05
-0.055789335860510006,-0.0013131138882919345,-1.583237291276195e-05
-0.05524984005087503,-0.0013408736822697806,-1.649586980540238e-05
-0.05467576331236402,-0.0013683550831105904,-1.7173176996747472e-05
-0.05406875884512803,-0.0013955412136499633,-1.786415107093761e-05
-0.05343048730571775,-0.0014224160251876748,-1.856864038064702e-05
-0.052762609124150574,-0.001448964299295142,-1.9286485461767724e-05
-0.05206677721085745,-0.001475171645878894,-2.0017519448061233e-05
-0.05134463011980442,-0.0015010244977115594,-2.0761568483958848e-05
-0.050597785720430485,-0.0015265101016716182,-2.1518452133804642e-05
-0.04982783541606389,-0.0015516165069557417,-2.2287983785961483e-05
-0.04903633893433364,-0.0015763325505433411,-2.3069971050336253e-05
-0.04822481970499857,-0.0016006478402031741,-2.386421614802288e-05
-0.04739476082892036,-0.0016245527353366538,-2.467051629190784e-05
-0.046547601629675854,-0.001648038325951303,-2.548866405722983e-05
-0.04568473477123258,-0.00167109641005153,-2.6318447741230537e-05
-0.04480750392384501,-0.0016937194697252995,-2.7159651711174744e-05
-0.04391720196438663,-0.0017159006461973574,-2.801205674015541e-05
-0.043015069702890145,-0.0017376337141141766,-2.887544033023329e-05
-0.04210229512957768,-0.0017589130553222936,-2.974957702259241e-05
-0.04118001317290274,-0.0017797336323979137,-3.063423869452246e-05
-0.04024930595129281,-0.0018000909621789627,-3.1529194843166675e-05
-0.039311203493627246,-0.0018199810895401926,-3.2434212856096465e-05
-0.038366684898621606,-0.0018394005616382547,-3.334905826889108e-05
-0.03741667989970066,-0.0018583464028378352,-3.42734950100101e-05
-0.036462070799724924,-0.0018768160905126916,-3.5207285633347734e-05
-0.03550369473973918,-0.0018948075318975578,-3.615019153895029e-05
-0.03454234626468362,-0.0019123190421486635,-3.710197318246185e-05
-0.03357878014098118,-0.0019293493237500796,-3.8062390273936536e-05
-0.032613714365991496,-0.0019458974473768227,-3.9031201966718265e-05
-0.03164783329526409,-0.0019619628342921365,-4.000816703713551e-05
-0.030681790809146712,-0.001977545240318239,-4.09930440557881e-05
-0.02971621344764315,-0.0019926447413824364,-4.198559155121327e-05
-0.028751703455190836,-0.002007261720608145,-4.298556816671092e-05
-0.027788841686019892,-0.0020213968568934476,-4.3992732811086316e-05
-0.02682819032264569,-0.0020350511148956143,-4.500684480403358e-05
-0.025870295359267926,-0.0020482257363160926,-4.602766401683651e-05
-0.024915688803764387,-0.0020609222323568505,-4.705495100900474e-05
-0.0239648905588944,-0.002073142377197515,-4.8088467161393334e-05
-0.023018409957050782,-0.0020848882023265015,-4.9127974806274335e-05
-0.022076746944223763,-0.0020961619915518203,-5.0173237354743914e-05
-0.021140392934993466,-0.0021069662765216247,-5.122401942176228e-05
-0.020209831382960734,-0.002117303832601113,-5.228008694904296e-05
-0.01928553812186358,-0.0021271776749773193,-5.334120732593756e-05
-0.018367981529857077,-0.0021365910548902496,-5.440714950840445e-05
-0.017457622559707165,-0.002145547455912641,-5.547768413610517e-05
-0.01655491466882103,-0.002154050590219773,-5.655258364763828e-05
-0.01566030367790825,-0.0021621043948064555,-5.7631622393894836e-05
-0.014774227582417306,-0.0021697130276215368,-5.8714576749501836e-05
-0.013897116334182115,-0.0021768808636006866,-5.980122522230739e-05
-0.013029391604483567,-0.002183612490585353,-6.0891348560853897e-05
-0.012171466537493984,-0.002189912705120847,-6.198472985978045e-05
-0.011323745504449957,-0.002195786508131333,-6.308115466309349e-05
-0.010486623870736263,-0.0022012391004751293,-6.41804110652451e-05
-0.00966048778700926,-0.0022062758783895657,-6.528228980996127e-05
-0.00884571401130348,-0.0022109024288391437,-6.638658438676845e-05
-0.008042669763691153,-0.0022151245247828922,-6.749309112517396e-05
-0.007251712609873514,-0.0022189481203762833,-6.860160928646376e-05
-0.006473190367310646,-0.0022223793461205793,-6.971194115308797e-05
-0.005707441029568867,-0.002225424503969799,-7.082389211561056e-05
-0.004954792710400883,-0.0022280900624047917,-7.193727075720421e-05
-0.004215563614141455,-0.002230382651485927,-7.305188893567689e-05
-0.003490062041374829,-0.002232309057899806,-7.416756186302332e-05
-0.0027785864412866418,-0.0022338762200204716,-7.52841081825034e-05
-0.002081425527346833,-0.00223509122301263,-7.640135004326167e-05
-0.0013988584793710652,-0.0022359612940143093,-7.751911317251841e-05
-0.0007311552582826819,-0.002236493797448723,-7.863722694538417e-05
-7.85770549348175e-05,-0.0022366962305270274,-7.97555244523781e-05
0.000558623120789399,-0.0022365762190105637,-8.08738425647625e-05
0.0011801997251637605,-0.002236141513299075,-8.199202199783991e-05
0.0017859138725044325,-0.0022353999848996583,-8.310990737238959e-05
0.002375532475054055,-0.0022343596233127686,-8.42273472744427e-05
0.0029488273727060355,-0.0022330285333508285,-8.53441943136086e-05
0.0035055744914567555,-0.002231414932884788,-8.64603051801675e-05
0.004045553066135301,-0.0022295271509953896,-8.757554070113754e-05
0.004568544958252378,-0.0022273736264892927,-8.868976589550871e-05
0.00507433409263657,-0.0022249629067265706,-8.980285002881267e-05
0.005562706028403402,-0.0022223036466963108,-9.091466666716839e-05
0.006033447672887548,-0.002219404608270988,-9.202509373091021e-05
0.006486347142534575,-0.0022162746595671325,-9.313401354786974e-05
0.0069211937716740935,-0.00221292277433858,-9.424131290634617e-05
0.007337778267457829,-0.0022093580313287974,-9.534688310776301e-05
0.00773589300842561,-0.0022055896135098267,-9.645062001897267e-05
0.008115332488489724,-0.002201626807135598,-9.755242412413402e-05
0.00847589391660002,-0.0021974790005343256,-9.86522005760515e-05
0.008817377988206544,-0.002193155682558124,-9.974985924682461e-05
0.009139589841938418,-0.002188666440600588,-0.00010084531477761428
0.009442340202751932,-0.002184020958089415,-0.00010193848662728678
0.009725446695854328,-0.0021792290113647637,-0.00010302929911965032
0.009988735301402945,-0.002174300465865449,-0.00010411768148895787
0.01023204191321097,-0.002169245271561796,-0.00010520356792331467
0.01045521396347832,-0.0021640734575926234,-0.00010628689760560328
0.010658112076967135,-0.002158795126082512,-0.00010736761475152207
0.010840611723527046,-0.0021534204451323885,-0.0001084456686443258
0.011002604846823763,-0.002147959640989801,-0.00010952101366585635
0.011144001453329489,-0.0021424229894147625,-0.0001105936093234575
0.011264731145175363,-0.0021368208062651365,-0.00011166342027237748
0.011364744577953728,-0.002131163437334354,-0.00011273041633327736
0.011444014827743,-0.00212546124748293,-0.00011379457250448168
0.011502538662567978,-0.0021197246091103523,-0.00011485586896863
0.011540337726023581,-0.0021139638900132046,-0.00011591429109341089
0.011557459647882979,-0.002108189440669728,-0.00011696982942608162
0.011553979097567979,-0.0021024115809833654,-0.0001180224796814949
0.01152999879580645,-0.002096640586510022,-0.00011907224272336825
0.011485650498564173,-0.002090886674186429,-0.00012011912453854235
0.011421095961347808,-0.002085159987571451,-0.00012116313620398183
0.011336527881686011,-0.0020794705816106923,-0.00012220429384627736
0.011232170812124393,-0.0020738284069372398,-0.00012324261859341434
0.011108282039906674,-0.002068243293724232,-0.00012427813651857972
0.010965152434096412,-0.0020627249351057313,-0.00012531087857578721
0.010803107254947089,-0.0020572828701834705,-0.00012634088052710952
0.010622506904730907,-0.002051926466643551,-0.00012736818286131628
0.010423747585910116,-0.002046664903020891,-0.00012839283070373238
0.01020726183014698,-0.0020415071506668767,-0.00012941487371715432
0.009973518868854437,-0.0020364619554921262,-0.00013043436599369408
0.009723024825218472,-0.002031537819568608,-0.00013145136593745928
0.009456322713043855,-0.002026742982684042,-0.00013246593613802245
0.009173992228286519,-0.0020220854039487094,-0.00013347814323468063
0.00887664931618462,-0.0020175727435625917,-0.00013448805777155844
0.008564945490974536,-0.002013212344860802,-0.0001354957540436643
0.00823956687652562,-0.0020090112167689272,-0.00013650130993407173
0.007901232927946544,-0.002004976016817809,-0.00013750480674246842
0.007550694790435134,-0.002001113034888214,-0.00013850632900539491
0.007188733254058581,-0.0019974281778770905,-0.00013950596430858624
0.006816156271103525,-0.0019939269554958,-0.00014050380309192946
0.006433796017986188,-0.0019906144674235278,-0.0001414999384476593
0.006042505509289509,-0.0019874953920417087,-0.0001424944659125256
0.0056431548052196,-0.0019845739769630815,-0.0001434874832547768
0.005236626886398222,-0.001981854031540177,-0.00014447909025690263
0.004823813291834937,-0.0019793389214956187,-0.0001454693884951616
0.004405609624185534,-0.0019770315657666134,-0.00014645848111697715
0.003982911023132663,-0.001974934435604784,-0.00014744647261732
0.003556607697362287,-0.00197304955592466,-0.00014843346861520237
0.003127580594725237,-0.001971378508851638,-0.00014941957563139644
0.002696697282580244,-0.0019699224393823116,-0.00015040490086845493
0.0022648081036956945,-0.0019686820630357427,-0.00015138955199405944
0.0018327426621160537,-0.00196765767534429,-0.00015237363692865446
0.0014013066782195595,-0.001966849163009206,-0.00015335726363824284
0.0009712792371702625,-0.0019662560165303587,-0.00015434053993312774
0.000543410444327265,-0.0019658773441099844,-0.00015532357327328783
0.0001184194953105479,-0.0019657118866250748,-0.0001563064705809716
-0.00030300683433369185,-0.0019657580334598306,-0.00015728933806099282
-0.0007202152755355026,-0.001966013838987298,-0.0001582722810291046
-0.0011325867228623708,-0.0019664770394868976,-0.00015925540374872314
-0.0015395364559031076,-0.001967145070281589,-0.00016023880927616525
-0.0019405139193848884,-0.001968015082875411,-0.0001612225993144545
-0.0023350020616975473,-0.0019690839618706816,-0.00016220687407564102
-0.0027225162400101102,-0.0019703483414461086,-0.0001631917321514702
-0.0031026027100218238,-0.0019718046211836164,-0.00016417727039212763
-0.0034748367286004003,-0.001973448981043272,-0.00016516358379268435
-0.0038388203085262837,-0.0019752773953025534,-0.0001661507653867708
-0.0041941796752019735,-0.0019772856452984853,-0.00016713890614692106
-0.004540562481331943,-0.0019794693308376188,-0.0001681280948909551
-0.004877634832008166,-0.0019818238801659538,-0.00016911841819370599
-0.005205078159357746,-0.001984344558413795,-0.0001701099603033509
-0.0055225859703026264,-0.00198702647444621,-0.0001711028030615659
-0.005829860483219672,-0.0019898645860595907,-0.00017209702582669236
-0.006126609174338784,-0.00199285370347398,-0.00017309270539907576
-0.006412541269401387,-0.001995988491084915,-0.00017408991594771548
-0.006687364229841066,-0.0019992634674597257,-0.00017508872893735164
-0.006950780286169327,-0.0020026730035887282,-0.00017608921305511377
-0.007202483065375647,-0.0020062113194266144,-0.0001770914341358676
-0.007442154353991172,-0.002009872478781456,-0.00017809545508541962
-0.0076694610416750365,-0.0020136503826303728,-0.00017910133580077258
-0.007884052302396123,-0.0020175387609663907,-0.00018010913308667178
-0.00808555708705553,-0.0020215311633137536,-0.00018111890056774182
-0.00827358201574468,-0.002025620948089454,-0.00018213068859559262
-0.008447709761498041,-0.0020298012710337644,-0.00018314454415037344
-0.008607498006041232,-0.0020340650729756492,-0.0001841605107363758
-0.008752479024916288,-0.0020384050672333886,-0.00018517862827142805
-0.008882159932379202,-0.0020428137269727126,-0.0001861989329699796
-0.008996023593131534,-0.0020472832728540905,-0.00018722145721993628
-0.009093530192742734,-0.002051805661300559,-0.00018824622945347495
-0.00917411945008936,-0.0020563725737112667,-0.0001892732740122279
-0.009237213448584507,-0.002060975406935935,-0.0001903026110073897
-0.009282220056476302,-0.0020656052653122005,-0.00019133425617545174
-0.009308536903108061,-0.0020702529545520965,-0.0001923682207304178
-0.009315555878395066,-0.0020749089777474723,-0.0001934045112134927
-0.009302668121104392,-0.002079563533747347,-0.0001944431293413664
-0.009269269450915265,-0.002084206518140352,-0.00019548407185433832
-0.009214766180195335,-0.0020888275270481297,-0.00019652733036563543
-0.009138581222701784,-0.002093415863898854,-0.00019757289121337217
-0.009040160407892331,-0.0020979605493065025,-0.0001986207353166735
-0.008918978913843087,-0.0021024503341369365,-0.00019967083803753438
-0.008774547742733745,-0.0021068737158010807,-0.0002007231690500189
-0.008606420171097492,-0.0021112189577795386,-0.00020177769221841403
-0.008414198107226479,-0.0021154741123491196,-0.0002028343654859462
-0.00819753828185514,-0.00211962704644639,-0.0002038931407756451
-0.007956158192136046,-0.0021236654705648877,-0.00020495396390489792
-0.007689841719128148,-0.002127576970542704,-0.00020601677451517481
-0.007398444346345308,-0.002131349042059072,-0.00020708150601832527
-0.007081897916257435,-0.002134969127624723,-0.00020814808556074622
-0.006740214867259826,-0.002138424655820602,-0.00020921643400660756
-0.006373491896088038,-0.002141703082511439,-0.00021028646594119056
-0.005981912996038688,-0.002144791933734471,-0.00021135808969525204
-0.005565751829757094,-0.00214767884994092,-0.0002124312073911709
-0.005125373399420483,-0.0021503516312482143,-0.00021350571501146817
-0.004661234972943945,-0.0021527982833413053,-0.00021458150249011555
-0.004173886221782511,-0.002155007063639987,-0.00021565845382686088
-0.003663968535776925,-0.002156966527329377,-0.00021673644722460322
-0.0031322135032447436,-0.002158665572839132,-0.00021781535524964535
-0.002579440567869723,-0.002160093486356911,-0.00021889504501444436
-0.002006553887910434,-0.002161239984970856,-0.0002199753783822763
-0.0014145384288372328,-0.002162095258050043,-0.00022105621219303153
-0.0008044553269168388,-0.0021626500064889816,-0.00022213739850916628
-0.0001774365735048568,-0.002162895479464087,-0.00022321878488065455
0.0004653209172732376,-0.002162823508378145,-0.0002243002146276151
0.001122561788112761,-0.0021624265377017987,-0.0002253815271391351
0.0017929791956172818,-0.0021616976524558664,-0.00022646255818667454
0.002475222176175293,-0.0021606306021129183,-0.00022754314025031673
0.0031679033522950483,-0.0021592198207308006,-0.00022862310285602766
0.0038696069123246323,-0.0021574604431646455,-0.00022970227292200152
0.004578896799758853,-0.0021553483172366246,-0.00023078047511210182
0.005294325051380539,-0.00215288001177384,-0.00023185753219435445
0.006014440220065187,-0.0021500528204559787,-0.0002329332654024119
0.006737795805007145,-0.0021468647614497106,-0.00023400749479788834
0.007462958593691122,-0.002143314572850036,-0.0002350800396314633
0.008188516803993939,-0.0021394017040006147,-0.00023615071870067595
0.008913087907031944,-0.002135126302822858,-0.00023721935070238181
0.00963532601244324,-0.0021304891993429893,-0.00023828575457792328
0.010353928706633283,-0.00212549188566322,-0.00023934974984917483
0.011067643251251067,-0.002120136492673749,-0.00024041115694375907
0.011775272074487975,-0.002114425763842314,-0.00024146979750788809
0.012475677517763177,-0.0021083630264442516,-0.00024252549470545973
0.013167785827852586,-0.0021019521606078476,-0.00024357807350222275
0.013850590406235057,-0.0020951975665493257,-0.00024462736093401204
0.014523154345032943,-0.002088104130361509,-0.00024567318635823973
0.015184612293964539,-0.0020806771887017595,-0.00024671538168800553
0.015834171714025708,-0.002072922492699762,-0.0002477537816083559
0.01647111357989177,-0.002064846171376283,-0.0002487882237743749
0.017094792594979577,-0.0020564546948325653,-0.0002498185489909271
0.017704636984276982,-0.0020477548374377512,-0.00025084460137399467
0.018300147935546775,-0.002038753641207795,-0.0002518662284936561
0.01888089876832434,-0.0020294583795318274,-0.00025288328149884097
0.019446533913035236,-0.0020198765213614877,-0.0002538956152240643
0.019996767768867656,-0.002010015695941012,-0.0002549030882783899
0.020531383478944645,-0.0019998836581290587,-0.00025590556311690744
0.021050231627100263,-0.0019894882543525475,-0.0002569029060950278
0.02155322883475851,-0.001978837389237083,-0.0002578949875059252
