acceleration,velocity,displacement
-0.013791192597852041,0.0,0.0
-0.015174568016289521,-7.241440153535391e-06,-1.8103600383838478e-09
-0.01656790595694715,-1.517705864684456e-05,-7.414984738478836e-09
-0.017969811698323807,-2.38114880606623e-05,-1.716212141535555e-08
-0.019378786194791966,-3.314863753394124e-05,-3.140215281400643e-08
-0.020793229414385557,-4.319164143623562e-05,-5.048722255655065e-08
-0.022211444379210393,-5.394280988463461e-05,-7.477083538676821e-08
-0.023631641905374114,-6.540358145578074e-05,-1.0460743322187205e-07
-0.025051946036082642,-7.757447844114492e-05,-1.4035194819610346e-07
-0.026470400155567255,-9.04550649890574e-05,-1.8235933405365405e-07
-0.027884973764222516,-0.00010404390846900485,-2.3098407741816962e-07
-0.029293569890045633,-0.00011833854438257189,-2.865796906310638e-07
-0.030694033107267624,-0.0001333354451319002,-3.494981880096818e-07
-0.03208415812539974,-0.00014902999294006704,-4.2008954752767357e-07
-0.03346169890020328,-0.0001654164571964678,-4.987011600618073e-07
-0.03482437820797141,-0.00018248797647351148,-5.856772684793021e-07
-0.036169897619271356,-0.00020023654543032218,-6.813583989552606e-07
-0.03749594780396527,-0.00021865300678613133,-7.86080787009374e-07
-0.03880021908971211,-0.00023772704850955067,-9.001758008332945e-07
-0.040080412181090645,-0.00025744720632725135,-1.023969364542495e-06
-0.04133424893142755,-0.0002778008716053809,-1.1577813840256532e-06
-0.04255948305058555,-0.00029877430460088414,-1.3019251780772196e-06
-0.0437539106330807,-0.0003203526530218007,-1.456706917482891e-06
-0.044915380402613045,-0.00034251997578072413,-1.6224250746835222e-06
-0.04604180358930687,-0.0003652592717787041,-1.7993698865733792e-06
-0.04713116337886393,-0.0003885525135207468,-1.9878228328982417e-06
-0.04818152389106748,-0.00041238068533822964,-2.188056132612986e-06
-0.04919103865277837,-0.0004367238259741911,-2.400332260441091e-06
-0.0501579585275351,-0.0004615610752692695,-2.624903485751956e-06
-0.05108063905814799,-0.0004868707246656902,-2.862011435735696e-06
-0.051957547179809646,-0.0005126302712251796,-3.1118866847084132e-06
-0.052787267270809214,-0.0005388164748378343,-3.3747483712241667e-06
-0.05356850651906619,-0.0005654054182853031,-3.650803844504951e-06
-0.054300099589358906,-0.0005923725698124095,-3.940248341529379e-06
-0.054981012578678295,-0.0006196928478544188,-4.243264695946087e-06
-0.055610346248765194,-0.0006473406875612797,-4.5600230798000115e-06
-0.05618733852754917,-0.0006752901087553583,-4.890680778879171e-06
-0.05671136627482482,-0.0007035147849559518,-5.235382002306998e-06
-0.05718194631164506,-0.0007319881131025693,-5.594257726821629e-06
-0.057598735717767885,-0.0007606832836099226,-5.967425575999752e-06
-0.057961531407955284,-0.0007895733503913534,-6.354989734500071e-06
-0.05827026900553792,-0.0008186313004947268,-6.757040897221591e-06
-0.05852502103784838,-0.0008478301230055733,-7.173656253096666e-06
-0.05872599448190069,-0.0008771428768855106,-7.604899503069437e-06
-0.05887352769212592,-0.0009065427574290173,-8.050820911648069e-06
-0.058968086745885294,-0.0009360031610385201,-8.511457391264953e-06
-0.05901026124409924,-0.0009654977480360162,-8.986832618533586e-06
-0.05900075960004151,-0.0009950005032470515,-9.476957181354353e-06
-0.058940403840287064,-0.0010244857941071337,-9.9818287556929e-06
-0.05883012393448633,-0.001053928426050827,-1.050143231073239e-05
-0.058670951671123774,-0.0010833036949522295,-1.1035740340983155e-05
-0.05846401410388726,-0.0011125874363959822,-1.1584713123820208e-05
-0.05821052660101529,-0.0011417560715722079,-1.2148299000812255e-05
-0.057911785533497843,-0.0011707866496058362,-1.2726434681106766e-05
-0.05756916063939924,-0.0011996568861490605,-1.331904556504549e-05
-0.05718408710522553,-0.0012283451980852167,-1.392604608610406e-05
-0.05675805741262546,-0.0012568307342146795,-1.4547340069179034e-05
-0.05629261300913143,-0.0012850934018201188,-1.5182821103187733e-05
-0.05578933587443806,-0.0013131138890410112,-1.5832372925903015e-05
-0.055249840065277014,-0.00134087368302594,-1.6495869818919752e-05
-0.05467576332727646,-0.0013683550838740784,-1.7173177010644755e-05
-0.05406875886057965,-0.0013955412144210425,-1.7864151085218535e-05
-0.05343048732173337,-0.0014224160259666207,-1.856864039531545e-05
-0.05276260914074333,-0.00144896430008224,-1.9286485476827665e-05
-0.05206677722802227,-0.0014751716466744314,-2.0017519463516833e-05
-0.051344630137516764,-0.0015010244985158162,-2.0761568499814397e-05
-0.05059778573864894,-0.0015265101024848576,-2.1518452150064564e-05
-0.04982783543473402,-0.0015516165077782034,-2.228798380263033e-05
-0.049036338953388034,-0.0015763325513752338,-2.3069971067418688e-05
-0.04822481972435684,-0.00160064784104467,-2.3864216165523663e-05
-0.04739476084848521,-0.0016245527361878806,-2.4670516309831802e-05
-0.04654760164932921,-0.0016480383268123342,-2.5488664075581855e-05
-0.0456847347908369,-0.0016710964109223757,-2.6318447760015532e-05
-0.044807503943247146,-0.0016937194706058967,-2.71596517303976e-05
-0.043917201983415255,-0.0017159006470875624,-2.8012056759820967e-05
-0.04301506972136875,-0.0017376337150137584,-2.8875440350346296e-05
-0.04210229514732324,-0.0017589130562309313,-2.9749577043157468e-05
-0.04118001318973353,-0.0017797336333151956,-3.0634238715544e-05
-0.040249305967029685,-0.0018000909631043865,-3.1529194864648895e-05
-0.03931120350809627,-0.001819981090473168,-3.2434212878043286e-05
-0.03836668491165142,-0.001839400562578105,-3.3349058291306103e-05
-0.037416679911126405,-0.0018583464037837995,-3.427349503289658e-05
-0.036462070809384316,-0.001876816091463927,-3.520728565670851e-05
-0.035503694747473835,-0.0018948075328531417,-3.615019156278778e-05
-0.03454234627034554,-0.0019123190431075965,-3.7101973206777965e-05
-0.03357878014443275,-0.001929349324711291,-3.806239029873269e-05
-0.03261371436711327,-0.0019458974483391775,-3.903120199199531e-05
-0.031647833293965186,-0.001961962835254447,-4.000816706289371e-05
-0.030681790805368703,-0.0019775452412792807,-4.0993044082027144e-05
-0.02971621344135487,-0.0019926447423409617,-4.19855915779322e-05
-0.028751703446397475,-0.0020072617215629,-4.2985568193908166e-05
-0.02778884167476689,-0.002021396857843191,-4.399273283875969e-05
-0.02682819030900704,-0.0020350511158391343,-4.500684483218027e-05
-0.025870295343346183,-0.0020482257372522227,-4.602766404545311e-05
-0.024915688785677695,-0.0020609222332844787,-4.7054951038087286e-05
-0.023964890538773872,-0.002073142378115592,-4.80884671909373e-05
-0.023018409935037922,-0.0020848882032340446,-4.912797483627471e-05
-0.02207674692047435,-0.0020961619924479225,-5.01732373851952e-05
-0.021140392909671072,-0.002106966277405459,-5.122401945265855e-05
-0.020209831356239313,-0.0021173038334719365,-5.22800869803779e-05
-0.019285538093915786,-0.0021271776758344752,-5.33412073577045e-05
-0.018367981500854266,-0.002136591055733168,-5.4407149540596414e-05
-0.01745762252981679,-0.0021455474567408355,-5.547768416871492e-05
-0.01655491463820535,-0.002154050591032841,-5.6552583680658334e-05
-0.015660303646716542,-0.0021621043956040714,-5.7631622427317564e-05
-0.014774227550788452,-0.0021697130284034478,-5.8714576783319444e-05
-0.013897116302245912,-0.002176880864366706,-5.980122525651198e-05
-0.013029391572363314,-0.0021836124913353584,-6.08913485954375e-05
-0.012171466505299995,-0.0021899127058547744,-6.198472989473503e-05
-0.011323745472283457,-0.00219578650884917,-6.308115469841102e-05
-0.010486623838691983,-0.002201239101176914,-6.418041110091755e-05
-0.00966048775516505,-0.002206275879075378,-6.528228984598062e-05
-0.008845713979717708,-0.0022109024295090987,-6.638658442312674e-05
-0.008042669732407907,-0.00221512452543713,-6.74930911618633e-05
-0.007251712578927795,-0.002218948121014964,-6.860160932347632e-05
-0.00647319033673615,-0.00222237934674388,-6.971194119041603e-05
-0.0057074409993914995,-0.002225424504577912,-7.082389215324648e-05
-0.004954792680636161,-0.0022280900629979192,-7.193727079514045e-05
-0.004215563584802296,-0.002230382652064279,-7.305188897390599e-05
-0.0034900620124741514,-0.0022323090584635977,-7.416756190153796e-05
-0.0027785864128386595,-0.0022338762205699257,-7.528410822129634e-05
-0.0020814254993631615,-0.002235091223547976,-7.640135008232582e-05
-0.0013988584518581256,-0.0022359612945357815,-7.751911321184676e-05
-0.0007311552312391036,-0.002236493797956556,-7.863722698496984e-05
-7.857702835403524e-05,-0.002236696231021454,-7.975552449221435e-05
0.0005586231469191454,-0.002236576219491813,-8.087384260484267e-05
0.0011801997508503372,-0.0022361415137673703,-8.199202203815746e-05
0.0017859138977466182,-0.002235399985355221,-8.31099074129381e-05
0.0023755324998558235,-0.0022343596237558204,-8.422734731521586e-05
0.0029488273970752553,-0.0022330285337815877,-8.53441943546002e-05
0.003505574515401298,-0.0022314149333034685,-8.646030522137147e-05
0.004045553089659142,-0.0022295271514022035,-8.75755407425479e-05
0.004568544981354302,-0.00222737362688445,-8.868976593711956e-05
0.005074334115312766,-0.002224962907110283,-8.980285007061825e-05
0.005562706050647463,-0.002222303647068793,-9.091466670916302e-05
0.006033447694700857,-0.002219404608632456,-9.202509377308833e-05
0.006486347163928905,-0.0022162746599177986,-9.31340135902259e-05
0.0069211937926716045,-0.0022129227746786485,-9.424131294887502e-05
0.007337778288083278,-0.00220935803165846,-9.53468831504593e-05
0.007735893028705055,-0.002205589613829263,-9.645062006183124e-05
0.008115332508457012,-0.0022016268074449724,-9.75524241671498e-05
0.008475893936292899,-0.002197479000833785,-9.865220061921948e-05
0.008817378007677039,-0.0021931556828477922,-9.974985929013988e-05
0.00913958986125414,-0.0021886664408805596,-0.00010084531482107196
0.009442340221990878,-0.0021840209583597484,-0.00010193848667088205
0.009725446715102283,-0.0021792290116254753,-0.00010302929916337835
0.009988735320752192,-0.002174300466116512,-0.00010411768153281385
0.01023204193275769,-0.0021692452718031345,-0.00010520356796729376
0.010455213983321283,-0.002164073457824115,-0.00010628689764970057
0.010658112097207715,-0.0021587951263039827,-0.0001073676147957326
0.010840611744273107,-0.0021534204453436123,-0.00010844566868864449
0.011002604868189662,-0.0021479596411904966,-0.00010952101371027801
0.011144001475434777,-0.0021424229896045903,-0.00011059360936797679
0.011264731168138293,-0.002136820806443697,-0.00011166342031698886
0.011364744601882165,-0.002131163437501192,-0.00011273041637797508
0.011444014852735721,-0.0021254612476375376,-0.00011379457254925977
0.011502538688706883,-0.002119724609252177,-0.0001148558690134822
0.011540337753368497,-0.002113963890141658,-0.00011591429113833065
0.011557459676479448,-0.002108189440784196,-0.00011696982947106212
0.011553979127455052,-0.002102411581083212,-0.00011802247972652897
0.011529998827010196,-0.0020966405865945957,-0.00011907224276844843
0.01148565053109378,-0.00209088667425507,-0.00012011912458366084
0.011421095995191687,-0.0020851599876234987,-0.00012116313624913049
0.011336527916819591,-0.002079470581645496,-0.00012220429389144774
0.011232170848507519,-0.002073828406954164,-0.00012324261863859765
0.011108282077477119,-0.002068243293722668,-0.00012427813656376685
0.010965152472780262,-0.0020627249350851037,-0.0001253108786209688
0.010803107294662639,-0.002057282870143243,-0.0001263408805722759
0.010622506945392554,-0.0020519264665832294,-0.00012736818290645752
0.010423747627424465,-0.0020466649029400254,-0.00012839283074883833
0.010207261872411545,-0.002041507150565066,-0.0001294148737622146
0.00997351891175764,-0.0020364619553690237,-0.00013043436603869812
0.009723024868639648,-0.0020315378194239245,-0.00013145136598239637
0.009456322756851944,-0.0020267429825175515,-0.00013246593618288175
0.00917399227235046,-0.0020220854037602508,-0.0001334781432794512
0.008876649360374652,-0.0020175727433520696,-0.00013448805781622928
0.0085649455351518,-0.002013212344628188,-0.00013549575408822433
0.008239566920540868,-0.0020090112165142646,-0.00013650130997850996
0.007901232971646632,-0.002004976016541218,-0.00013750480678677383
0.0075506948336721055,-0.0020011130345898884,-0.0001385063290495566
0.007188733296681879,-0.0019974281775573,-0.0001395059643525934
0.006816156312958695,-0.0019939269551548897,-0.00014050380313577145
0.006433796058914875,-0.001990614467061921,-0.00014149993849132565
0.006042505549137249,-0.001987495391659908,-0.0001424944659560061
0.0056431548438436105,-0.001984573976561663,-0.0001434874832980615
0.005236626923676491,-0.001981854031119783,-0.00014447909029998186
0.004823813327672713,-0.0019793389210569457,-0.00014546938853802604
0.004405609658514029,-0.001977031565310399,-0.00014645848115961787
0.003982911055909052,-0.0019749344351317932,-0.0001474464726597284
0.003556607728571008,-0.0019730495554356733,-0.00014843346865737027
0.003127580624367601,-0.0019713785083474386,-0.00014941957567331604
0.0026966973106744376,-0.001969922438863678,-0.0001504049009101188
0.002264808130266392,-0.0019686820625034428,-0.0001513895520354606
0.001832742687200908,-0.001967657674799076,-0.00015237363696978621
0.0014013067018640115,-0.0019668491624518095,-0.00015335726367909894
0.00097127925941845,-0.001966256015961489,-0.00015434053997370227
0.0005434104652194272,-0.0019658773435303296,-0.00015532357331357523
0.00011841951488042876,-0.0019657118860353048,-0.00015630647062096664
-0.00030300681605624697,-0.0019657580328605985,-0.0001572893381006906
-0.0007202152585297401,-0.001966013838379245,-0.00015827228106850058
-0.001132586707117927,-0.001966477038870657,-0.00015925540378781305
-0.0015395364414135175,-0.00196714506965779,-0.00016023880931494516
-0.001940513906148882,-0.0019680150822446807,-0.00016122259935292076
-0.002335002049719052,-0.0019690839612336477,-0.00016220687411379035
-0.0027225162292995463,-0.0019703483408034022,-0.00016319173218929962
-0.003102602700594808,-0.001971804620535876,-0.00016417727042963444
-0.0034748367204738497,-0.001973448980391143,-0.0001651635838298662
-0.0038388203017145207,-0.00197527739464669,-0.00016615076542362566
-0.004194179669723217,-0.0019772856446395493,-0.0001671389061834472
-0.004540562477200519,-0.00197946933017628,-0.00016812809492715116
-0.004877634829233209,-0.0019818238795028887,-0.00016911841822957096
-0.005205078157928914,-0.001984344557749679,-0.0001701099603388841
-0.005522585970190106,-0.001987026473781709,-0.00017110280309676695
-0.0058298604843741745,-0.00198986458539535,-0.0001720970258615612
-0.006126609176700635,-0.0019928537028106185,-0.0001730927054336127
-0.006412541272901826,-0.0019959884904230192,-0.0001740899159819211
-0.006687364234400945,-0.001999263466799845,-0.00017508872897122684
-0.006950780291699113,-0.00200267300293137,-0.00017608921308865963
-0.007202483071783212,-0.0020062113187722407,-0.00017709143416908555
-0.0074421543611804955,-0.0020098724781304816,-0.00017809545511831122
-0.007669461049538412,-0.0020136503819831613,-0.00017910133583333963
-0.007884052310818058,-0.0020175387603232502,-0.00018010913311891625
-0.008085557095919233,-0.0020215311626749347,-0.0001811189005996658
-0.008273582024930764,-0.0020256209474551474,-0.00018213068862719833
-0.008447709770879335,-0.0020298012704041,-0.00018314454418166316
-0.008607498015487967,-0.002034065072350692,-0.00018416051076735186
-0.008752479034305191,-0.0020384050666131404,-0.00018517862830209282
-0.008882159941585702,-0.002042813726357113,-0.00018619893300033538
-0.008996023602033661,-0.002047283272243018,-0.0001872214572499854
-0.009093530201223712,-0.0020518056606938324,-0.00018824622948321963
-0.009174119458044102,-0.0020563725731086494,-0.00018927327404167024
-0.009237213455918318,-0.00206097540633714,-0.0001903026110365317
-0.009282220063097086,-0.002065605264716894,-0.0001913342562042952
-0.009308536908925021,-0.0020702529539598996,-0.0001923682207589644
-0.009315555883317408,-0.0020749089771579603,-0.00019340451124174387
-0.009302668125038733,-0.0020795635331600495,-0.00019444312936932337
-0.009269269453770816,-0.002084206517554752,-0.00019548407188200206
-0.0092147661818904,-0.0020888275264636675,-0.00019652733039300668
-0.009138581223170251,-0.0020934158633149325,-0.00019757289124045134
-0.00904016040708627,-0.0020979605487224965,-0.0001986207353434607
-0.008918978911737936,-0.0021024503335522024,-0.00019967083806402938
-0.008774547739329619,-0.0021068737152149693,-0.00020072316907622116
-0.008606420166408788,-0.002111218957191404,-0.00020177769224432275
-0.008414198101281878,-0.0021154741117583266,-0.0002028343655115602
-0.008197538274695012,-0.002119627045852321,-0.00020389314080096284
-0.00795615818381634,-0.002123665469966949,-0.00020495396392991767
-0.007689841709713905,-0.0021275769699403316,-0.0002060167745398945
-0.007398444335905463,-0.0021313490414517364,-0.0002070815060427425
-0.007081897904867416,-0.0021349691270119296,-0.00020814808558485841
-0.006740214854995062,-0.0021384246552018952,-0.00020921643403041187
-0.006373491883022658,-0.0021417030818863996,-0.00021028646596468395
-0.005981912982245522,-0.0021447919331027167,-0.00021135808971843123
-0.005565751815316759,-0.0021476788493021075,-0.00021243120741403244
-0.005125373384418792,-0.0021503516306020415,-0.00021350571503400847
-0.004661234957477093,-0.0021527982826875154,-0.00021458150251233086
-0.004173886205958374,-0.0021550070629783743,-0.00021565845384874732
-0.0036639685197228564,-0.0021569665266597945,-0.00021673644724615686
-0.0031322134870958793,-0.0021586655721614993,-0.00021781535527086218
-0.002579440551765092,-0.0021600934856712147,-0.00021889504503532037
-0.0020065538719890603,-0.0021612399842771534,-0.00021997537840280745
-0.0014145384132342412,-0.002162095257348459,-0.00022105621221321384
-0.0008044553117673481,-0.0021626500057797095,-0.0002221373985289959
-0.00017743655894008549,-0.0021628954787473865,-0.00022321878490012768
0.0004653209311285688,-0.0021628235076543395,-0.0002243002146467281
0.001122561801139131,-0.0021624265369712724,-0.0002253815271578845
0.0017929792077055625,-0.0021616976517190613,-0.0002264625582050571
0.002475222187217662,-0.0021606306013703305,-0.00022754314026832945
0.003167903362190181,-0.0021592198199829786,-0.00022862310287366776
0.0038696069209790017,-0.0021574604424121862,-0.00022970227293926654
0.0045788968070945195,-0.0021553483164801677,-0.00023078047512898963
0.00529432505733515,-0.00215288001101406,-0.0002318575322108632
0.006014440224577698,-0.002150052819693582,-0.0002329332654185401
0.006737795808024305,-0.0021468647606854314,-0.00023400749481363483
0.007462958595162286,-0.0021433145720846348,-0.00023508003964682736
0.008188516803878856,-0.0021394017032348744,-0.00023615071871565724
0.00891308790529686,-0.0021351263020575805,-0.00023721935071698035
0.009635326009063498,-0.0021304891985789907,-0.0002382857545921395
0.010353928701597214,-0.0021254918849013256,-0.00023934974986300958
0.011067643244562591,-0.0021201364919147857,-0.0002404111569572136
0.011775272066165297,-0.0021144257630871036,-0.00024146979752096408
0.012475677507838795,-0.0021083630256936024,-0.00024252549471815926
0.013167785816370682,-0.00210195215986255,-0.0002435780735145483
0.013850590393252806,-0.0020951975658101444,-0.0002446273609459665
0.014523154330624401,-0.002088104129629175,-0.00024567318636982633
0.015184612278220648,-0.002080677187976964,-0.0002467153816992279
0.015834171697045204,-0.0020729224919831474,-0.00024775378161921794
0.016471113561785076,-0.00206484617066844,-0.0002487882237848808
0.017094792575867504,-0.002056454694134027,-0.0002498185490010814
0.017704636964297225,-0.002047754836748986,-0.0002508446013838022
0.018300147914847423,-0.0020387536405291995,-0.00025186622850312176
0.01888089874705607,-0.0020294583788637234,-0.00025288328150797
0.019446533891359127,-0.0020198765207041195,-0.00025389561523286196
0.019996767746949973,-0.002010015695294542,-0.0002549030882868616
0.020531383456956848,-0.0019998836574935653,-0.00025590556312505864
0.021050231605213816,-0.0019894882537280227,-0.00025690290610286406
