acceleration,velocity,displacement
0.02863038117695459,0.0,0.0
0.027938924609617066,1.4142326446642914e-05,3.5355816116607287e-09
0.02724894906159605,2.7939294864446192e-05,1.4055986939433004e-08
0.026561922932610827,4.139201286299791e-05,3.138881387129403e-08
0.025879289681727882,5.4502316016582586e-05,5.5362396091189155e-08
0.02520245606729244,6.727275245383767e-05,8.580616320879422e-08
0.024532781155253886,7.970656175947425e-05,1.225509917621222e-07
0.023871566244107065,9.180764860931449e-05,1.654295443543194e-07
0.023220045799507625,0.00010358055162021817,2.1427659441170255e-07
0.022579379445250247,0.00011503040793140764,2.68929334299609e-07
0.021950645028520965,0.00012616291404985043,3.292276647949235e-07
0.02133483277070461,0.00013698428349965682,3.950144641823003e-07
0.020732840521907832,0.00014750120182280993,4.66135835512917e-07
0.020145470138707985,0.00015772077948796387,5.424413308406104e-07
0.0195734249867683,0.00016765050326933293,6.237841515299346e-07
0.01901730853664636,0.0001772981866501866,7.100213240098145e-07
0.01847762398993897,0.00018667191978183293,8.010138506178194e-07
0.017954774858378306,0.00019578001949391226,8.966268354367557e-07
0.017449066420436116,0.00020463097981361587,9.967295852636377e-07
0.016960707988002064,0.00021323342341572542,1.101195686070973e-06
0.01648981592231887,0.00022159605439330565,1.209903055523231e-06
0.016036417342316138,0.0002297276127094644,1.3227339722989235e-06
0.015600454471193742,0.00023763683066284187,1.439575083142e-06
0.015181789568168133,0.0002453323916726823,1.560317388725881e-06
0.014780210387493269,0.0002528228916615977,1.684856209559451e-06
0.014395436091239628,0.0002601168032812809,1.8130911332951708e-06
0.014027123517085132,0.0002672224431833621,1.9449259449113315e-06
0.013674873678834075,0.0002741479424823419,2.0802685413277576e-06
0.013338238365907938,0.00028090122049352737,2.219030832071725e-06
0.013016726703757489,0.0002874899617609437,2.361128627635343e-06
0.012709811526861204,0.0002939215963185984,2.5064815171552283e-06
0.012416935398335502,0.00030020328304989757,2.6550127369973525e-06
0.012137516101139483,0.0003063418959247663,2.8066490317410183e-06
0.011870951441735307,0.000312344012810485,2.961320508924831e-06
0.011616623251191834,0.00031821590648371676,3.1189604887483815e-06
0.011373900531022751,0.0003239635374292704,3.2795053497266284e-06
0.011142141756405809,0.0003295925480011275,3.442894371084228e-06
0.010920696407082462,0.0003351082575419996,3.6090695724700097e-06
0.01070890584084078,0.0003405156581039804,3.777975551381505e-06
0.010506103649185567,0.000345819410476487,3.949559318526622e-06
0.010311615632775863,0.00035102384029697735,4.1237701312199876e-06
0.010124759512552971,0.00035613293408330956,4.300559324815059e-06
0.009944844473338396,0.0003611503350797824,4.479880142105833e-06
0.00977117063487517,0.0003660793388568358,4.661687560589988e-06
0.009603028555878832,0.0003709228886545243,4.845938117467828e-06
0.009439698886879242,0.0003756835705152138,5.032589732260262e-06
0.00928045229528038,0.0003803636083107537,5.221601526966754e-06
0.009124549791337555,0.0003849648588324082,5.412933643752544e-06
0.00897124357288722,0.00038948880717346436,5.606547060254012e-06
0.00881977846440655,0.0003939365626827878,5.8024034027180755e-06
0.008669393966041,0.0003983088557903997,6.000464757336372e-06
0.00851932688514304,0.0004026060360031957,6.2006934802847715e-06
0.008368814510481165,0.0004068280713521018,6.4030520071235955e-06
0.008217098287370819,0.0004109745495515648,6.6075026623495124e-06
0.008063427938214573,0.00041504468110796115,6.814007470014394e-06
0.00790706594837989,0.0004190373045796098,7.0225279664362865e-06
0.007747292316854555,0.0004229508941459184,7.233025016117668e-06
0.007583409463504282,0.0004267835695910081,7.4454586320519e-06
0.007414747188561907,0.00043053310875402465,7.659787801638158e-06
0.007240667588342172,0.0004341969624482507,7.875970319438727e-06
0.007060569840496992,0.00043777227180546047,8.093962628002155e-06
0.006873894783177061,0.000441255887961379,8.313719667943865e-06
0.006680129223691954,0.00044464439396309626,8.535194738424983e-06
0.006478809917680738,0.0004479341287484394,8.758339369102868e-06
0.006269527157461716,0.000451121213017225,8.983103204544283e-06
0.006051927904067259,0.0004542015767826073,9.20943390199424e-06
0.0058257183964695505,0.0004571709883577415,9.437277043279329e-06
0.005590666172011492,0.0004600250844998617,9.666576061493729e-06
0.00534660143070265,0.0004627594014005403,9.89727218296883e-06
0.005093417677020133,0.000465369406177471,1.0129304384863332e-05
0.004831071587644341,0.0004678505284936371,1.0362609368531109e-05
0.004559582087897847,0.00047019819191252267,1.0597121548632648e-05
0.004279028666112061,0.0004724078446010251,1.0832773057761035e-05
0.0039895490002864195,0.00047447498901762475,1.1069493766165698e-05
0.00369133600307227,0.00047639521026846443,1.1307211315987219e-05
0.0033846344025858935,0.000478164202869879,1.1545851169271804e-05
0.0030697369685973646,0.0004797777957126748,1.1785336668917443e-05
0.0027469804750457987,0.0004812319750735856,1.2025589111614008e-05
0.002416741472616531,0.0004825229055605012,1.226652783177253e-05
0.002079431938506915,0.00048364694891328205,1.2508070295390976e-05
0.0017354948740543644,0.0004846006806164224,1.2750132202773402e-05
0.0013853999218937049,0.00048538090431540944,1.299262759900636e-05
0.0010296390591800467,0.0004859846640606779,1.3235468991100381e-05
0.0006687223922219232,0.0004864092544235284,1.3478567470721433e-05
0.00030317404326402867,0.0004866522285323999,1.3721832841460415e-05
-6.64719060317947e-05,0.00048671140406670796,1.3965173749610192e-05
-0.0004396754599105247,0.0004865848672252224,1.4208497817433174e-05
-0.0008158947747875123,0.00048627097466654785,1.4451711777906117e-05
-0.0011945902433204056,0.00048576835341202087,1.469472160992576e-05
-0.001575228555811608,0.0004850758987122379,1.4937432672956824e-05
-0.0019572866810573628,0.00048419276990302067,1.5179749840110639e-05
-0.0023402557117265,0.0004831183843048247,1.54215776286626e-05
-0.002723644522212662,0.00048185240924633995,1.566282032705039e-05
-0.003106983173096083,0.00048039475232251275,1.5903382117442604e-05
-0.0034898259686148175,0.00047874555003708504,1.6143167193032505e-05
-0.0038717540459041124,0.00047690515503345533,1.638207986930014e-05
-0.004252377359781523,0.00047487412218203393,1.6620024688604012e-05
-0.004631335935242139,0.000472653193858278,1.685690651761409e-05
-0.005008300298157191,0.0004702432847999282,1.709263063727864e-05
-0.0053829710526728,0.00046764546696222067,1.7327102825219177e-05
-0.005755077628158237,0.0004648609547920129,1.7560229430657735e-05
-0.006124376255320846,0.00046189109132114317,1.7791917442186023e-05
-0.006490647255458283,0.0004587373354434484,1.802207454887717e-05
-0.006853691744837225,0.0004554012506933745,1.8250609195411377e-05
-0.007213327860538035,0.0004518844957920307,1.8477430632032728e-05
-0.007569386600582171,0.00044818881717675066,1.8702448960274924e-05
-0.007921707354470406,0.0004443160436879875,1.8925575175491107e-05
-0.008270133201470227,0.00044026808354900236,1.9146721207300355e-05
-0.008614506076853537,0.0004360469237294214,1.936579995911996e-05
-0.00895466193448686,0.0004316546317265863,1.9582725347983964e-05
-0.009290426050387718,0.00042709335973036764,1.97974123458482e-05
-0.009621608608948652,0.00042236535106553354,2.0009777023547177e-05
-0.009948000689668552,0.0004174729487408792,2.021973659849878e-05
-0.010269370727155714,0.00041241860588667314,2.042720948715567e-05
-0.010585461459466471,0.0004072048978400176,2.0632115363087344e-05
-0.010895987330682408,0.00040183453564248035,2.0834375221457967e-05
-0.011200632293093067,0.00039631038073653646,2.103391145055272e-05
-0.011499047961786819,0.0003906354606728165,2.1230647910905057e-05
-0.011790852091346806,0.00038481298565953305,2.1424510022488144e-05
-0.012075627353650979,0.0003788463657982836,2.1615424860352597e-05
-0.012352920395974003,0.0003727392288608774,2.1803321259017386e-05
-0.012622241159272893,0.00036649543847206567,2.198812992585062e-05
-0.012883062447118501,0.0003601191125704678,2.2169783563611253e-05
-0.013134819756942882,0.00035361464201945245,2.2348217002258732e-05
-0.013376911409595864,0.0003469867092278178,2.252336734007055e-05
-0.013608699029323983,0.0003402403066180878,2.2695174094032026e-05
-0.013829508427643841,0.00033338075475384583,2.286357935937501e-05
-0.014038630934779283,0.00032641371991324003,2.302852797804178e-05
-0.01423532521271799,0.00031934523087636573,2.318996771573918e-05
-0.014418819579248506,0.0003121816946783741,2.3347849447127867e-05
-0.014588314867917904,0.0003049299110665825,2.3502127348564107e-05
-0.014742987839099072,0.0002975970853898282,2.365275909767821e-05
-0.01488199514050254,0.0002901908396449278,2.37997060789369e-05
-0.015004477790944402,0.0002827192214120661,2.394293359420115e-05
-0.015109566131361572,0.0002751907104314896,2.4082411077162037e-05
-0.015196385160356438,0.0002676142226085601,2.4218112310422048e-05
-0.015264060157991024,0.00025999911127897325,2.435001564389393e-05
-0.015311722505246386,0.0002523551656131639,2.4478104213116965e-05
-0.015338515623475065,0.00024469260608098354,2.46023661560405e-05
-0.01534360097972864,0.0002370220769301826,2.472279482679329e-05
-0.01532616411903809,0.00022935463565549092,2.483938900493971e-05
-0.015285420689560103,0.00022170173945334137,2.495215309871692e-05
-0.015220622430047076,0.00021407522867343957,2.5061097340748613e-05
-0.015131063100865852,0.00020648730729071134,2.516623797473965e-05
-0.01501608435420471,0.0001989505204269437,2.5267597431669064e-05
-0.014875081546528309,0.00019147772895176045,2.536520449401374e-05
-0.014707509499052444,0.00018408208119036527,2.5459094446549273e-05
-0.014512888216341861,0.0001767769817615167,2.5549309212287244e-05
-0.014290808574796107,0.0001695760575637322,2.5635897472118555e-05
-0.014040937983206986,0.00016249312092423142,2.5718914766740546e-05
-0.013763025995000091,0.00015554212992967964,2.5798423579454023e-05
-0.013456909821777096,0.00014873714597548536,2.5874493398430314e-05
-0.013122519668226786,0.0001420922886029844,2.5947200757074932e-05
-0.01275988378673081,0.000135621687739245,2.601662925116049e-05
-0.012369133143125426,0.00012933943350678094,2.6082869531471994e-05
-0.011950505597017498,0.00012325952382174522,2.6146019270804126e-05
-0.01150434952653101,0.00011739581004085809,2.6206183104269776e-05
-0.011031126858222018,0.00011176194094466984,2.626347254201616e-05
-0.010531415488023567,0.00010637130535810844,2.6318005853591853e-05
-0.010005911093870924,0.00010123697371263482,2.636990792335954e-05
-0.009455428345194567,9.637163885286845e-05,2.6419310076500916e-05
-0.008880901509227233,9.1787556389263e-05,2.646634987531145e-05
-0.008283384438594167,8.749648490230764e-05,2.6511170885634342e-05
-0.007664049901192732,8.350962631736092e-05,2.655392241343926e-05
-0.007024188187524421,7.983756679518163e-05,2.6594759211717396e-05
-0.006365204911144344,7.649021852051444e-05,2.663384115804632e-05
-0.005688617914612207,7.347676281407529e-05,2.667133290337997e-05
-0.004996053211237835,7.080559503261278e-05,2.670740349284164e-05
-0.0042892399255606796,6.848427174841315e-05,2.6742225959536898e-05
-0.0035700042242279395,6.651946071096599e-05,2.6775976892651743e-05
-0.002840262239181077,6.491689409511374e-05,2.6808835981353263e-05
-0.0021020119828937217,6.368132553959504e-05,2.684098553626194e-05
-0.0013573242599241888,6.281649147889056e-05,2.6872609990516563e-05
-0.0006083325979873572,6.232507726441268e-05,2.690389538270239e-05
0.00014277775255258992,6.220868855305398e-05,2.6935028824156754e-05
0.000893781675804893,6.246782841014335e-05,2.6966197953397552e-05
0.0016424268031338465,6.310188052987803e-05,2.6997590380632557e-05
0.0023864467564333994,6.410909891976984e-05,2.7029393125494968e-05
0.0031235748747342894,6.548660432756176e-05,2.7061792051306802e-05
0.00385155825458425,6.72303876098914e-05,2.7094971299291165e-05
0.0045681719124227044,6.933532015164314e-05,2.7129112726231548e-05
0.005271232860539717,7.179517134488374e-05,2.716439534910568e-05
0.005958613880972083,7.460263303026169e-05,2.7200994800199465e-05
0.006628256786453322,7.774935069711804e-05,2.723908279613131e-05
0.0072781849757863285,8.122596113767795e-05,2.727882662409001e-05
0.007906515116399152,8.502213616072431e-05,2.732038864841461e-05
0.008511467808742734,8.912663189200979e-05,2.7363925840427794e-05
0.009091377106049382,9.352734312070782e-05,2.7409589334180972e-05
0.009644698789924704,9.821136209470134e-05,2.7457524010484823e-05
0.010170017337300333,0.0001031650411265076,2.7507868111290125e-05
0.010666051542833475,0.00010837405834654105,2.7560752886158386e-05
0.011131658777832969,0.00011382348592670766,2.7616302272226696e-05
0.011565837888383826,0.00011949786009326185,2.7674632608731688e-05
0.011967730775233295,0.00012538125225916612,2.7735852386819796e-05
0.012336622744703814,0.0001314573406391504,2.7800062035044377e-05
0.012671941747023114,0.00013770948176208212,2.7867353740644686e-05
0.012973256612387034,0.00014412078135193467,2.793781130642319e-05
0.013240274365369887,0.00015067416409637391,2.8011510042785266e-05
0.013472836664797013,0.00015735244185391563,2.8088516694272836e-05
0.013670915391281848,0.00016413837986793534,2.8168889399703298e-05
0.013834607391531762,0.00017101476056363875,2.825267768481119e-05
0.01396412838979855,0.00017796444450897132,2.8339922486079343e-05
0.014059806096040243,0.00018497042813043102,2.8430656204239195e-05
0.014122072574612007,0.00019201589779809408,2.8524902785721325e-05
0.014151455975457401,0.00019908427993561143,2.8622677830154752e-05
0.014148571758116443,0.0002061592868690049,2.8723988721855906e-05
0.014114113548666238,0.00021322495819570058,2.8828834783122083e-05
0.014048843758821076,0.0002202656975225724,2.893720744705165e-05
0.013953584069637062,0.00022726630447968694,2.9049090447552215e-05
0.013829205850683765,0.00023421200195976715,2.9164460024162078e-05
0.013676620562956331,0.00024108845856317718,2.9283285139292813e-05
0.013496770191702881,0.00024788180625184196,2.940552770549657e-05
0.013290617775437915,0.00025457865324362715,2.9531142820370438e-05
0.013059138128837399,0.000261166092219696,2.966007900673627e-05
0.01280330888547045,0.00026763170397327296,2.979227845578451e-05
0.012524102007850996,0.0002739635566966033,2.992767727095198e-05
0.012222475930348139,0.0002801502011811531,3.006620571042142e-05
0.011899368510385986,0.00028618066229133666,3.0207788426289544e-05
0.011555690956096692,0.0002920444271579573,3.0352344698651868e-05
0.011192322876040502,0.0002977314306159916,3.0499788663095355e-05
0.01081010856819214,0.0003032320384770498,3.0650029530368615e-05
0.010409854632085993,0.0003085370292771193,3.080297179730716e-05
0.009992328940598393,0.0003136375751702904,3.095851544841901e-05
0.009558260941376864,0.0003185252226407842,3.111655614787178e-05
0.009108343182058429,0.000323191873671643,3.127698542194989e-05
0.00864323388737188,0.0003276297679390006,3.143969083235255e-05
0.008163560376009326,0.0003318314665048459,3.1604556140963506e-05
0.0076699230957910395,0.000335789837372796,3.1771461466932915e-05
0.007162900070919273,0.0003394980431644736,3.1940283437067236e-05
0.006643051582552377,0.00034294953107784153,3.2110895330627816e-05
0.0061109249324008165,0.00034613802520657984,3.228316721969892e-05
0.00556705916296893,0.00034905752123042227,3.245696610630817e-05
0.005011989629097466,0.0003517022834284389,3.263215605747288e-05
0.004446252339476864,0.00035406684392058244,3.2808598339310134e-05
0.0038703880188163176,0.00035614600401015576,3.2986151551292815e-05
0.0032849458795238466,0.0003579348374847408,3.316467176166654e-05
0.0026904871251220925,0.0003594286957359023,3.33440126449717e-05
0.0020875882215619108,0.00036062321457257327,3.3524025622548814e-05
0.0014768439599804576,0.0003615143226179589,3.3704560006846445e-05
0.0008588703049452972,0.00036209825118419035,3.388546315029698e-05
0.00023430699812173144,0.0003623715455099571,3.406658059947052e-05
-0.00039618011729346416,0.00036233107723016413,3.424775625515555e-05
-0.0010318970782565461,0.0003619740579312766,3.442883253894591e-05
-0.0016721201107934662,0.00036129805363401414,3.460965056683723e-05
-0.0023160942844610505,0.0003603010000352005,3.4790050330254535e-05
-0.0029630325215284315,0.00035898121833370314,3.496987088484676e-05
-0.0036121149534328783,0.0003573374314649628,3.514895054729642e-05
-0.004262488603910151,0.0003553687805756271,3.5327127100306566e-05
-0.004913267381183227,0.0003530748415793537,3.550423800584531e-05
-0.005563532383289353,0.00035045564163823555,3.5680120626649705e-05
-0.006212332550880418,0.0003475116754046931,3.5854612455910436e-05
-0.006858685725479989,0.000344243920835603,3.602755135497051e-05
-0.007501580180102466,0.0003406538543592074,3.619877579876921e-05
-0.008139976686209692,0.00033674346514262935,3.6368125128644664e-05
-0.008772811173115493,0.0003325152681777981,3.653543981197477e-05
-0.009398998028696037,0.0003279723158773452,3.670056170798856e-05
-0.01001743408156651,0.0003231182078497796,3.686333433892034e-05
-0.010627003283892428,0.00031795709850841486,3.702360316550989e-05
-0.01122658207273833,0.00031249370216925715,3.718121586567931e-05
-0.011815045338903582,0.0003067332953163467,3.733602261505071e-05
-0.012391272903218528,0.0003006817157558162,3.748787636781875e-05
-0.01295415640438094,0.0002943453584289163,3.7636633136364934e-05
-0.013502606523265178,0.0002877311676970048,3.778215226789642e-05
-0.014035560480799255,0.0002808466259459887,3.792429671630716e-05
-0.014551989739839158,0.0002736997383908291,3.806293330739137e-05
-0.015050907821804101,0.0002662990140004183,3.819793299548918e-05
-0.01553137812603179,0.0002586534425134593,3.832917110961765e-05
-0.01599252162102872,0.0002507724675766942,3.845652758714019e-05
-0.01643352426655216,0.00024266595610479897,3.857988719306056e-05
-0.016853644027213736,0.0002343441640313575,3.8699139723094595e-05
-0.017252217351913512,0.00022581769868657567,3.8814180188774076e-05
-0.017628665012134722,0.00021709747809556363,3.892490898296961e-05
-0.01798249720567788,0.00020819468754111048,3.903123202437878e-05
-0.018313317836661645,0.0001991207337805256,3.913306087970919e-05
-0.018620827884881924,0.00018988719735013972,3.9230312862491857e-05
-0.018904827791977028,0.00018050578343092497,3.932291110768712e-05
-0.019165218823436116,0.0001709882717770717,3.941078462148912e-05
-0.019402003402328453,0.00016134646622063055,3.949386830598855e-05
-0.019615284439467983,0.00015159214426018145,3.9572102958608754e-05
-0.019805263712071614,0.00014173700722229653,3.964543524647937e-05
-0.019972239384872286,0.00013179263144806055,3.971381765614696e-05
-0.02011660281675613,0.00012177042089765345,3.977720841923339e-05
-0.020238834818085773,0.00011168156148894298,3.983557141483004e-05
-0.020339501495257525,0.00010153697741060715,3.988887604955493e-05
-0.020419249754284517,9.134728959822163e-05,3.993709711630714e-05
-0.02047880247380866,8.112277654119833e-05,3.998021463284199e-05
-0.020518953329616785,7.087333759034196e-05,4.001821366137488e-05
-0.020540561256072076,6.0608458943919746e-05,4.005108411050844e-05
-0.02054454454286615,5.033718249418519e-05,4.007882052086797e-05
-0.02053187457103434,4.006807771571007e-05,4.0101421835920444e-05
-0.02050356919154633,2.9809216775064904e-05,4.0118891159543137e-05
-0.020460685752541372,1.956815303904298e-05,4.013123550199667e-05
-0.020404313787301485,9.351903154082265e-06,4.013846551604495e-05
-0.02033556737731579,-8.330671370720522e-07,4.01405952250492e-05
-0.020255577203215594,-1.0980853282204898e-05,4.013764174494438e-05
-0.020165482297790298,-2.108611815745637e-05,4.0129625002084465e-05
-0.020066421521582264,-3.114409411229951e-05,4.011656744901703e-05
-0.019959524789481875,-4.115058069006554e-05,4.0098493780316434e-05
-0.019845904086637153,-5.11019379090953e-05,4.007543065066664e-05
-0.019726644327740007,-6.099507501268959e-05,4.0047406397436196e-05
-0.019602794135174646,-7.082743462841825e-05,4.001445077002592e-05
