acceleration,velocity,displacement
0.02350720005625627,0.0,0.0
0.023810546783296464,1.1829436709888183e-05,2.9573591774720458e-09
0.024122778227138646,2.381276796249696e-05,1.1867910345568331e-08
0.02444331616859754,3.5954291561431006e-05,2.6809675226550323e-08
0.024771458504093846,4.8257985229603856e-05,4.786274442430904e-08
0.025106385728813192,6.0727446287830615e-05,7.510910230366765e-08
0.025447168615350606,7.336583487387156e-05,1.086324225940932e-07
0.025792777037689563,8.61758212871316e-05,1.4851783663434397e-07
0.026142089839278824,9.91595380063737e-05,1.948516764577203e-07
0.02649390558909844,0.000112318536863468,2.477211951751807e-07
0.026846954031510828,0.00012565375176862032,3.072142673332028e-07
0.027199908020045214,0.00013916546728150934,3.734190720957352e-07
0.027551395721415246,0.00015285329321687447,4.4642376222033115e-07
0.027900012874927285,0.0001667161453659601,5.263161218660398e-07
0.028244334896952612,0.00018075223230893007,6.131832162847623e-07
0.028582928635570826,0.00019495904819206094,7.071110364100101e-07
0.028914363604042266,0.0002093333712519642,8.081841412710164e-07
0.029237222545769156,0.00022387126778941705,9.164853010313617e-07
0.029550111205980386,0.00023856810122735444,1.0320951432855546e-06
0.02985166721208245,0.00025341854583187015,1.1550918050503608e-06
0.030140567997882953,0.0002684166046343615,1.2855505926669187e-06
0.030415537738202467,0.0002835556310683829,1.4235436515926049e-06
0.03067535328205712,0.00029882835382344776,1.5691396478155626e-06
0.03091884908836566,0.00031422690441605347,1.722403462375438e-06
0.03114492118570749,0.00032974284698457173,1.883395900225594e-06
0.03135253019568755,0.0003453672098299205,2.052173414429217e-06
0.03154070347093941,0.0003610905182465772,2.2287878464483412e-06
0.0317085364009805,0.0003769028282145572,2.4132861830636247e-06
0.03185519293590484,0.00039279376054877853,2.6057103302544587e-06
0.031979905375225846,0.0004087525351265612,2.8060969041732935e-06
0.03208197347102854,0.0004247680048381248,3.014477039164465e-06
0.03216076290194765,0.00044082868893136886,3.2308762126068385e-06
0.03221570318565175,0.0004569228054532687,3.455314086202998e-06
0.03224628510796382,0.0004730383025266726,3.6878043631979833e-06
0.03225205775064078,0.0004891628882413237,3.928354660889982e-06
0.03223262519547965,0.0005052840589778538,4.176966397694777e-06
0.032187642974010125,0.0005213891260202262,4.433634693944297e-06
0.03211681432344894,0.000537465240344591,4.698348285535501e-06
0.032019886298866554,0.0005534994155001699,4.9710894494966915e-06
0.031896645774212376,0.0005694785485184397,5.251833940501344e-06
0.03174691534293541,0.0005853894387977266,5.540550937330385e-06
0.03157054911273462,0.0006012188049116441,5.837202998257728e-06
0.0313674283869686,0.0006169532992865699,6.141746024307282e-06
0.03113745723563229,0.0006325795206922201,6.454129229301979e-06
0.03088055797362856,0.0006480840244945354,6.7742951155986675e-06
0.030596666578409704,0.0006634533306325449,7.102179454380438e-06
0.030285728092219806,0.0006786739293002023,7.4377112693636245e-06
0.02994769206570937,0.0006937322843396846,7.780812822773596e-06
0.02958250811231004,0.0007086148343841894,8.131399602454564e-06
0.029190121661499677,0.0007233079918276419,8.489380309007522e-06
0.028770470025156154,0.0007377981397493059,8.854656841901759e-06
0.028323478918335063,0.0007520716269851787,9.22712428358538e-06
0.027849059594769018,0.0007661147616134547,9.606670880735038e-06
0.02734710675885734,0.0007799138032018613,9.993178021938868e-06
0.026817497395927543,0.0007934549542405575,1.0386520211299473e-05
0.02626009062476674,0.000806724351245731,1.0786565037671045e-05
0.02567472863047704,0.000819708056059542,1.1193173139497364e-05
0.025061238691320566,0.0008323920478899914,1.1606198165484748e-05
0.024419436277264978,0.0008447622166321378,1.202548673161528e-05
0.02374912917231071,0.0008568043579945317,1.2450878375271946e-05
0.023050122553723452,0.0008685041709260402,1.288220550750209e-05
0.022322224945445324,0.0008798472578008324,1.3319293364683809e-05
0.02156525495443746,0.0008908191277758031,1.3761959961077967e-05
0.02077904870169545,0.0009014052036898364,1.4210016043944378e-05
0.019963467868091955,0.0009115908328322832,1.4663265053074908e-05
0.019118408276243573,0.0009213613018683671,1.5121503086750071e-05
0.018243808919527198,0.0009307018561673098,1.558451887625899e-05
0.01733966133329654,0.0009395977237305158,1.605209377123345e-05
0.016406019184358432,0.0009480341438599294,1.652400173813106e-05
0.01544300793126901,0.0009559964006388363,1.700000937425575e-05
0.014450834382080294,0.0009634698612171736,1.747987593971975e-05
0.01342979595574776,0.0009704400188016306,1.7963353409724453e-05
0.012380289444029116,0.0009768925401515748,1.8450186549462755e-05
0.011302819071795945,0.000982813317280531,1.894011301382078e-05
0.010198003664784416,0.000988188522964676,1.9432863473882083e-05
0.009066582757417972,0.0009930046695702265,1.992816177201581e-05
0.007909421509500674,0.0009972486706369562,2.0425725107067606e-05
0.0067275143428068675,0.001000907904600033,2.0925264250876854e-05
0.0055219872468176825,0.0010039702799974392,2.1426483797026222e-05
0.004294098729339046,0.0010064243014914784,2.192908244239845e-05
0.0030452394009493236,0.0010082591360240504,2.2432753301777332e-05
0.0017769301875320545,0.0010094646784211707,2.2937184255388637e-05
0.0004908191732618576,0.0010100316157613692,2.3442058328934273e-05
-0.0008113229057097847,0.0010099514898282572,2.3947054105331678e-05
-0.002127608470133459,0.0010092167569842965,2.4451846167034817e-05
-0.003456040132085901,0.0010078208448337416,2.4956105567489327e-05
-0.004794518849715612,0.0010057582050882912,2.5459500329969836e-05
-0.00614085307978355,0.0010030243621059164,2.5961695971768387e-05
-0.007492768803529424,0.0009996159566350881,2.646235605145364e-05
-0.00884792030956399,0.0009955307843568149,2.6961142736701614e-05
-0.010203901626002753,0.0009907678288729232,2.745771739000905e-05
-0.01155825849874435,0.0009853272888417364,2.7951741169437714e-05
-0.012908500815877882,0.0009792105990130808,2.844287564140142e-05
-0.014252115379682238,0.0009724204449641907,2.8930783402395735e-05
-0.01558657892435063,0.0009649607713881824,2.9415128706483827e-05
-0.01690937126797333,0.0009568367838401014,2.9895578095290897e-05
-0.018217988475585856,0.0009480549439042117,3.0371801027226975e-05
-0.019509955900376536,0.0009386229578102211,3.0843470502655583e-05
-0.020782840964524905,0.0009285497585939958,3.1310263681756636e-05
-0.02203426554277947,0.0009178454819671697,3.1771862491896924e-05
-0.023261917824088266,0.0009065214361254527,3.222795422142008e-05
-0.024463563549261748,0.0008945900657821152,3.2678232096896974e-05
-0.02563705655060891,0.0008820649107571475,3.3122395841031786e-05
-0.026780348546557947,0.0008689605594828559,3.356015220859179e-05
-0.027891498165829483,0.000855292597804759,3.39912154979137e-05
-0.028968679189617548,0.0008410775534658973,3.4415308035731364e-05
-0.030010188006885465,0.0008263328366667716,3.483216063326453e-05
-0.031014450279938297,0.0008110766770950657,3.524151301170499e-05
-0.03198002681912022,0.000795328057820301,3.5643114195433834e-05
-0.03290561866879689,0.0007791066464483217,3.603672287150099e-05
-0.033790071409499065,0.0007624327239287477,3.642210771409526e-05
-0.0346323786793763,0.0007453271114065289,3.679904767292908e-05
-0.03543168491167629,0.0007278110955087658,3.7167332224657905e-05
-0.03618728727905493,0.000709906352461083,3.7526761586650365e-05
-0.03689863683433754,0.0006916348714327348,3.787714689262382e-05
-0.03756533883872328,0.0006730188775144696,3.8218310329860624e-05
-0.03818715226672909,0.0006540807547381065,3.855008523792377e-05
-0.03876398847072709,0.0006348429695537425,3.8872316168996735e-05
-0.039295908980699935,0.0006153279951908857,3.918485891018289e-05
-0.03978312241053699,0.0005955582373430764,3.948758046831638e-05
-0.040225980442445526,0.0005755559616298308,3.978035901805961e-05
-0.04062497286659243,0.0005553432233025713,4.006308381429271e-05
-0.04098072166564808,0.0005349417996695112,4.033565507003573e-05
-0.0412939741525047,0.000514373125714973,4.059798380138185e-05
-0.041565595192130135,0.0004936582333788142,4.084999164115529e-05
-0.04179655856397422,0.0004728176949397881,4.109161062323494e-05
-0.041987937544564036,0.00045187157091265353,4.1322782939698054e-05
-0.04214089480268561,0.0004308393628258411,4.1543460673132675e-05
-0.04225667170048572,0.0004097399712000483,4.175360550663915e-05
-0.04233657709152562,0.00038859165900204546,4.1953188414189676e-05
-0.04238197570631528,0.00036741202080258525,4.214218933414083e-05
-0.0423942762152429,0.0003462179578221957,4.2320596828797024e-05
-0.04237491905969364,0.00032502565900346155,4.248840773300344e-05
-0.04232536415212979,0.0003038505882005057,4.264562679480443e-05
-0.04224707856805237,0.0002827074775204602,4.2792266311234674e-05
-0.04214152437942156,0.0002616103267835917,4.292834576231069e-05
-0.04201014679685933,0.00024057240898952146,4.305389144625397e-05
-0.04185436278661161,0.00021960628159365373,4.316893611889976e-05
-0.04167555030863985,0.00019872380331984087,4.3273518640128136e-05
-0.041475038295311434,0.00017793615616885304,4.3367683630000306e-05
-0.041254097466417804,0.00015725387222842072,4.3451481137099625e-05
-0.04101393205758054,0.00013668686484742115,4.3524966321368584e-05
-0.040755672522013835,0.00011624446370252255,4.358819915350607e-05
-0.04048036924836021,9.593545325992904e-05,4.3641244132746684e-05
-0.04018898732276871,7.576811411714681e-05,4.3684170024590954e-05
-0.03988240235689292,5.575026669723141e-05,4.371704961979455e-05
-0.03956139740580726,3.588931675655636e-05,4.3739959515658e-05
-0.03922666100297233,1.6192302154361464e-05,4.3752979920385725e-05
-0.03887878633365375,-3.3340596797950572e-06,4.3756194481004366e-05
-0.038518271551518476,-2.2683324151088115e-05,4.374969013504664e-05
-0.038145521221342425,-4.1849272344303344e-05,4.3733556985922793e-05
-0.03776084884952755,-6.082586486202084e-05,4.3707888201621213e-05
-0.03736448044490797,-7.960719718562972e-05,4.36727799361093e-05
-0.03695655903483331,-9.818745705556504e-05,4.3628331272549e-05
-0.03653715004755644,-0.00011656088432616248,4.3574644187203566e-05
-0.036106247465749974,-0.0001347217337044891,4.3511823532695905e-05
-0.0356637806576973,-0.0001526642407353509,4.3439977039085944e-05
-0.03520962179532225,-0.00017038259134860578,4.335921533106495e-05
-0.034743593764683695,-0.00018787089523860726,4.326965195941815e-05
-0.0342654784649233,-0.00020512316329600902,4.3171403444784495e-05
-0.033775025380476394,-0.00022213328925735893,4.306458933164615e-05
-0.033271960301046746,-0.00023889503567773972,4.2949332250412375e-05
-0.032755994054455805,-0.00025540202426661536,4.282575798542629e-05
-0.032226831110459535,-0.0002716477305578442,4.2693995546720175e-05
-0.031684177912652996,-0.0002876254828136224,4.255417724337731e-05
-0.031127750804440833,-0.0003033284649928958,4.240643875642568e-05
-0.030557283435288535,-0.0003187497235528282,4.225091920928925e-05
-0.0299725335620423,-0.0003338821778021609,4.20877612339505e-05
-0.029373289190774133,-0.000348718633490365,4.191711103112737e-05
-0.028759374031802745,-0.00036325179929600924,4.173911842293078e-05
-0.02813065226195284,-0.00037747430586944814,4.155393689663941e-05
-0.027487032605247864,-0.0003913787270862483,4.136172363840049e-05
-0.026828471759993044,-0.0004049576031775585,4.116263955583454e-05
-0.026154977218409828,-0.0004182034654221592,4.0956849288684605e-05
-0.025466609540158787,-0.00043110886211180136,4.0744521206801115e-05
-0.02476348414829176,-0.000443666385533914,4.0525827394889685e-05
-0.02404577271915696,-0.00045586869975077616,4.0300943623568515e-05
-0.023313704243163612,-0.0004677085689913563,4.007004930638298e-05
-0.02256756583726938,-0.0004791788865114646,3.9833327442507275e-05
-0.021807703382366483,-0.0004902727038163735,3.9590964544925313e-05
-0.021034522037030382,-0.0005009832601712227,3.9343150553928414e-05
-0.020248486650912115,-0.0005113040123432082,3.909007873579981e-05
-0.01945012207405112,-0.000521228664524449,3.883194556658289e-05
-0.018640013337087976,-0.0005307511983772338,3.856895060085747e-05
-0.01781880566606812,-0.0005398659031280228,3.830129632548116e-05
-0.016987204298593343,-0.0005485674056191882,3.802918799829436e-05
-0.016145974081760182,-0.0005568507002142765,3.7752833471835996e-05
-0.01529593884291355,-0.000564711178445445,3.747244300217106e-05
-0.014437980518461537,-0.0005721446582857887,3.7188229042988254e-05
-0.013573038004602205,-0.0005791474129165547,3.690040602518767e-05
-0.012702105673258808,-0.0005857161988360199,3.660919012224953e-05
-0.011826231493190238,-0.0005918482831276322,3.6314799001758614e-05
-0.01094651471290568,-0.0005975414696791562,3.6017451563556917e-05
-0.010064103088299185,-0.0006027941241294574,3.5717367665104766e-05
-0.009180189661386265,-0.0006076051973168788,3.541476783474318e-05
-0.008296009110974108,-0.0006119742470099688,3.510987297366146e-05
-0.007412833703076016,-0.0006159014577134813,3.4802904047480604e-05
-0.006531968871942115,-0.0006193876583572359,3.4494081768462924e-05
-0.005654748460680613,-0.0006224343376903915,3.418362626945102e-05
-0.004782529639584959,-0.000625043657215458,3.387175677072456e-05
-0.0039166875016091686,-0.0006272184615007565,3.35586912410455e-05
-0.003058609316022825,-0.0006289622857051644,3.324464605424402e-05
-0.002209688413292828,-0.0006302793601374934,3.292983564278335e-05
-0.0013713176823153396,-0.0006311746116613954,3.261447214983363e-05
-0.0005448826818821124,-0.0006316536617524448,3.229876508148017e-05
0.00026824561041464604,-0.0006317228210203117,3.198292096078698e-05
0.0010667183760950738,-0.0006313890800236843,3.166714298552598e-05
0.001849216816641648,-0.0006306600962255001,3.1351630691463686e-05
0.0026144602396483076,-0.0006295441769614276,3.103657962316695e-05
0.0033612142935008603,-0.0006280502583281404,3.072218101434456e-05
0.0040882992577479585,-0.0006261878799403281,3.0408621479777445e-05
0.004794598283599876,-0.0006239671555549912,3.0096082720903614e-05
0.005479065461799504,-0.0006213987396186414,2.9784741247110206e-05
0.006140733570410518,-0.0006184937898605888,2.9474768114740398e-05
0.0067787213312470234,-0.0006152639261351744,2.9166328685741457e-05
0.007392239992161881,-0.0006117211858043222,2.8859582407756583e-05
0.007980599058630218,-0.0006078779760416242,2.8554682617295098e-05
0.008543211018364149,-0.0006037470235223756,2.82517763674041e-05
0.009079594929483325,-0.0005993413220354137,2.795100428101465e-05
0.00958937877244872,-0.0005946740786099307,2.7652500430853314e-05
0.010072300501073175,-0.0005897586587915503,2.7356392246502945e-05
0.010528207772767502,-0.0005846085317230902,2.7062800448874283e-05
0.010957056391140106,-0.0005792372156821133,2.6771839012022982e-05
0.011358907544324698,-0.0005736582246982471,2.648361515192789e-05
0.011733923958730253,-0.0005678850168224834,2.6198229341547708e-05
0.012082365111179397,-0.0005619309445550059,2.5915775351203335e-05
0.01240458166462267,-0.0005558092078610554,2.563634031309932e-05
0.012701009315493303,-0.0005495328101160264,2.5360004808605047e-05
0.012972162249679942,-0.000543114517224733,2.5086842976769857e-05
0.013218626388769718,-0.0005365668200651206,2.4816922642447392e-05
0.0134410525783231,-0.0005299019003233474,2.4550305462350276e-05
0.013640149841625059,-0.0005231315997183604,2.428704708733985e-05
0.013816678799274904,-0.0005162673925581354,2.4027197339270723e-05
0.013971445332972897,-0.0005093203615250734,2.377080040074992e-05
0.014105294553993626,-0.0005023011765533318,2.351789501623032e-05
0.014219105130912195,-0.0004952200766321053,2.326851470293396e-05
0.014313784035968339,-0.00048808685434038516,2.302268797019084e-05
0.01439026177242149,-0.0004809108428882877,2.278043854588367e-05
0.014449488135418933,-0.0004737009054113276,2.2541785608808767e-05
0.014492428536204487,-0.00046646542624342174,2.230674402589508e-05
0.014520060892272398,-0.00045921230388630254,2.2075324593362647e-05
0.014533373062818808,-0.0004519489453975297,2.184753428104169e-05
0.014533360791588403,-0.0004446822619339279,2.1623376479208827e-05
0.014521026104582148,-0.00043741866520988524,2.1402851247422875e-05
0.014497376092382004,-0.0004301640646606442,2.118595556495524e-05
0.01446342198305361,-0.0004229238651417853,2.0972683582504636e-05
0.014420178385022313,-0.00041570296504976633,2.076302687495675e-05
0.014368662559188769,-0.0004085057548137136,2.0556974694990878e-05
0.014309893573724454,-0.00040133611578048526,2.0354514227342326e-05
0.014244891205688108,-0.00039419741958563213,2.0155630843500795e-05
0.01417467448003849,-0.0003870925281642005,1.9960308356563338e-05
0.01410025977637224,-0.0003800237946000978,1.9768529275872263e-05
0.014022658478973767,-0.0003729930650362613,1.958027506096317e-05
0.013942874181976749,-0.00036600168187102364,1.939552637423635e-05
0.013861899479027497,-0.0003590504884557726,1.921426333165465e-05
0.013780712370624015,-0.00035213983549335973,1.9036465750667368e-05
0.013700272326243183,-0.00034526958931914295,1.8862113394464242e-05
0.013621516050903676,-0.00033843914222485624,1.8691186211578242e-05
0.01354535302366678,-0.00033164742495621363,1.8523664569782975e-05
0.013472660887052736,-0.00032489292147853374,1.8359529483174287e-05
0.013404280762654175,-0.000318173686066107,1.8198762831288128e-05
0.013341012551351993,-0.00031148736273760546,1.8041347569087198e-05
0.01328361025890444,-0.00030483120703504133,1.7887267926644036e-05
0.013232777380591185,-0.0002982021101251674,1.7736509597353984e-05
0.013189162384299407,-0.00029159662518394474,1.7589059913526706e-05
0.01315335434580104,-0.0002850109960014196,1.7444908008230363e-05
0.013125878805773277,-0.000278441187713526,1.7304044962301625e-05
0.013107193924888585,-0.00027188291953086056,1.7166463935490527e-05
0.013097687001880685,-0.00026533169929916827,1.703216028078302e-05
0.01309767139190249,-0.0002587828597007225,1.6901131641033045e-05
0.01310738383575609,-0.0002522315958938078,1.6773378027134413e-05
0.013126982204168622,-0.00024567300438382665,1.6648901877065004e-05
0.013156543677326105,-0.00023910212291345298,1.6527708095240682e-05
0.013196063400515922,-0.00023251397114399248,1.640980407172632e-05
0.013245453665653691,-0.00022590359187745008,1.629519968097096e-05
0.013304543666043396,-0.0002192660925445258,1.6183907259865465e-05
0.013373079867211188,-0.00021259668666121217,1.607594156506403e-05
0.01345072703309441,-0.00020589073493613576,1.5971319709664694e-05
0.013537069937870013,-0.00019914378569339466,1.5870061079507312e-05
0.013631615772351915,-0.00019235161426583918,1.5772187229517505e-05
0.013733797220505049,-0.00018551026101762494,1.567772176069664e-05
0.013842976144966638,-0.00017861606767625703,1.5586690178523168e-05
0.013958447791451707,-0.00017166571169215244,1.5499119733681064e-05
0.01407944540701519,-0.00016465623839253572,1.541503924615989e-05
0.0142051451652196,-0.00015758509074947701,1.5334478913874387e-05
0.014334671297791627,-0.00015045013663372422,1.5257470107028587e-05
0.014467101346954152,-0.00014324969347253777,1.518404514950202e-05
0.014601471477746314,-0.00013598255026636265,1.5114237088567296e-05
0.014736781819299764,-0.00012864798694210114,1.504807945426518e-05
0.014872001826093328,-0.00012124579103075287,1.4985606009771967e-05
0.01500607566014178,-0.0001137762716591941,1.4926850494099481e-05
0.015137927597978988,-0.0001062402708446639,1.4871846358473516e-05
0.015266467463748391,-9.863917207923205e-05,1.4820626497742543e-05
0.015390596078167377,-9.09749061937531e-05,1.4773222978174296e-05
0.015509210696347807,-8.324995450012431e-05,1.4729666763000827e-05
0.015621210395890579,-7.546734922706472e-05,1.468998743706903e-05
0.015725501375552096,-6.763067128420405e-05,1.4654212931941213e-05
0.015821002133144857,-5.974404540702981e-05,1.4622369252768404e-05
0.015906648508002604,-5.1812132746742944e-05,1.4594480208229961e-05
0.015981398594527838,-4.384012097111033e-05,1.4570567144800498e-05
0.0160442375509815,-3.5833711934733e-05,1.4550648686574037e-05
