frame_number,force
0,741.6592708807713
1,741.6821497894158
2,741.7056987980086
3,741.7298742963088
4,741.7546233305109
5,741.7798840922143
6,741.8055864975607
7,741.8316528527522
8,741.8579985983177
9,741.8845331203551
10,741.9111606140958
11,741.9377809839713
12,741.9642907640595
13,741.9905840427099
14,742.016553375483
15,742.0420906717053
16,742.067088041715
17,742.0914385936896
18,742.1150371706424
19,742.1377810201932
20,742.1595703922268
21,742.1803090619125
22,742.199904777194
23,742.2182696310487
24,742.2353203601388
25,742.2509785728383
26,742.2651709104856
27,742.2778291458729
28,742.2888902227438
29,742.298296239867
30,742.3059943833955
31,742.311936811771
32,742.3160804982803
33,742.3183870371541
34,742.3188224193979
35,742.3173567842096
36,742.3139641512114
37,742.3086221380664
38,742.3013116672515
39,742.2920166644483
40,742.2807237493621
41,742.267421918555
42,742.2521022197304
43,742.2347574176894
44,742.2153816532934
45,742.1939700978563
46,742.1705186063733
47,742.1450233738711
48,742.1174806001114
49,742.0878861692955
50,742.0562353533819
51,742.0225225496785
52,741.9867410647968
53,741.9488829571706
54,741.9089389488317
55,741.8668984142882
56,741.8227494508819
57,741.7764790316569
58,741.7280732390562
59,741.677517575835
60,741.624797348143
61,741.5698981145414
62,741.5128061940688
63,741.4535092267013
64,741.3919967801819
65,741.3282609972802
66,741.2622972767751
67,741.1941049802481
68,741.1236881553361
69,741.0510562643282
70,740.9762249050258
71,740.8992165092537
72,740.8200610036971
73,740.738796417823
74,740.6554694244841
75,740.5701358005812
76,740.4828607978872
77,740.3937194173247
78,740.3027965828695
79,740.2101872132475
80,740.1159961905935
81,740.0203382256368
82,739.9233376195939
83,739.8251279242951
84,739.725851504069
85,739.6256590051955
86,739.5247087408607
87,739.4231660008573
88,739.3212022954181
89,739.2189945419509
90,739.11672420281
91,739.014576381874
92,738.9127388874767
93,738.8114012691211
94,738.7107538356616
95,738.6109866633602
96,738.5122886031072
97,738.4148462968329
98,738.318843213555
99,738.2244587153895
100,738.1318671629257
101,738.0412370676638
102,737.9527302970977
103,737.8665013359889
104,737.7826966057496
105,737.7014538428027
106,737.6229015362917
107,737.5471584253524
108,737.4743330560341
109,737.404523397706
110,737.3378165185827
111,737.2742883201298
112,737.214003330599
113,737.1570145583844
114,737.1033634059846
115,737.0530796452487
116,737.0061814547147
117,736.9626755203325
118,736.9225572014099
119,736.8858107639444
120,736.8524096834863
121,736.8223170192564
122,736.7954858603
123,736.7718598430515
124,736.7513737379747
125,736.7339541010239
126,736.7195199839193
127,736.7079836962705
128,736.6992516125034
129,736.6932250167303
130,736.689800978732
131,736.6888732542726
132,736.6903332028951
133,736.6940707156016
134,736.6999751431459
135,736.7079362136573
136,736.7178449269743
137,736.7295944131727
138,736.7430807442469
139,736.7582036899333
140,736.7748674104565
141,736.7929810803864
142,736.8124594390837
143,736.8332232645108
144,736.8551997682846
145,736.8783229103348
146,736.9025336313606
147,736.927780001037
148,736.9540172803565
149,736.9812078977508
150,737.0093213402791
151,737.0383339627733
152,737.068228719275
153,737.0989948224258
154,737.1306273375191
155,737.1631267183914
156,737.1964982922024
157,737.230751699955
158,737.2659002998734
159,737.3019605414827
160,737.3389513190785
161,737.3768933140514
162,737.4158083362419
163,737.4557186750267
164,737.4966464709119
165,737.5386131177432
166,737.5816387041152
167,737.6257415004042
168,737.6709374955398
169,737.7172399855791
170,737.7646592145289
171,737.8132020665734
172,737.8628718075972
173,737.9136678725253
174,737.9655856938487
175,738.0186165661719
176,738.0727475413836
177,738.1279613486518
178,738.1842363331442
179,738.2415464079568
180,738.299861015365
181,738.3591450956453
182,738.4193590637457
183,738.4804587956944
184,738.5423956274836
185,738.6051163689353
186,738.6685633340252
187,738.7326743883411
188,738.7973830147905
189,738.8626184002796
190,738.9283055476448
191,738.9943654173609
192,739.0607151023003
193,739.1272680368281
194,739.1939342397557
195,739.2606205895788
196,739.327231129905
197,739.3936674027381
198,739.4598288074394
199,739.5256129839963
200,739.590916220639
201,739.6556338872399
202,739.7196608965265
203,739.7828921945301
204,739.8452232801302
205,739.9065507519447
206,739.966772879867
207,740.0257901979456
208,740.0835061142542
209,740.1398275319655
210,740.1946654746246
211,740.2479357076606
212,740.2995593468789
213,740.3494634428118
214,740.3975815280105
215,740.4438541134921
216,740.4882291210251
217,740.5306622394676
218,740.5711171953931
219,740.609565930477
220,740.6459886807653
221,740.6803739563308
222,740.7127184238095
223,740.7430266981121
224,740.7713110523322
225,740.7975910566386
226,740.8218931586075
227,740.8442502191797
228,740.8647010190991
229,740.8832897495344
230,740.9000654983263
231,740.915081741175
232,740.9283958453349
233,740.9400685917274
234,740.9501637200328
235,740.958747500879
236,740.9658883396021
237,740.9716564162868
238,740.9761233660444
239,740.9793620017766
240,740.9814460796273
241,740.9824501055591
242,740.9824491802004
243,740.9815188779972
244,740.9797351553741
245,740.9771742808117
246,740.9739127777436
247,740.9700273696578
248,740.9655949163496
249,740.9606923310808
250,740.9553964703888
251,740.9497839912924
252,740.9439311740565
253,740.9379137113998
254,740.9318064663656
255,740.925683201359
256,740.9196162811451
257,740.9136763535563
258,740.9079320129986
259,740.9024494527139
260,740.8972921114755
261,740.8925203191228
262,740.8881909440092
263,740.8843570449046
264,740.8810675303223
265,740.8783668293252
266,740.876294579055
267,740.8748853347429
268,740.8741683070956
269,740.8741671298731
270,740.874899658455
271,740.8763777997104
272,740.8786073746955
273,740.8815880172598
274,740.8853131123147
275,740.889769777338
276,740.8949388903424
277,740.9007951672725
278,740.9073072911137
279,740.9144380933874
280,740.9221447861863
281,740.9303792401428
282,740.9390883015305
283,740.9482141405823
284,740.9576946229544
285,740.9674636967638
286,740.9774517887289
287,740.9875862048325
288,740.9977915331702
289,741.0079900483051
290,741.0181021172012
291,741.028046607027
292,741.037741294928
293,741.0471032789959
294,741.0560493883987
295,741.0644965897598
296,741.0723623867923
297,741.0795652108244
298,741.0860248011104
299,741.0916625754185
300,741.0964019927176
301,741.1001689103931
302,741.1028919381204
303,741.1045027893923
304,741.1049366303705
305,741.1041324249829
306,741.102033274892
307,741.0985867522139
308,741.0937452214903
309,741.0874661462743
310,741.0797123755685
311,741.0704524061036
312,741.0596606174373
313,741.0473174778125
314,741.0334097198488
315,741.017930486645
316,741.0008794506764
317,740.9822629094082
318,740.9620938619368
319,740.9403920696667
320,740.9171841013871
321,740.8925033602442
322,740.8663900882192
323,740.8388913432199
324,740.8100609441639
325,740.77995937971
326,740.748653676584
327,740.7162172241597
328,740.6827295532156
329,740.6482760684704
330,740.612947736654
331,740.5768407343564
332,740.5400560618882
333,740.5026991297879
334,740.4648793233663
335,740.4267095490928
336,740.3883057659818
337,740.3497865053065
338,740.311272382112
339,740.2728856017422
340,740.2347494641638
341,740.1969878686048
342,740.1597248211112
343,740.1230839478544
344,740.087188016793
345,740.0521584690235
346,740.0181149592569
347,739.9851749036224
348,739.9534530330934
349,739.9230609514196
350,739.8941066964122
351,739.866694302809
352,739.8409233645535
353,739.8168885946072
354,739.794679381342
355,739.7743793419858
356,739.7560658751764
357,739.7398097157303
358,739.7256744946975
359,739.713716307054
360,739.7039832892189
361,739.6965152098433
362,739.6913430795727
363,739.6884887873597
364,739.6879647713714
365,739.6897737317028
366,739.6939083910323
367,739.7003513088943
368,739.7090747551966
369,739.7200406481551
370,739.7332005605713
371,739.7484957968477
372,739.7658575417407
373,739.7852070803762
374,739.8064560872283
375,739.829506980088
376,739.8542533342331
377,739.8805803520506
378,739.9083653836564
379,739.9374784942236
380,739.9677830736608
381,739.9991364839229
382,740.0313907387808
383,740.0643932107083
384,740.0979873597399
385,740.1320134793878
386,740.1663094548302
387,740.2007115287879
388,740.2350550707624
389,740.2691753454455
390,740.3029082763688
391,740.3360912016532
392,740.3685636197647
393,740.4001679237598
394,740.4307501223566
395,740.460160545669
396,740.488254532913
397,740.5148930989138
398,740.5399435758262
399,740.5632802261008
400,740.5847848222504
401,740.6043471881941
402,740.6218656960272
403,740.6372477114286
404,740.650409981138
405,740.6612789573284
406,740.6697910559386
407,740.6758928483467
408,740.6795411875394
409,740.6807032709712
410,740.679356642684
411,740.675489137301
412,740.6690987688324
413,740.6601935680687
414,740.6487913732383
415,740.6349195787926
416,740.6186148464149
417,740.5999227809834
418,740.5788975728208
419,740.5556016065058
420,740.5301050361846
421,740.5024853278879
422,740.4728267705974
423,740.44121995899
424,740.4077612513832
425,740.3725522064917
426,740.3356990025299
427,740.2973118420412
428,740.2575043456353
429,740.2163929379169
430,740.174096229562
431,740.1307344005506
432,740.086428590486
433,740.0413003022949
434,739.9954708253861
435,739.9490606838275
436,739.9021891143533
437,739.8549735779254
438,739.8075293076355
439,739.7599688957275
440,739.7124019232832
441,739.6649346363903
442,739.6176696716927
443,739.5707058327198
444,739.5241379171496
445,739.4780565941527
446,739.43254832971
447,739.3876953563218
448,739.343575682336
449,739.3002631354242
450,739.2578274341927
451,739.2163342812715
452,739.1758454708713
453,739.1364190044374
454,739.0981092098068
455,739.0609668613722
456,739.0250393000207
457,738.9903705514986
458,738.9570014406996
459,738.9249696979807
460,738.8943100526577
461,738.865054308604
462,738.8372313971277
463,738.810867402834
464,738.7859855593249
465,738.7626062136162
466,738.7407467604656
467,738.7204215494041
468,738.7016417679738
469,738.6844153049822
470,738.6687465977627
471,738.6546364673732
472,738.6420819452701
473,738.6310760943735
474,738.6216078269696
475,738.613661722179
476,738.6072178470016
477,738.6022515867581
478,738.5987334922039
479,738.5966291511451
480,738.5958990921089
481,738.5964987268455
482,738.5983783373563
483,738.6014831117361
484,738.6057532316237
485,738.6111240131513
486,738.6175261034037
487,738.6248857349502
488,738.6331250409416
489,738.6421624321265
490,738.6519130354733
491,738.6622891925582
492,738.6732010145239
493,738.6845569887847
494,738.6962646304878
495,738.7082311692809
496,738.7203642598704
497,738.7325727040915
498,738.7447671732496
499,738.7568609217702
500,738.7687704854421
501,738.7804163588879
502,738.7917236475134
503,738.802622689769
504,738.8130496464196
505,738.8229470541479
506,738.8322643403994
507,738.8409582948301
508,738.8489934908614
509,738.8563426497624
510,738.8629869398735
511,738.8689162046962
512,738.8741291148481
513,738.8786332398795
514,738.8824450367068
515,738.8855897522368
516,738.8881012389153
517,738.8900216834592
518,738.8914012506449
519,738.8922976453917
520,738.8927755973913
521,738.8929062734145
522,738.8927666233785
523,738.8924386672235
524,738.8920087304077
525,738.8915666362493
526,738.8912048637084
527,738.8910176798573
528,738.8911002568739
529,738.8915477831424
530,738.892454576944
531,738.8939132102458
532,738.8960136501206
533,738.8988424262326
534,738.9024818339325
535,738.9070091832884
536,738.912496104566
537,738.9190079198819
538,738.9266030886386
539,738.9353327314107
540,738.9452402346222
541,738.9563609375257
542,738.9687219031122
543,738.9823417744316
544,738.9972307168154
545,739.0133904449419
546,739.0308143320129
547,739.049487596774
548,739.0693875628642
549,739.0904839842767
550,739.1127394307755
551,739.1361097276242
552,739.1605444442549
553,739.1859874260741
554,739.2123773627274
555,739.2396483854442
556,739.2677306859533
557,739.2965511498298
558,739.3260339978914
559,739.3561014304793
560,739.3866742711798
561,739.4176726083462
562,739.4490164338864
563,739.4806262785577
564,739.5124238414109
565,739.5443326086523
566,739.5762784548125
567,739.6081902172798
568,739.640000234414
569,739.6716448382975
570,739.7030647961117
571,739.7342056981167
572,739.7650182933966
573,739.7954587759453
574,739.825489023949
575,739.855076795055
576,739.8841958799678
577,739.9128262156094
578,739.9409539577795
579,739.9685715124982
580,739.9956775252198
581,740.0222768275581
582,740.0483803417594
583,740.0740049438224
584,740.099173286808
585,740.1239135863591
586,740.1482593708326
587,740.1722491988609
588,740.1959263474478
589,740.2193384736075
590,740.2425372521421
591,740.2655779917958
592,740.2885192319807
593,740.3114223225359
594,740.3343509893352
595,740.3573708886149
596,740.380549152422
597,740.4039539266004
598,740.4276539014096
599,740.4517178335988
600,740.4762140581793
601,740.5012099885824
602,740.5267716049779
603,740.5529629316717
604,740.579845505554
605,740.6074778387273
606,740.635914879785
607,740.6652074794864
608,740.6954018675692
609,740.726539148099
610,740.7586548210735
611,740.7917783377804
612,740.8259326964312
613,740.8611340829422
614,740.8973915599743
615,740.9347068062563
616,740.9730739083324
617,741.0124792079833
618,741.0529012097746
619,741.0943105535827
620,741.1366700562646
621,741.1799348251583
622,741.2240524442788
623,741.2689632322342
624,741.3146005692253
625,741.3608912892249
626,741.407756132631
627,741.4551102541355
628,741.5028637800266
629,741.550922408566
630,741.5991880465106
631,741.6475594741937
632,741.6959330306873
633,741.7442033092892
634,741.7922638522097
635,741.8400078326531
636,741.887328713349
637,741.9341208730402
638,741.9802801956595
639,742.0257046200265
640,742.0702946504712
641,742.1139538304699
642,742.1565891816673
643,742.1981116095802
644,742.2384362758186
645,742.2774829358261
646,742.3151762410807
647,742.3514460048502
648,742.3862274306676
649,742.4194613028133
650,742.4510941385005
651,742.4810783021661
652,742.5093720831406
653,742.5359397389964
654,742.5607515080408
655,742.5837835953992
656,742.6050181372821
657,742.6244431471762
658,742.6420524463742
659,742.6578455800492
660,742.6718277191261
661,742.6840095475092
662,742.694407133831
663,742.7030417865516
664,742.7099398903761
665,742.7151327203296
666,742.7186562280577
667,742.7205507940489
668,742.7208609398886
669,742.7196349958865
670,742.7169247210985
671,742.712784875008
672,742.7072727429152
673,742.7004476196314
674,742.6923702574186
675,742.6831022842399
676,742.6727055984111
677,742.6612417467289
678,742.6487712950362
679,742.6353532019218
680,742.6210442069208
681,742.6058982442439
682,742.5899658925302
683,742.5732938707724
684,742.5559245899948
685,742.5378957690415
686,742.5192401210452
687,742.4999851152613
688,742.480152817328
689,742.4597598098345
690,742.4388171942774
691,742.4173306746677
692,742.395300721845
693,742.3727228158832
694,742.3495877620991
695,742.3258820744247
696,742.3015884184538
697,742.2766861052725
698,742.2511516262069
699,742.2249592181179
700,742.1980814491066
701,742.1704898152691
702,742.1421553398998
703,742.1130491669336
704,742.0831431404355
705,742.0524103617429
706,742.0208257157776
707,741.9883663585589
708,741.955012159385
709,741.9207460933302
710,741.8855545821017
711,741.8494277832842
712,741.8123598291012
713,741.7743490160652
714,741.7353979466785
715,741.6955136239701
716,741.6547074992907
717,741.6129954736867
718,741.5703978535302
719,741.5269392617647
720,741.4826485070582
721,741.4375584144005
722,741.3917056220123
723,741.3451303500905
724,741.2978761464306
725,741.2499896126045
726,741.2015201129608
727,741.1525194679418
728,741.1030416331424
729,741.0531423655971
730,741.0028788784987
731,740.9523094851481
732,740.9014932330757
733,740.8504895301647
734,740.7993577656414
735,740.7481569294631
736,740.6969452341649
737,740.6457797438972
738,740.5947160157689
739,740.54380775815
740,740.493106509486
741,740.4426613401195
742,740.3925185790011
743,740.3427215668263
744,740.2933104365868
745,740.2443219215297
746,740.195789189322
747,740.1477417003633
748,740.1002050879075
749,740.0532010579178
750,740.0067473074702
751,739.9608574620866
752,739.91554103427
753,739.8708034070086
754,739.82664584679
755,739.7830655508575
756,739.7400557332505
757,739.6976057535626
758,739.6557012912297
759,739.6143245665659
760,739.5734546077009
761,739.5330675603367
762,739.493137035517
763,739.4536344900604
764,739.4145296347325
765,739.3757908656318
766,739.3373857138071
767,739.2992813068244
768,739.2614448345698
769,739.2238440109157
770,739.1864475234145
771,739.1492254645627
772,739.1121497394862
773,739.0751944454884
774,739.0383362188236
775,739.0015545437027
776,738.9648320182855
777,738.9281545725205
778,738.8915116333759
779,738.8548962342644
780,738.8183050668964
781,738.7817384751522
782,738.7452003920047
783,738.7086982220083
784,738.6722426728137
785,738.6358475392789
786,738.59952944373
787,738.5633075365421
788,738.5272031621863
789,738.4912394965365
790,738.455441161499
791,738.4198338234165
792,738.3844437822298
793,738.3492975584999
794,738.3144214846141
795,738.2798413051044
796,738.2455817899012
797,738.2116663642246
798,738.1781167594842
799,738.1449526903893
800,738.1121915641055
801,738.0798482277052
802,738.0479347602824
803,738.016460315687
804,737.9854310207756
805,737.9548499325879
806,737.9247170561476
807,737.8950294226454
808,737.8657812257675
809,737.8369640124769
810,737.8085669238698
811,737.7805769812038
812,737.7529794110385
813,737.7257580017916
814,737.6988954827065
815,737.6723739157028
816,737.6461750907702
817,737.6202809162826
818,737.5946737966563
819,737.5693369907298
820,737.5442549448783
821,737.5194135953774
822,737.4948006352412
823,737.470405741665
824,737.4462207611447
825,737.422239850378
826,737.3984595723737
827,737.3748789487679
828,737.3514994709801
829,737.3283250744843
830,737.3053620822258
831,737.2826191248182
832,737.2601070458916
833,737.237838800381
834,737.2158293520199
835,737.1940955746267
836,737.1726561605143
837,737.1515315386691
838,737.1307438050816
839,737.1103166672873
840,737.0902754044279
841,737.0706468431363
842,737.0514593488195
843,737.0327428316675
844,737.0145287666874
845,736.9968502269006
846,736.9797419284935
847,736.9632402862475
848,736.9473834767724
849,736.9322115056417
850,736.9177662728938
851,736.9040916304876
852,736.8912334257305
853,736.8792395259405
854,736.8681598207394
855,736.8580461989499
856,736.8489524972293
857,736.8409344174818
858,736.8340494097081
859,736.8283565163625
860,736.8239161739435
861,736.820789967997
862,736.8190403390832
863,736.8187302391791
864,736.8199227399831
865,736.8226805965472
866,736.8270657717034
867,736.8331389287514
868,736.8409589013635
869,736.8505821502906
870,736.8620622163294
871,736.8754491782797
872,736.8907891233268
873,736.9081236356002
874,736.9274893071572
875,736.9489172748155
876,736.9724327862132
877,736.9980547989475
878,737.0257956172362
879,737.0556605710761
880,737.0876477432771
881,737.1217477498491
882,737.1579435785915
883,737.196210489273
884,737.2365159770413
885,737.2788197994391
886,737.3230740669151
887,737.369223396776
888,737.4172051308109
889,737.4669496171124
890,737.518380556678
891,737.5714154149562
892,737.6259658976226
893,737.6819384888558
894,737.7392350495351
895,737.7977534721532
896,737.8573883884249
897,737.9180319240651
898,737.9795744929833
899,738.041905620718
900,738.1049147849967
901,738.16849226024
902,738.2325299527736
903,738.2969222142948
904,738.3615666223947
905,738.4263647184148
906,738.4912226946468
907,738.5560520249967
908,738.6207700355671
909,738.6853004135505
910,738.7495736538951
911,738.8135274436614
912,738.87710698432
913,738.9402652524146
914,739.0029631986247
915,739.0651698843367
916,739.1268625538573
917,739.1880266399427
