frame_number,force
0,741.3086836150999
1,741.3556303076897
2,741.4075887526616
3,741.4642098221677
4,741.5250494059686
5,741.5895696420379
6,741.6571440831929
7,741.7270672858347
8,741.798568794023
9,741.8708309192097
10,741.9430093241006
11,742.0142552754124
12,742.0837384069208
13,742.1506688258862
14,742.2143174375298
15,742.2740335149173
16,742.329258773233
17,742.3795374301508
18,742.4245219250156
19,742.4639741970891
20,742.497762715467
21,742.5258557140118
22,742.5483112232426
23,742.5652645553321
24,742.5769139784027
25,742.583505399298
26,742.5853168788715
27,742.5826437000202
28,742.5757845435083
29,742.5650291715057
30,742.5506479208303
31,742.5328832798676
32,742.5119438472053
33,742.4880009926061
34,742.4611884949093
35,742.4316052980066
36,742.39932135373
37,742.3643863562266
38,742.3268409937826
39,742.286730098347
40,742.2441167841409
41,742.1990964556919
42,742.1518095331718
43,742.1024518668853
44,742.0512819998135
45,741.9986246318618
46,741.9448698309307
47,741.8904677213146
48,741.8359185892855
49,741.7817586390687
50,741.7285420217154
51,741.6768201737145
52,741.6271198287815
53,741.5799211984088
54,741.5356377041064
55,741.4945983303726
56,741.4570332623754
57,741.4230630890858
58,741.3926915697332
59,741.3658017994356
60,741.3421555227523
61,741.3213952900675
62,741.3030491747519
63,741.2865379206384
64,741.2711845918917
65,741.2562269020834
66,741.2408323583065
67,741.2241162292743
68,741.2051621685662
69,741.183045075253
70,741.156855477485
71,741.1257244741188
72,741.0888481292483
73,741.0455101780782
74,740.9951019659883
75,740.9371387352184
76,740.8712716976985
77,740.7972957145045
78,740.715152724269
79,740.6249312372985
80,740.5268622228326
81,740.4213116300773
82,740.3087697251985
83,740.1898374823537
84,740.0652104246756
85,739.9356605176008
86,739.8020169034955
87,739.6651463346114
88,739.525934057195
89,739.3852656883229
90,739.2440104242206
91,739.1030057725377
92,738.9630438890975
93,738.8248595189917
94,738.6891195339351
95,738.5564141360009
96,738.4272499160811
97,738.3020450637911
98,738.181127098252
99,738.0647334904694
100,737.9530154351986
101,737.8460448063137
102,737.7438240527678
103,737.6462985337193
104,737.553370604986
105,737.4649146788855
106,737.3807924795963
107,737.3008677737234
108,737.2250199221866
109,737.1531556487763
110,737.0852184795514
111,737.0211954207228
112,736.9611206105967
113,736.9050758452548
114,736.8531879867156
115,736.805623340864
116,736.7625792076599
117,736.724272975972
118,736.6909293144927
119,736.6627661526653
120,736.6399802350163
121,736.6227330554079
122,736.6111379178128
123,736.6052487353343
124,736.6050509920203
125,736.6104550684618
126,736.6212919280798
127,736.6373110735708
128,736.6581807256149
129,736.6834902492013
130,736.7127548946864
131,736.7454229536179
132,736.7808854340749
133,736.8184882464764
134,736.8575466222608
135,736.8973611535865
136,736.9372346002299
137,736.976488579185
138,737.0144794232691
139,737.0506127395741
140,737.0843563954938
141,737.1152517870987
142,737.1429233436188
143,737.1670863157191
144,737.1875529506847
145,737.2042371138492
146,737.217157266131
147,737.226437546266
148,737.2323066504326
149,737.2350942764522
150,737.2352250384561
151,737.2332098959015
152,737.2296352626307
153,737.2251500728895
154,737.2204511604293
155,737.2162673070978
156,737.2133422372495
157,737.2124167561633
158,737.2142102387023
159,737.2194017670961
160,737.2286113408798
161,737.2423817095096
162,737.2611615066477
163,737.2852904769655
164,737.314987638427
165,737.3503431682003
166,737.3913146197497
167,737.4377278060751
168,737.4892823913402
169,737.545561983737
170,737.6060483411001
171,737.6701391695074
172,737.7371688658374
173,737.8064314050483
174,737.8772044539918
175,737.9487737625249
176,738.0204568943201
177,738.0916253372203
178,738.161724019895
179,738.230287378473
180,738.2969513913463
181,738.3614613456547
182,738.423675424553
183,738.4835644599326
184,738.5412083291278
185,738.5967894391175
186,738.650583580822
187,738.7029483114759
188,738.7543090930254
189,738.8051436687518
190,738.8559654093536
191,738.9073064102413
192,738.9597009432497
193,739.0136695794582
194,739.0697040521176
195,739.1282527917482
196,739.1897070209283
197,739.2543873026771
198,739.3225305048392
199,739.39427731812
200,739.4696607355024
201,739.548596167701
202,739.6308740128869
203,739.7161554521653
204,739.8039720434572
205,739.8937294749119
206,739.9847157240494
207,740.0761137976667
208,740.167019080174
209,740.2564610983035
210,740.3434293135938
211,740.4269023864049
212,740.5058801217747
213,740.5794169745466
214,740.6466556562876
215,740.7068591855593
216,740.7594397194813
217,740.8039826574852
218,740.8402647306152
219,740.8682650403501
220,740.8881683229757
221,740.9003601404454
222,740.9054142200278
223,740.9040726600945
224,740.8972200548002
225,740.8858527832529
226,740.8710448978516
227,740.8539122551482
228,740.8355765909607
229,740.8171310287993
230,740.7996081418794
231,740.7839513534371
232,740.7709901994053
233,740.7614197434848
234,740.7557842617501
235,740.7544652924644
236,740.7576742602438
237,740.7654499842782
238,740.7776613358634
239,740.7940151188427
240,740.8140690045118
241,740.8372491547032
242,740.8628720376745
243,740.8901698376177
244,740.9183187128764
245,740.9464689321848
246,740.9737756508026
247,740.9994288860655
248,741.0226812069673
249,741.0428717892851
250,741.0594457973165
251,741.0719685103204
252,741.0801341208758
253,741.0837695270512
254,741.0828336092251
255,741.0774124823084
256,741.0677112096236
257,741.0540425596765
258,741.036813540077
259,741.0165105224547
260,740.9936836744613
261,740.968931165569
262,740.9428833592752
263,740.9161870793884
264,740.8894900695032
265,740.8634259050248
266,740.8385997820376
267,740.8155756749641
268,740.7948652181235
269,740.7769183482412
270,740.762115444937
271,740.7507606532427
272,740.7430762890177
273,740.7391985061148
274,740.7391745500539
275,740.7429619409339
276,740.7504299254955
277,740.761363548458
278,740.7754706423754
279,740.7923918386955
280,740.8117133648914
281,740.8329820142865
282,740.8557213839215
283,740.8794483465366
284,740.9036887413093
285,740.9279913804488
286,740.9519396719069
287,740.9751604780307
288,740.9973301986649
289,741.0181783407646
290,741.0374889626808
291,741.0551004208318
292,741.0709038170321
293,741.0848404061013
294,741.0968980199776
295,741.1071064193153
296,741.1155314583054
297,741.1222680330275
298,741.1274319643105
299,741.1311511985234
300,741.1335569009859
301,741.1347750951313
302,741.1349194384627
303,741.1340855357837
304,741.1323469695578
305,741.12975309878
306,741.1263286187162
307,741.1220747471133
308,741.1169716779169
309,741.1109817560726
310,741.1040527988615
311,741.0961210967195
312,741.0871137712795
313,741.0769503090576
314,741.0655432554822
315,741.052798278729
316,741.0386140823847
317,741.0228828738652
318,741.0054921442008
319,740.9863282987997
320,740.9652822534074
321,740.9422566489434
322,740.9171740288498
323,740.8899852277449
324,740.8606772442688
325,740.8292798956307
326,740.7958705773019
327,740.7605765441245
328,740.7235743053523
329,740.6850859697956
330,740.6453726945318
331,740.6047257604305
332,740.5634560919544
333,740.5218830878414
334,740.4803234228037
335,740.4390802242981
336,740.3984329183388
337,740.3586280574694
338,740.3198714603835
339,740.2823219476811
340,740.2460868869962
341,740.2112197161375
342,740.1777196215932
343,740.145533582717
344,740.1145609507304
345,740.0846605288916
346,740.0556598186063
347,740.0273658951846
348,739.9995773810009
349,739.9720970635518
350,739.9447446860298
351,739.917369325734
352,739.8898606978306
353,739.8621587483663
354,739.8342610260627
355,739.8062275255616
356,739.7781829231749
357,739.7503162730757
358,739.7228782125547
359,739.6961756016583
360,739.6705634891463
361,739.646434489637
362,739.6242060083421
363,739.6043060491189
364,739.5871584261014
365,739.5731680892678
366,739.5627071327077
367,739.556102013464
368,739.5536225400916
369,739.5554731618448
370,739.5617869453473
371,739.5726224405023
372,739.5879634791144
373,739.6077217809752
374,739.6317420227524
375,739.6598088298427
376,739.6916550909955
377,739.7269710672998
378,739.7654138783244
379,739.8066170368916
380,739.8501997535064
381,739.8957757334568
382,739.9429611715824
383,739.9913816724538
384,740.0406778983587
385,740.0905098222407
386,740.1405595154299
387,740.1905324589719
388,740.2401574291522
389,740.2891850441971
390,740.3373851094123
391,740.3845430250019
392,740.4304556816749
393,740.4749273510591
394,740.5177660430334
395,740.5587807056735
396,740.597779538693
397,740.634569588965
398,740.6689576986131
399,740.7007527812955
400,740.7297692858549
401,740.7558315419785
402,740.7787784891916
403,740.7984681399483
404,740.8147811083239
405,740.8276226951597
406,740.8369233100539
407,740.8426373102646
408,740.8447405508036
409,740.843227039577
410,740.8381050867695
411,740.8293932829006
412,740.8171166276146
413,740.801303201665
414,740.7819818539709
415,740.7591813481777
416,740.7329312377681
417,740.7032644742688
418,740.670221485209
419,740.6338552489891
420,740.5942367970895
421,740.5514606249914
422,740.505649651171
423,740.456959518607
424,740.4055821018648
425,740.3517480782808
426,740.2957283981737
427,740.2378344591425
428,740.1784167599924
429,740.1178618334529
430,740.056587376592
431,739.9950356839789
432,739.9336656617597
433,739.872943794105
434,739.8133344438439
435,739.7552898396622
436,739.699240042297
437,739.6455830765765
438,739.5946753374335
439,739.5468224498638
440,739.5022709564514
441,739.4612013268527
442,739.4237227196588
443,739.3898697727293
444,739.359601582895
445,739.3328029545731
446,739.309287873889
447,739.2888050026258
448,739.2710448620113
449,739.2556483216176
450,739.2422159698411
451,739.2303178789202
452,739.2195032493238
453,739.2093095342806
454,739.1992709266657
455,739.1889264114911
456,739.1778277676317
457,739.1655478568248
458,739.1516893213654
459,739.1358935474557
460,739.1178495472637
461,739.0973023114753
462,739.0740601514522
463,739.0480005549842
464,739.0190741740365
465,738.9873067930931
466,738.9527993979964
467,738.9157266263134
468,738.8763339043209
469,738.8349335406348
470,738.7918999958576
471,738.7476644664093
472,738.7027087951085
473,738.6575585685608
474,738.6127751436633
475,738.5689463546014
476,738.5266758292726
477,738.486571115604
478,738.4492310477398
479,738.4152328855877
480,738.3851197477825
481,738.3593887808066
482,738.3384803944614
483,738.3227687426197
484,738.3125534739681
485,738.308052725632
486,738.3093974468862
487,738.3166273302716
488,738.3296887244903
489,738.3484348392547
490,738.3726284073414
491,738.4019468459655
492,738.4359898614932
493,738.4742892972421
494,738.5163207910265
495,738.5615165230953
496,738.6092781020617
497,738.6589885959056
498,738.7100229429702
499,738.7617563865638
500,738.8135709671245
501,738.864860343064
502,738.9150333198041
503,738.9635165552475
504,739.0097570275577
505,739.0532249166848
506,739.0934174409063
507,739.1298638888684
508,739.162131725786
509,739.1898333982693
510,739.2126333951011
511,739.2302551862568
512,739.2424877442863
513,739.2491913828907
514,739.2503026353702
515,739.2458378887517
516,739.2358955324923
517,739.220656479768
518,739.2003830340237
519,739.175416151309
520,739.1461711771831
521,739.1131321508591
522,739.076844802234
523,739.0379084129792
524,738.9969667359782
525,738.9546981510731
526,738.9118052237017
527,738.8690038801133
528,738.8270124653383
529,738.7865408875873
530,738.7482798734568
531,738.7128902156434
532,738.6809919216522
533,738.6531533516328
534,738.6298806590746
535,738.6116080367939
536,738.598689379627
537,738.5913919438706
538,738.5898923554923
539,738.5942749724533
540,738.6045323601536
541,738.6205676326146
542,738.6421985550371
543,738.6691634066265
544,738.7011285765911
545,738.7376977491027
546,738.778422394979
547,738.8228131659432
548,738.8703517030744
549,738.920502365524
550,738.9727234885509
551,739.0264779447284
552,739.081242898466
553,739.1365186411807
554,739.1918363105772
555,739.2467642303362
556,739.3009126156862
557,739.3539364675161
558,739.4055366031102
559,739.4554589589391
560,739.5034925564697
561,739.5494667815944
562,739.5932487711016
563,739.6347416279978
564,739.6738838963425
565,739.710650307717
566,739.7450533889161
567,739.7771451786964
568,739.8070181098723
569,739.8348041830986
570,739.860671950472
571,739.8848213854263
572,739.9074771471743
573,739.9288809077852
574,739.9492833937337
575,739.9689367279153
576,739.98808753449
577,740.006971047839
578,740.0258062176825
579,740.0447916422554
580,740.0641021238073
581,740.0838856749456
582,740.1042608644304
583,740.1253144655574
584,740.1470994439024
585,740.1696333719568
586,740.1928973957909
587,740.2168359236921
588,740.2413572333837
589,740.2663351611307
590,740.2916119551198
591,740.3170023027269
592,740.3422985168304
593,740.3672768905637
594,740.3917052656096
595,740.4153518488981
596,740.4379952190935
597,740.4594352905146
598,740.4795047753619
599,740.4980804661676
600,740.5150935486798
601,740.5305382043878
602,740.5444779125296
603,740.5570490220101
604,740.5684613131584
605,740.5789954399339
606,740.5889973447023
607,740.5988699358097
608,740.6090624772652
609,740.6200582538787
610,740.6323611423171
611,740.6464817099054
612,740.6629233437598
613,740.682168696433
614,740.7046665074622
615,740.7308187459507
616,740.760968098112
617,740.795386062471
618,740.8342621741975
619,740.8776950178242
620,740.9256856595358
621,740.9781339809527
622,741.034838194411
623,741.095497613382
624,741.1597185720967
625,741.2270232663523
626,741.2968612322626
627,741.3686231590605
628,741.4416567070953
629,741.515283963273
630,741.5888201175353
631,741.6615928755058
632,741.7329620055763
633,741.8023382343803
634,741.86920049543
635,741.9331104257897
636,741.9937231256216
637,742.0507935560503
638,742.1041784235014
639,742.153833846814
640,742.1998094645469
641,742.2422398584681
642,742.2813341676025
643,742.3173645534926
644,742.3506539016425
645,742.3815629676357
646,742.4104771200637
647,742.4377928127807
648,742.463903887237
649,742.4891877861072
650,742.5139917871862
651,742.5386194432137
652,742.5633175199645
653,742.5882638568335
654,742.6135567318538
655,742.639206442678
656,742.665129817414
657,742.6911482154846
658,742.7169893523721
659,742.7422930724844
660,742.7666210227181
661,742.7894700457517
662,742.8102890224495
663,742.8284988079444
664,742.8435147366881
665,742.854770878718
666,742.861744910685
667,742.8639822833909
668,742.8611183816711
669,742.8528975126752
670,742.8391877667988
671,742.8199910916763
672,742.7954483007421
673,742.7658390854083
674,742.7315772641173
675,742.6932014819523
676,742.6513615466527
677,742.6068007168544
678,742.5603345370195
679,742.5128270813824
680,742.4651655812615
681,742.4182343786239
682,742.3728890993095
683,742.3299319311873
684,742.290088862639
685,742.2539896160225
686,742.2221508142612
687,742.1949627151558
688,742.1726796945777
689,742.1554145817644
690,742.1431369345311
691,742.1356753290386
692,742.1327236640677
693,742.133851333096
694,742.1385169356448
695,742.146085031106
696,742.1558453104957
697,742.1670334635315
698,742.1788529440944
699,742.190496826147
700,742.2011690329733
701,742.2101043831617
702,742.2165870425573
703,742.2199670453334
704,742.2196745488511
705,742.2152314417976
706,742.2062598835575
707,742.1924873938867
708,742.1737482850172
709,742.149981506855
710,742.1212252803858
711,742.0876091272601
712,742.0493439936076
713,742.0067111195581
714,741.9600501854142
715,741.9097471190033
716,741.8562218037262
717,741.7999158252112
718,741.7412803657608
719,741.680764382601
720,741.6188032746971
721,741.5558083676794
722,741.4921576882086
723,741.4281885443955
724,741.3641923016795
725,741.3004114879485
726,741.2370391036771
727,741.174219861719
728,741.1120530449929
729,741.0505966605742
730,740.989872510937
731,740.9298717317
732,740.8705603634813
733,740.811884663945
734,740.7537760318488
735,740.6961555264281
736,740.6389380590315
737,740.5820364527732
738,740.5253656421202
739,740.4688472324506
740,740.412414489938
741,740.3560176917855
742,740.2996296977987
743,740.2432515787021
744,740.1869180822038
745,740.1307025951531
746,740.0747211103563
747,740.0191346106477
748,739.96414927925
749,739.9100140298438
750,739.8570150329925
751,739.805467208396
752,739.7557029965053
753,739.70805901032
754,739.6628613434398
755,739.6204103986792
756,739.5809661321103
757,739.5447345725158
758,739.5118563639646
759,739.482397890416
760,739.4563452806642
761,739.4336013000716
762,739.4139849210349
763,739.3972333281268
764,739.3830062233188
765,739.3708923949496
766,739.3604184719798
767,739.3510596034808
768,739.3422515924877
769,739.3334039113264
770,739.3239131010481
771,739.3131762515695
772,739.300604432065
773,739.2856359928161
774,739.2677495950431
775,739.2464767097744
776,739.221413217379
777,739.1922296771714
778,739.1586798584448
779,739.1206072281917
780,739.077949218765
781,739.0307392118061
782,738.9791062992243
783,738.9232730148223
784,738.8635512803932
785,738.8003367353546
786,738.7341015300524
787,738.6653856787076
788,738.5947871496867
789,738.5229509098101
790,738.4505571323589
791,738.3783088004595
792,738.3069189955974
793,738.2370981676168
794,738.1695415637749
795,738.104916792377
796,738.0438513538523
797,737.9869199945549
798,737.9346318963766
799,737.8874179090654
800,737.8456182051864
801,737.8094708848654
802,737.7791021663747
803,737.7545188294978
804,737.7356035124061
805,737.7221133313815
806,737.7136821263506
807,737.7098264298207
808,737.7099550397625
809,737.7133819357773
810,737.7193422501556
811,737.727010991694
812,737.7355240981727
813,737.7440011848361
814,737.7515691860658
815,737.7573860260088
816,737.7606634894273
817,737.7606885701733
818,737.7568427170827
819,737.7486185153831
820,737.7356333980522
821,737.7176400085095
822,737.6945328867546
823,737.66635122656
824,737.6332775271135
825,737.5956320507461
826,737.5538631301066
827,737.5085335409908
828,737.4603033420452
829,737.4099097744507
830,737.3581450300469
831,737.3058328966458
832,737.2538053636873
833,737.2028801507695
834,737.153839864889
835,737.1074132232708
836,737.0642585844433
837,737.0249499371708
838,736.9899654779738
839,736.9596788894023
840,736.9343533539178
841,736.9141382287772
842,736.8990682447024
843,736.8890651081622
844,736.8839414398058
845,736.8834070133272
846,736.8870772608842
847,736.8944839917887
848,736.9050881935809
849,736.918294605204
850,736.9334675310567
851,736.9499472538597
852,736.967066486217
853,736.9841664986793
854,737.0006127326402
855,737.0158097788855
856,737.0292155986967
857,737.040354811734
858,737.0488307663712
859,737.0543359577439
860,737.0566602393565
861,737.0556962701982
862,737.0514417734316
863,737.0439983977236
864,737.0335671964951
865,737.0204409578587
866,737.0049938496855
867,736.9876690720366
868,736.9689653612215
869,736.9494232152609
870,736.9296116244674
871,736.9101159210576
872,736.8915271125627
873,736.8744327665486
874,736.8594092548974
875,736.8470150252246
876,736.8377845605067
877,736.8322227731031
878,736.8307996979312
879,736.8339454691727
880,736.8420456785032
881,736.8554372895017
882,736.8744052581093
883,736.8991798641599
884,736.92993457862
885,736.9667841938406
886,737.0097829739349
887,737.058922701589
888,737.1141306557571
889,737.1752677166945
890,737.2421269201525
891,737.3144328326356
892,737.3918420960885
893,737.473945440028
894,737.5602714311539
895,737.6502922274913
896,737.743431564564
897,737.8390750452318
898,737.9365825239744
899,738.0353020552437
900,738.134584616245
901,738.2337986785802
902,738.3323437101516
903,738.4296618131638
904,738.5252468883408
905,738.6186509205106
906,738.7094872128007
907,738.7974306761421
908,738.8822155819292
909,738.9636314158655
910,739.0415175564907
911,739.1157574820089
912,739.1862731643585
913,739.2530202322667
914,739.3159843158492
915,739.3751787288079
916,739.4306433773606
917,739.4824445972615
