acceleration,velocity,displacement
0.025580984488896594,0.0,0.0
0.02591382311716872,1.2873701901516329e-05,3.2184254753790822e-09
0.026242749469361455,2.5912845048148873e-05,1.2915062212795384e-08
0.026567528204644746,3.911541446665042e-05,2.9172127091495204e-08
0.026887890610868964,5.2479269170528846e-05,5.207079800079002e-08
0.027203534726921715,6.600212550497651e-05,8.169114666966637e-08
0.0275141257128462,7.968154061491848e-05,1.1811206319964012e-07
0.027819296464418455,9.351489615923466e-05,1.614111723931784e-07
0.028118648462789827,0.00010749938239103673,2.1166474203074626e-07
0.028411752843234866,0.00012163198271754291,2.689475833078912e-07
0.028698151662333034,0.00013590945884393488,3.333329436982606e-07
0.028977359340668137,0.00015032833659468518,4.0489239255791563e-07
0.029248864257206852,0.00016488489249415393,4.836956998301254e-07
0.029512130470815384,0.00017957514117615948,5.698107082477038e-07
0.029766599544406393,0.00019439482367996491,6.633031994617349e-07
0.030011692448373522,0.0002093393966781599,7.642367545512661e-07
0.030246811522082643,0.00022440402267077394,8.726726093884996e-07
0.030471342474379087,0.00023958356116988937,9.886695053486654e-07
0.030684656406070404,0.0002548725608900017,1.1122835358636382e-06
0.030886111839864405,0.00027026525295148544,1.24356798932401e-06
0.031075056746532843,0.0002857555450980848,1.3825731888364025e-06
0.03125083055907666,0.00030133701692448714,1.5293463293420456e-06
0.0314127661687504,0.0003170029161064439,1.6839313125997783e-06
0.031560191898197615,0.0003327461556231809,1.8463685805321844e-06
0.03169243344865712,0.00034855931195989457,2.0166949474279533e-06
0.03180881581985157,0.00036443462427702175,2.1949434314871825e-06
0.03190866520221648,0.0003803639945325388,2.3811430861895725e-06
0.031991310841231295,0.0003963389885434007,2.5753188319585575e-06
0.03205608687306582,0.000412350837971975,2.7774912885874015e-06
0.03210233413031501,0.00042839044322282016,2.9876766088861003e-06
0.032129401916676494,0.00044444837723456803,3.2058863140004474e-06
0.03213664975017891,0.00046051489015128187,3.43212713084691e-06
0.032123449075678705,0.0004765799148577463,3.666400832099167e-06
0.03208918494841288,0.0004926330733637692,3.908704079154546e-06
0.03203325769082967,0.0005086636840235799,4.159028268501383e-06
0.03195508452439579,0.0005246607695773862,4.417359381901625e-06
0.031854101177195955,0.0005406130660027842,4.683677840796668e-06
0.03172976346722031,0.0005565090321638883,4.9579583653383366e-06
0.03158154886009508,0.0005723368602457171,5.240169838440738e-06
0.031408957998215824,0.0005880844869602948,5.530275175242241e-06
0.031211516195885778,0.0006037396055088202,5.82823119835952e-06
0.030988774893418246,0.0006192896782811462,6.133988519307012e-06
0.030740313063035842,0.0006347219502702597,6.447491426444863e-06
0.030465738560635076,0.0006500234631761774,6.768677779806472e-06
0.030164689419197303,0.0006651810701711355,7.0974789131433005e-06
0.029836835081375458,0.0006801814512962787,7.433819543510154e-06
0.029481877570309994,0.0006950111294592001,7.777617688699023e-06
0.02909955259918654,0.0007096564870015743,8.128784592814216e-06
0.028689630621565616,0.0007241037828067624,8.4872246602663e-06
0.02825191782673059,0.0007383391699188365,8.8528353984477e-06
0.02778625708736908,0.0007523487136473614,9.22550736933925e-06
0.027292528870019952,0.0007661184101367087,9.605124150285267e-06
0.026770652121015575,0.0007796342053844675,9.991562304165561e-06
0.02622058514106167,0.0007928820146999868,1.0384691359186674e-05
0.025642326459622774,0.000805847742600158,1.078437379851171e-05
0.02503591571644642,0.0008185173031441753,1.1190465059947793e-05
0.024401434552833803,0.0008308766407114954,1.160281354591171e-05
0.023739007510718477,0.0008429117512273835,1.202126064389643e-05
0.023048802933960808,0.0008546087038385533,1.2445640757662915e-05
0.02233103386382413,0.0008659536630379995,1.2875781349382054e-05
0.02158595891883031,0.0008769329112336632,1.331150299294997e-05
0.020813883147819335,0.0008875328717503256,1.3752619438695966e-05
0.02001515884442703,0.0008977401322483872,1.4198937689695644e-05
0.019190186311885345,0.0009075414685374653,1.4650258089892108e-05
0.01833941456836864,0.0009169238687575288,1.5106374424215856e-05
0.017463341983544944,0.0009258745578955073,1.5567074030879116e-05
0.01656251683632651,0.0009343810226004752,1.6032137926003113e-05
0.01563753778243619,0.0009424310362551658,1.6501340940717024e-05
0.014689054218791837,0.0009500126842554729,1.6974451870844684e-05
0.013717766529529872,0.0009571143894425533,1.745123363926919e-05
0.012724426196108933,0.000963724937623963,1.7931443471035818e-05
0.011709835752143941,0.0009698335031110262,1.8414833081219566e-05
0.01067484856304351,0.000975429674189823,1.8901148875544777e-05
0.009620368411048243,0.0009805034784333459,1.939013216370057e-05
0.008547348867963158,0.0009850454077530988,1.988151938524718e-05
0.0074567924408093355,0.000989046443080292,2.037504234795553e-05
0.006349749480052887,0.0009924980785605076,2.087042847836573e-05
0.005227316845040621,0.000995392345141781,2.1367401084291302e-05
0.004090636325876655,0.0009977218334345102,2.1865679628935376e-05
0.0029408928242406714,0.0009994797157220395,2.236498001622451e-05
0.0017793122974859308,0.0010006597670024712,2.2865014886905638e-05
0.000607159471303279,0.0010012563849446684,2.3365493924892422e-05
-0.0005742646725130084,0.001001264608644366,2.386612417328968e-05
-0.0017636256243796179,0.0010006801360701429,2.4366610359468306e-05
-0.002959558279320392,0.0009994993400942178,2.4866655228509398e-05
-0.0041606700578599365,0.0009977192830099228,2.5365959884285434e-05
-0.005365544196476419,0.0009953377294463386,2.58642241373995e-05
-0.006572743186569584,0.0009923531576005772,2.636114685916123e-05
-0.007780812340508091,0.0009887647687188078,2.6856426340741074e-05
-0.00898828346404383,0.00098457249476767,2.7349760656612694e-05
-0.010193678615136018,0.0009797770042478749,2.784084803136658e-05
-0.011395513929671044,0.0009743797061116731,2.8329387208956467e-05
-0.012592303494845934,0.0009683827517555438,2.881507782342327e-05
-0.01378256325113399,0.0009617890350690488,2.929762077012942e-05
-0.014964814903360794,0.0009546021905304251,2.9776718576529288e-05
-0.01613758982047818,0.0009468265893494654,3.025207577149926e-05
-0.017299432902463115,0.00093846733366873,3.072339925225381e-05
-0.018448906391791673,0.0009295302488451663,3.119039864788229e-05
-0.019584593606566,0.0009200218738455769,3.1652786678554975e-05
-0.02070510257272485,0.0009099494498007542,3.211027950946656e-05
-0.02180906953440374,0.0008993209067739721,3.256259709861024e-05
-0.022895162324231576,0.0008881448488093133,3.3009463537506056e-05
-0.023962083578751056,0.0008764305373335677,3.345060738404178e-05
-0.025008573787424212,0.0008641878729920239,3.388576198662318e-05
-0.026033414166488043,0.0008514273760035459,3.431466579887207e-05
-0.02703542935080633,0.0008381601651242223,3.473706268415401e-05
-0.02801348989805613,0.0008243979353120066,3.515270220926307e-05
-0.028966514600334923,0.0008101529341874088,3.5561339926637925e-05
-0.029893472598909187,0.0007954379373875977,3.596273764453168e-05
-0.030793385298744452,0.0007802662229131844,3.6356663684606874e-05
-0.03166532808026795,0.0007646515445684312,3.674289312647728e-05
-0.03250843180621592,0.0007486081045968103,3.7121208038768584e-05
-0.03332188412123969,0.0007321505256149464,3.7491397696321524e-05
-0.03410493054189656,0.0007152938219491624,3.785325878321255e-05
-0.03485687533510656,0.0006980533704799116,3.820659558131982e-05
-0.03557708218383757,0.0006804448811001756,3.855122014421484e-05
-0.03626497463923506,0.0006624843668944074,3.888695245621349e-05
-0.036920036358190925,0.0006441881141450509,3.921362057647335e-05
-0.03754181112518487,0.000625572652274207,3.953106076807817e-05
-0.03812990265726624,0.0006066547238285943,3.983911761210387e-05
-0.03868397419160656,0.0005874512546163761,4.013764410671511e-05
-0.03920374785613523,0.0005679793241044406,4.042650175139532e-05
-0.039689003825652144,0.0005482561361839938,4.0705560616467424e-05
-0.04013957926822097,0.0005282989904105255,4.097469939811605e-05
-0.04055536708961058,0.0005081252538210676,4.123380545917395e-05
-0.04093631448667953,0.00048775233342699504,4.148277485598597e-05
-0.04128242132345972,0.00046719764947446025,4.172151235171133e-05
-0.04159373834542097,0.00044647860955724007,4.1949931416469255e-05
-0.041870365247817606,0.00042561258365893045,4.2167954214773296e-05
-0.04211244861395006,0.0004046168801934885,4.23755115807364e-05
-0.04232017973936449,0.00038350872310515986,4.257254298156106e-05
-0.04249379235806781,0.0003623052300808018,4.275899646985755e-05
-0.042633560287102086,0.0003410233919195093,4.2934828625357626e-05
-0.04273979500695912,0.000319680053095994,4.31000044866115e-05
-0.04281284319773031,0.00029829189354482164,4.32544974732717e-05
-0.042853084253835876,0.0002768754116819301,4.3398289299578387e-05
-0.0428609278020098,0.00025544690866796866,4.3531369879665864e-05
-0.042836811247012364,0.0002340224739057131,4.3653737225309286e-05
-0.04278119736724469,0.00021261797175214884,4.376539733672375e-05
-0.042694571979376816,0.00019124902941549348,4.386636408701566e-05
-0.042577441688322906,0.00016993102599856854,4.3956659100869176e-05
-0.04243033173655619,0.00014867908264234878,4.403631162802941e-05
-0.042253783964704854,0.0001275080537170335,4.410535841211925e-05
-0.04204835489315409,0.00010643251900256877,4.416384355529915e-05
-0.041814613932477596,8.546677679616085e-05,4.4211818379248836e-05
-0.04155314172944371,6.462483788068052e-05,4.4249341282918046e-05
-0.041264528655228574,4.392042028451245e-05,4.4276477597459344e-05
-0.040949373442442955,2.336694476009457e-05,4.4293299438720494e-05
-0.04060828197650466,2.9775309053576695e-06,4.4299885557636854e-05
-0.040241866244701364,-1.7235006149943836e-05,4.429632118882571e-05
-0.03985074344343222,-3.725815857197723e-05,4.4282697897645226e-05
-0.03943553524141089,-5.7079728243188016e-05,4.4259113425941434e-05
-0.03899686719409558,-7.668782885206464e-05,4.422567153666762e-05
-0.03853536830225537,-9.607088772615237e-05,4.4182481857523065e-05
-0.038051670705612405,-0.00011521764747811932,4.4129659723722e-05
-0.03754640950144254,-0.00013411716752988304,4.4067326019969996e-05
-0.037020222677792626,-0.00015275882557469182,4.399560702169385e-05
-0.036473751150820306,-0.00017113231903184505,4.391463423554222e-05
-0.03590763889504939,-0.00018922766654331247,4.382454423914843e-05
-0.03532253315388491,-0.00020703520955554604,4.372547852012372e-05
-0.0347190847161935,-0.00022454561402306564,4.3617583314229065e-05
-0.034097948243323885,-0.00024174987226294498,4.350100944265756e-05
-0.03345978262962944,-0.00025863930498118334,4.337591214834653e-05
-0.03280525137853303,-0.00027520556348322394,4.324245093123043e-05
-0.032135022975819806,-0.00029144063207181217,4.310078938234167e-05
-0.031449771242623104,-0.0003073368306264229,4.295109501666711e-05
-0.03075017565263061,-0.00032288681735023636,4.2793539104672946e-05
-0.030036921600960734,-0.0003380835916636342,4.262829650241948e-05
-0.02931070061541629,-0.00035292049721772847,4.2455545480199136e-05
-0.028572210503721513,-0.0003673912249975129,4.2275467549645326e-05
-0.027822155432633295,-0.0003814898164816016,4.2088247289275544e-05
-0.027061245936707876,-0.0003952106668239369,4.189407216844916e-05
-0.026290198856300927,-0.0004085485280221891,4.169313236973762e-05
-0.025509737206508842,-0.0004214985120378915,4.14856206097226e-05
-0.0247205899804307,-0.00043405609383462637,4.127173195825447e-05
-0.02392349189108749,-0.00044621711430250594,4.1051663656220186e-05
-0.0231191830568116,-0.00045797778303948073,4.082561493188469e-05
-0.022308408635656498,-0.00046933468096259774,4.059378681588417e-05
-0.02149191841508369,-0.00048028476272528276,4.03563819549622e-05
-0.02067046636251302,-0.0004908253589196819,4.011360442455096e-05
-0.01984481014029532,-0.000500954178045384,3.9865659540309694e-05
-0.019015710585799074,-0.0005106693082269076,3.961275366874162e-05
-0.01818393115472559,-0.0005199692186620388,3.935509403701938e-05
-0.017350237323750087,-0.0005288527607816577,3.9092888542158454e-05
-0.01651539594767424,-0.0005373191690995138,3.882634555968816e-05
-0.01568017456693754,-0.0005453680617281667,3.855567375198124e-05
-0.014845340663214314,-0.0005529994405357047,3.8281081876415277e-05
-0.014011660862293027,-0.0005602136909170815,3.800277859355208e-05
-0.013179900083179751,-0.0005670115811534498,3.772097227553445e-05
-0.012350820630408032,-0.0005733942613318468,3.743587081491312e-05
-0.011525181224623192,-0.0005793632617956046,3.714768143413126e-05
-0.010703735966539186,-0.0005849204910933952,3.685661049590901e-05
-0.009887233231508051,-0.000590068233392907,3.6562863314787436e-05
-0.009076414495140617,-0.0005948091453245692,3.626664397010807e-05
-0.00827201309329762,-0.0005991462522216787,3.59681551207215e-05
-0.007474752921653037,-0.0006030829437254164,3.566759782173473e-05
-0.006685347081073101,-0.000606622968726098,3.536517134362185e-05
-0.005904496475703984,-0.0006097704296152923,3.5061072994036503e-05
-0.005132888370644704,-0.0006125297758268794,3.475549794267596e-05
-0.004371194915198392,-0.0006149057966483402,3.4448639049557154e-05
-0.0036200716358184997,-0.0006169036132860945,3.414068669707355e-05
-0.00288015590109082,-0.0006185286701703218,3.3831828626209446e-05
-0.0021520653603280173,-0.0006197867254856765,3.352224977729545e-05
-0.001436396358406965,-0.0006206838409153603,3.321213213569519e-05
-0.000733722331780915,-0.0006212263705879073,3.290165458281937e-05
-4.459219303286332e-05,-0.0006214209492191107,3.2590992752867615e-05
0.0006304712872812799,-0.0006212744794455486,3.228031889570145e-05
0.0012909730919220786,-0.0006207941183507477,3.1969801746252374e-05
0.0019364475502583176,-0.0006199872631902026,3.165960640086714e-05
0.0025664599004743796,-0.0006188615363275195,3.134989420098771e-05
0.003180607805913782,-0.0006174247694009224,3.10408226245556e-05
0.0037785228095735313,-0.0006156849867470506,3.073254518551861e-05
0.004359871709027496,-0.0006136503881174004,3.0425211341802495e-05
0.004924357831542755,-0.0006113293307322579,3.011896641209008e-05
0.005471722186819517,-0.0006087303107276673,2.98139515017251e-05
0.006001744473748165,-0.0006058619440625254,2.9510303438027553e-05
0.006514243918564251,-0.0006027329469644473,2.920815471527081e-05
0.007009079924255885,-0.0005993521160037422,2.8907633449528762e-05
0.007486152514348798,-0.0005957283078940911,2.8608863343554302e-05
0.007945402557744223,-0.0005918704191260678,2.8311963661799264e-05
0.008386811765482631,-0.0005877873655452611,2.801704921563143e-05
0.008810402455606206,-0.0005834880619899889,2.7724230358747618e-05
0.009216237088393099,-0.0005789814021039891,2.7433612992724122e-05
0.00960441758014834,-0.0005742762384368538,2.7145298582588912e-05
0.009975084408121124,-0.0005693813629397864,2.685938418224475e-05
0.010328415522064996,-0.0005643054879572399,2.6575962469520494e-05
0.010664625080826004,-0.0005590572278065172,2.6295121790579556e-05
0.010983962035304246,-0.0005536450810274846,2.6016946213371056e-05
0.011286708580468237,-0.0005480774133735415,2.5741515589770798e-05
0.011573178497965037,-0.0005423624416039331,2.546890562602643e-05
0.011843715407980949,-0.0005365082181274467,2.5199187961093583e-05
0.01209869094642407,-0.0005305226165388454,2.493243025242701e-05
0.012338502881380617,-0.0005244133180818943,2.4668696268771827e-05
0.012563573180801282,-0.0005181877990663488,2.4408045989484767e-05
0.01277434604187398,-0.00051185331926068,2.415053570990301e-05
0.012971285892254597,-0.0005054169112771479,2.3896218152268554e-05
0.013154875374230086,-0.0004988853709605267,2.3645142581709136e-05
0.013325613323562188,-0.0004922652487860786,2.3397354926772485e-05
0.013484012754021342,-0.00048556284226668276,2.3152897904009294e-05
0.01363059885645439,-0.0004787841893640638,2.291181114610161e-05
0.013765907018569145,-0.0004719350628953079,2.2674131333036765e-05
0.013890480869341375,-0.00046502096592333027,2.2439892325832104e-05
0.014004870350308203,-0.0004580471281184179,2.2209125302321667e-05
0.014109629814623713,-0.0004510185030771849,2.1981858894522766e-05
0.01420531615304468,-0.00044393976658526783,2.1758119327107153e-05
0.014292486943533321,-0.00043681531581112336,2.1537930556508054e-05
0.014371698618381354,-0.0004296492694206447,2.1321314410200113e-05
0.014443504640723295,-0.00042244546860586854,2.1108290725693484e-05
0.014508453681669253,-0.0004152074790252704,2.08988774887857e-05
0.014567087790516037,-0.00040793859365722407,2.0693090970615077e-05
0.01461994055335023,-0.0004006418365712575,2.0490945863057957e-05
0.014667535239667892,-0.000393319967623003,2.029245541200939e-05
0.01471038294145609,-0.000385975488077722,2.009763154808421e-05
0.014748980713049161,-0.0003786106471640957,1.9906485014273754e-05
0.014783809721819773,-0.00037122744955537845,1.9719025490093887e-05
0.014815333420046574,-0.00036382766376991186,1.9535261711762564e-05
0.014843995748494801,-0.0003564128314777765,1.935520158795064e-05
0.014870219383405256,-0.0003489842776948015,1.9178852310657498e-05
0.0148944040402678,-0.00034154312183888325,1.9006220460774077e-05
0.014916924848711164,-0.0003340902896166385,1.8837312107910198e-05
0.01493813081212036,-0.00032662652570143063,1.8672132904080682e-05
0.014958343363401268,-0.0003191524071575502,1.8510688170865935e-05
0.014977855026028445,-0.0003116683575601928,1.83529829796865e-05
0.014996928188358974,-0.00030417466175659596,1.8199022224857303e-05
0.015015793999371618,-0.0002966714812096633,1.804881068911574e-05
0.01503465139514212,-0.00028915886986103484,1.7902353101348066e-05
0.015053666266563797,-0.00028163679044560837,1.7759654186271405e-05
0.015072970779160285,-0.00027410513118417736,1.7620718705863958e-05
0.015092662854032941,-0.00026656372277587907,1.7485551492373944e-05
0.015112805815491433,-0.000259012355608498,1.735415747277785e-05
0.015133428207504924,-0.0002514507971027489,1.722654168460004e-05
0.01515452377985715,-0.00024387880910590838,1.7102709283047873e-05
0.015176051646081015,-0.00023629616524942383,1.698266553945904e-05
0.015197936616971153,-0.00022870266818366078,1.6866415831100772e-05
0.015220069713886047,-0.00022109816660094647,1.675396562240462e-05
0.015242308865249214,-0.00021348257195616266,1.6645320437765343e-05
0.015264479788610027,-0.00020585587479269785,1.654048582607813e-05
0.015286377059690081,-0.00019821816058062283,1.6439467317234798e-05
0.015307765368318628,-0.00019056962497362065,1.6342270370846236e-05
0.015328380958361518,-0.0001829105883919506,1.624890031750484e-05
0.01534793324452291,-0.0001752415098412295,1.6159362292946547e-05
0.015366106594479633,-0.00016756299988147886,1.607366116551587e-05
0.015382562261128514,-0.00015987583266757684,1.5991801457378606e-05
0.015396940447680118,-0.0001521809569903747,1.5913787259964116e-05
0.015408862487645003,-0.0001444795062565434,1.5839622144152387e-05
0.015417933122056937,-0.00013677280735411792,1.5769309065749723e-05
0.015423742857509193,-0.0001290623883592264,1.5702850266821387e-05
0.015425870390916231,-0.00012134998504712004,1.56402471734698e-05
0.015423885089816373,-0.00011363754617693689,1.5581500290663787e-05
0.015417349519127677,-0.00010592723752470087,1.5526609094738378e-05
0.015405822006086239,-9.822144464339739e-05,1.5475571924196353e-05
0.015388859235186611,-9.052277433307917e-05,1.5428385869452234e-05
0.015366018864460108,-8.283405480816749e-05,1.5385046662166924e-05
0.01533686215299789,-7.515833455380298e-05,1.534554856482643e-05
0.015300956587693225,-6.749887986863021e-05,1.530988426122082e-05
0.015257878495825323,-5.9859171097750575e-05,1.5278044748479226e-05
0.015207215629975925,-5.224289756630026e-05,1.5250019231313214e-05
0.015148569712621537,-4.4653951230650896e-05,1.5225795019113977e-05
0.015081558929646426,-3.7096419070083904e-05,1.5205357426538793e-05
0.015005820364363907,-2.9574574246581322e-05,1.5188689678209627e-05
0.014921012365701538,-2.209286606406496e-05,1.5175772818131966e-05
