frame_number,force
0,741.9041082425946
1,741.9335815741033
2,741.9623771573522
3,741.9904637125584
4,742.0178093776909
5,742.044381724854
6,742.0701477827192
7,742.0950740649804
8,742.1191266046793
9,742.1422709941213
10,742.1644724300029
11,742.1856957633247
12,742.2059055536369
13,742.225066127145
14,742.2431416381984
15,742.2600961336946
16,742.2758936199727
17,742.2904981317957
18,742.3038738030566
19,742.3159849388846
20,742.3267960888812
21,742.3362721212665
22,742.3443782977505
23,742.3510803489639
24,742.3563445503069
25,742.3601377981036
26,742.3624276859621
27,742.3631825812364
28,742.3623717014724
29,742.3599651907064
30,742.3559341954822
31,742.3502509404631
32,742.3428888035323
33,742.3338223902933
34,742.3230276078849
35,742.3104817380183
36,742.2961635091192
37,742.280053167442
38,742.2621325470021
39,742.2423851381327
40,742.220796154433
41,742.1973525978409
42,742.1720433215612
43,742.1448590906053
44,742.1157926397362
45,742.0848387286419
46,742.051994194195
47,742.0172579996872
48,741.9806312809577
49,741.9421173893825
50,741.9017219317518
51,741.8594528071284
52,741.8153202408257
53,741.7693368156608
54,741.7215175006024
55,741.6718796768699
56,741.6204431614541
57,741.5672302279513
58,741.512265624543
59,741.4555765889079
60,741.3971928598322
61,741.3371466852641
62,741.275472826553
63,741.2122085586379
64,741.1473936659787
65,741.0810704340452
66,741.0132836361706
67,740.944080515561
68,740.8735107622265
69,740.8016264845718
70,740.728482175344
71,740.6541346716092
72,740.578643108429
73,740.5020688659262
74,740.4244755094664
75,740.3459287227496
76,740.2664962336936
77,740.1862477330981
78,740.1052547861676
79,740.0235907370436
80,739.941330606537
81,739.8585509832778
82,739.7753299085265
83,739.6917467549433
84,739.6078820996761
85,739.5238175922001
86,739.4396358174133
87,739.3554201545335
88,739.2712546323554
89,739.1872237814166
90,739.1034124836082
91,739.0199058197617
92,738.9367889157402
93,738.8541467875609
94,738.7720641860844
95,738.6906254418247
96,738.6099143104562
97,738.5300138196134
98,738.4510061175835
99,738.3729723244861
100,738.2959923865006
101,738.2201449336486
102,738.1455071415728
103,738.0721545976866
104,738.000161172014
105,737.9295988929999
106,737.8605378285424
107,737.7930459724826
108,737.7271891367695
109,737.6630308494958
110,737.6006322589762
111,737.5400520440329
112,737.4813463306431
113,737.4245686151037
114,737.3697696938509
115,737.3169976000521
116,737.2662975470737
117,737.2177118789243
118,737.1712800277704
119,737.1270384786126
120,737.0850207411924
121,737.0452573291718
122,737.0077757465856
123,736.9726004815126
124,736.939753006848
125,736.9092517879934
126,736.8811122972188
127,736.8553470344125
128,736.8319655539171
129,736.8109744971465
130,736.7923776306656
131,736.7761758894109
132,736.7623674247146
133,736.7509476567686
134,736.7419093311138
135,736.7352425786758
136,736.7309349788301
137,736.7289716249768
138,736.7293351921423
139,736.7320060061817
140,736.7369621141999
141,736.7441793558519
142,736.7536314352152
143,736.7652899929678
144,736.7791246786354
145,736.7951032226886
146,736.8131915082714
147,736.8333536423377
148,736.8555520259905
149,736.8797474238598
150,736.9058990324038
151,736.9339645470694
152,736.9639002282936
153,736.9956609663689
154,737.0292003452348
155,737.0644707052736
156,737.1014232051936
157,737.1400078830844
158,737.1801737167433
159,737.2218686833954
160,737.265039818964
161,737.3096332770704
162,737.3555943879697
163,737.402867717651
164,737.4513971273306
165,737.5011258335616
166,737.5519964691383
167,737.6039511449222
168,737.6569315126552
169,737.7108788287719
170,737.7657340191805
171,737.821437744948
172,737.8779304687919
173,737.9351525222435
174,737.9930441733161
175,738.0515456944969
176,738.1105974308732
177,738.1701398681915
178,738.2301137006389
179,738.2904598981486
180,738.351119773074
181,738.4120350461313
182,738.4731479115657
183,738.534401101531
184,738.5957379496992
185,738.6571024541024
186,738.7184393391791
187,738.7796941169718
188,738.8408131474307
189,738.9017436978197
190,738.9624340012587
191,739.0228333144414
192,739.0828919745323
193,739.1425614551835
194,739.2017944215676
195,739.2605447842909
196,739.3187677520299
197,739.376419882733
198,739.4334591332296
199,739.4898449071106
200,739.5455381007862
201,739.6005011476636
202,739.6546980604068
203,739.7080944712253
204,739.7606576701003
205,739.8123566408136
206,739.8631620946275
207,739.9130465014476
208,739.9619841182815
209,740.0099510147687
210,740.0569250955359
211,740.1028861191083
212,740.1478157130837
213,740.1916973852304
214,740.2345165301355
215,740.2762604310074
216,740.3169182562681
217,740.3564810506165
218,740.3949417203139
219,740.432295012514
220,740.4685374885426
221,740.5036674911374
222,740.5376851057794
223,740.5705921163596
224,740.6023919555179
225,740.6330896500422
226,740.6626917617817
227,740.6912063245811
228,740.7186427777727
229,740.7450118967463
230,740.7703257210607
231,740.7945974805157
232,740.8178415195646
233,740.8400732204095
234,740.8613089250962
235,740.881565856918
236,740.9008620414586
237,740.9192162276127
238,740.9366478089113
239,740.9531767454386
240,740.9688234865703
241,740.9836088947238
242,740.9975541702742
243,741.0106807777631
244,741.0230103734931
245,741.0345647345467
246,741.0453656892188
247,741.0554350488028
248,741.0647945406602
249,741.0734657425181
250,741.0814700179922
251,741.0888284534049
252,741.0955617960609
253,741.1016903942037
254,741.1072341389081
255,741.1122124081619
256,741.1166440133877
257,741.1205471486705
258,741.1239393429822
259,741.1268374157055
260,741.1292574357396
261,741.1312146844216
262,741.1327236224446
263,741.1337978609273
264,741.1344501367845
265,741.1346922925611
266,741.1345352609118
267,741.1339890539017
268,741.1330627572671
269,741.1317645296988
270,741.1301016071392
271,741.1280803120545
272,741.1257060676585
273,741.1229834170895
274,741.1199160475464
275,741.1165068193649
276,741.1127577999896
277,741.1086703027787
278,741.1042449305377
279,741.0994816236235
280,741.094379712376
281,741.0889379735456
282,741.0831546903106
283,741.0770277154365
284,741.0705545371142
285,741.0637323470164
286,741.0565581101345
287,741.0490286359956
288,741.0411406509207
289,741.0328908710185
290,741.0242760756265
291,741.0152931809158
292,741.0059393133616
293,740.9962118827625
294,740.9861086544519
295,740.975627820325
296,740.9647680683029
297,740.9535286498744
298,740.941909445401
299,740.9299110269126
300,740.9175347181713
301,740.9047826518024
302,740.891657823292
303,740.8781641416335
304,740.864306476378
305,740.8500907008389
306,740.8355237312036
307,740.8206135613024
308,740.8053692927612
309,740.7898011602514
310,740.7739205515643
311,740.7577400222744
312,740.7412733048063
313,740.724535311761
314,740.7075421334123
315,740.6903110293437
316,740.6728604142673
317,740.655209838131
318,740.6373799606478
319,740.619392520374
320,740.6012702984073
321,740.5830370767184
322,740.5647175911062
323,740.546337478765
324,740.5279232204867
325,740.5095020775467
326,740.4911020233512
327,740.4727516699611
328,740.4544801896611
329,740.4363172318085
330,740.4182928352693
331,740.4004373368342
332,740.3827812760773
333,740.3653552971444
334,740.3481900479388
335,740.3313160771357
336,740.3147637294561
337,740.298563039638
338,740.282743625559
339,740.2673345809612
340,740.2523643682237
341,740.2378607116221
342,740.2238504915233
343,740.2103596399631
344,740.197413038055
345,740.1850344156325
346,740.1732462534803
347,740.162069688462
348,740.1515244218523
349,740.1416286311871
350,740.1323988859336
351,740.1238500672537
352,740.1159952921114
353,740.1088458419682
354,740.1024110963176
355,740.0966984713349
356,740.0917133639421
357,740.0874591015972
358,740.0839368980969
359,740.0811458156376
360,740.0790827333583
361,740.0777423225962
362,740.0771170291249
363,740.0771970626723
364,740.077970394004
365,740.0794227598076
366,740.0815376755631
367,740.0842964565413
368,740.0876782470477
369,740.0916600579911
370,740.0962168127943
371,740.1013214016007
372,740.1069447436648
373,740.1130558577506
374,740.1196219402863
375,740.1266084509583
376,740.1339792053807
377,740.1416964744526
378,740.1497210900095
379,740.1580125563543
380,740.1665291672364
381,740.1752281278194
382,740.1840656811484
383,740.1929972386087
384,740.201977513864
385,740.2109606597508
386,740.2199004076036
387,740.2287502084808
388,740.2374633757609
389,740.2459932285788
390,740.2542932355749
391,740.2623171584471
392,740.2700191948279
393,740.2773541200245
394,740.2842774271593
395,740.2907454652384
396,740.2967155746685
397,740.3021462197379
398,740.3069971175751
399,740.3112293630987
400,740.3148055494747
401,740.317689883585
402,740.3198482960064
403,740.3212485449948
404,740.3218603139943
405,740.3216553022487
406,740.3206073081726
407,740.3186923052248
408,740.3158885100963
409,740.3121764430774
410,740.3075389804977
411,740.3019613991645
412,740.2954314127503
413,740.2879392001329
414,740.2794774257378
415,740.2700412519649
416,740.259628343782
417,740.248238865558
418,740.2358754701937
419,740.2225432806002
420,740.2082498635953
421,740.193005196322
422,740.1768216253541
423,740.1597138187025
424,740.1416987109789
425,740.1227954419944
426,740.1030252890865
427,740.0824115934851
428,740.0609796810378
429,740.0387567776364
430,740.0157719197169
431,739.9920558602527
432,739.9676409706956
433,739.9425611393432
434,739.916851666613
435,739.8905491577011
436,739.8636914130897
437,739.8363173173434
438,739.8084667266173
439,739.7801803552993
440,739.7514996622364
441,739.7224667369996
442,739.6931241866209
443,739.663515023189
444,739.6336825526581
445,739.603670265191
446,739.5735217273168
447,739.5432804761399
448,739.5129899157962
449,739.4826932163235
450,739.4524332150902
451,739.4222523209008
452,739.3921924208711
453,739.3622947901744
454,739.332600004797
455,739.3031478574809
456,739.273977277056
457,739.2451262513437
458,739.2166317537672
459,739.1885296737512
460,739.1608547509487
461,739.1336405133113
462,739.106919219008
463,739.0807218021957
464,739.0550778226569
465,739.0300154193594
466,739.0055612680386
467,738.9817405429258
468,738.9585768827518
469,738.9360923611423
470,738.9143074615098
471,738.8932410565302
472,738.8729103922618
473,738.8533310769319
474,738.8345170743868
475,738.8164807021933
476,738.7992326343998
477,738.7827819089983
478,738.7671359401571
479,738.7523005352931
480,738.7382799170343
481,738.7250767500886
482,738.712692172995
483,738.7011258346835
484,738.6903759357222
485,738.6804392740946
486,738.6713112953455
487,738.6629861469441
488,738.6554567367059
489,738.6487147950755
490,738.6427509410279
491,738.6375547512982
492,738.6331148326138
493,738.6294188965546
494,738.626453836612
495,738.6242058069487
496,738.6226603023106
497,738.6218022385202
498,738.6216160330199
499,738.6220856849949
500,738.6231948546794
501,738.6249269414893
502,738.6272651606541
503,738.6301926180399
504,738.6336923828936
505,738.6377475582638
506,738.6423413488529
507,738.6474571260263
508,738.6530784896597
509,738.6591893264965
510,738.6657738646988
511,738.6728167243214
512,738.6803029634838
513,738.6882181200596
514,738.6965482487302
515,738.7052799532921
516,738.7144004141455
517,738.7238974109499
518,738.733759340488
519,738.7439752298277
520,738.7545347449114
521,738.7654281947373
522,738.7766465313334
523,738.7881813457626
524,738.8000248604229
525,738.8121699179329
526,738.8246099669049
527,738.8373390449354
528,738.8503517591655
529,738.8636432647594
530,738.8772092416274
531,738.8910458696924
532,738.9051498030052
533,738.9195181430384
534,738.9341484115234
535,738.949038523212
536,738.9641867589531
537,738.9795917394492
538,738.9952523999982
539,739.0111679664433
540,739.0273379324864
541,739.0437620384931
542,739.0604402519175
543,739.0773727494642
544,739.0945599010753
545,739.1120022557782
546,739.129700529382
547,739.1476555939598
548,739.165868469013
549,739.1843403141911
550,739.2030724234326
551,739.2220662204016
552,739.2413232550965
553,739.2608452014856
554,739.2806338560009
555,739.3006911366906
556,739.3210190828246
557,739.3416198547529
558,739.3624957338316
559,739.3836491222605
560,739.4050825427232
561,739.4267986377607
562,739.4488001688438
563,739.4710900150972
564,739.4936711715856
565,739.5165467470061
566,739.5397199605659
567,739.5631941377724
568,739.5869727048472
569,739.6110591814947
570,739.6354571718393
571,739.6601703534598
572,739.685202464538
573,739.7105572891838
574,739.7362386410074
575,739.762250345014
576,739.7885962178916
577,739.8152800467342
578,739.842305566215
579,739.86967643421
580,739.8973962058765
581,739.9254683062146
582,739.9538960011564
583,739.9826823672565
584,740.0118302600802
585,740.0413422814049
586,740.0712207453687
587,740.1014676437135
588,740.1320846102891
589,740.1630728849824
590,740.194433277233
591,740.2261661292891
592,740.258271279363
593,740.2907480248532
594,740.3235950858161
595,740.3568105688738
596,740.3903919317315
597,740.4243359484553
598,740.4586386756231
599,740.4932954194284
600,740.5283007038005
601,740.5636482396133
602,740.599330895084
603,740.6353406674912
604,740.6716686563684
605,740.7083050383551
606,740.745239043919
607,740.7824589361949
608,740.8199519922038
609,740.8577044867301
610,740.8957016791336
611,740.9339278033615
612,740.9723660613894
613,741.0109986202665
614,741.0498066128832
615,741.0887701425414
616,741.127868291399
617,741.1670791328827
618,741.2063797481848
619,741.2457462469594
620,741.2851537923083
621,741.3245766300928
622,741.3639881225479
623,741.4033607861161
624,741.4426663333638
625,741.481875718796
626,741.5209591883558
627,741.5598863323728
628,741.5986261416971
629,741.6371470667375
630,741.6754170790953
631,741.7134037354607
632,741.7510742434108
633,741.7883955287039
634,741.8253343036257
635,741.8618571359182
636,741.89793051784
637,741.9335209349764
638,741.9685949344978
639,742.0031191926522
640,742.0370605813464
641,742.0703862337147
642,742.1030636085852
643,742.1350605537244
644,742.1663453677019
645,742.1968868601997
646,742.2266544105916
647,742.2556180246235
648,742.2837483890369
649,742.3110169239828
650,742.3373958330932
651,742.3628581510997
652,742.3873777889231
653,742.4109295761898
654,742.4334893011713
655,742.4550337481788
656,742.4755407324549
657,742.4949891325911
658,742.5133589204727
659,742.5306311887242
660,742.5467881756142
661,742.5618132873685
662,742.5756911178358
663,742.5884074654505
664,742.5999493474217
665,742.6103050110415
666,742.6194639419656
667,742.6274168692993
668,742.6341557673464
669,742.6396738539146
670,742.6439655851241
671,742.6470266467368
672,742.6488539421005
673,742.6494455768807
674,742.6488008407953
675,742.6469201865712
676,742.6438052063503
677,742.6394586058004
678,742.6338841762408
679,742.627086765144
680,742.6190722453949
681,742.6098474836795
682,742.5994203083619
683,742.5877994772022
684,742.5749946452485
685,742.5610163332054
686,742.5458758965311
687,742.5295854954612
688,742.5121580661146
689,742.4936072928008
690,742.4739475816241
691,742.4531940354586
692,742.4313624303297
693,742.408469193191
694,742.3845313810322
695,742.3595666612046
696,742.3335932928056
697,742.3066301089315
698,742.2786964995762
699,742.2498123949408
700,742.21999824892
701,742.1892750225518
702,742.1576641672373
703,742.1251876075446
704,742.0918677234106
705,742.0577273315473
706,742.022789665857
707,741.9870783566715
708,741.9506174086731
709,741.9134311774095
710,741.8755443443846
711,741.8369818907589
712,741.797769069725
713,741.7579313776296
714,741.7174945239099
715,741.6764843999002
716,741.6349270465594
717,741.5928486211642
718,741.5502753630274
719,741.5072335583172
720,741.4637495040832
721,741.4198494716267
722,741.3755596693948
723,741.3309062055948
724,741.2859150507138
725,741.2406120000906
726,741.1950226366516
727,741.1491722939028
728,741.1030860192652
729,741.0567885378479
730,741.0103042167411
731,740.9636570299054
732,740.9168705237329
733,740.8699677833822
734,740.8229714000186
735,740.7759034391036
736,740.7287854098961
737,740.6816382363425
738,740.6344822295418
739,740.5873370619581
740,740.5402217435185
741,740.4931545997075
742,740.4461532517456
743,740.3992345989284
744,740.3524148031854
745,740.3057092758866
746,740.259132666888
747,740.2126988557826
748,740.1664209453066
749,740.1203112568605
750,740.074381328119
751,740.0286419127456
752,739.9831029822747
753,739.9377737302593
754,739.8926625788002
755,739.8477771875735
756,739.8031244654615
757,739.7587105848739
758,739.7145409988098
759,739.6706204606613
760,739.6269530467038
761,739.583542181147
762,739.5403906635746
763,739.4975006985778
764,739.4548739273991
765,739.4125114614092
766,739.3704139172239
767,739.3285814532304
768,739.2870138072485
769,739.245710335035
770,739.2046700493497
771,739.1638916593364
772,739.1233736100097
773,739.0831141216506
774,739.0431112289103
775,739.0033628194121
776,738.9638666716335
777,738.9246204918525
778,738.8856219499603
779,738.8468687139779
780,738.808358483152
781,738.7700890195447
782,738.7320581780684
783,738.6942639349618
784,738.6567044147266
785,738.619377915551
786,738.582282933242
787,738.5454181837131
788,738.5087826240949
789,738.4723754725595
790,738.4361962269559
791,738.4002446823662
792,738.3645209477083
793,738.3290254615141
794,738.2937590069927
795,738.2587227264535
796,738.2239181351309
797,738.189347134455
798,738.1550120248286
799,738.1209155179956
800,738.0870607491076
801,738.0534512886053
802,738.0200911540361
803,737.9869848219219
804,737.9541372397609
805,737.9215538382117
806,737.8892405434585
807,737.8572037897109
808,737.8254505317334
809,737.7939882572671
810,737.7628249991847
811,737.7319693472128
812,737.701430459025
813,737.6712180704649
814,737.6413425046284
815,737.6118146795228
816,737.5826461140285
817,737.5538489319126
818,737.5254358636748
819,737.4974202460384
820,737.4698160189183
821,737.44263771972
822,737.4159004748411
823,737.3896199882836
824,737.36381252731
825,737.3384949051147
826,737.3136844605189
827,737.289399034749
828,737.2656569454059
829,737.2424769577859
830,737.2198782537644
831,737.1978803985065
832,737.1765033052919
833,737.1557671987313
834,737.1356925766178
835,737.1163001706135
836,737.0976109059454
837,737.0796458602691
838,737.062426221858
839,737.045973247272
840,737.0303082186425
841,737.0154524006917
842,737.001426997584
843,736.9882531097078
844,736.9759516904899
845,736.9645435033399
846,736.9540490788198
847,736.9444886721217
848,736.9358822209184
849,736.9282493036158
850,736.9216090979896
851,736.9159803401709
852,736.9113812839508
853,736.907829660418
854,736.9053426379633
855,736.90393678271
856,736.9036280194249
857,736.9044315929634
858,736.9063620302898
859,736.9094331030911
860,736.9136577909966
861,736.9190482454136
862,736.9256157540336
863,736.9333707061013
864,736.9423225585913
865,736.9524798034861
866,736.9638499363946
867,736.9764394267984
868,736.990253690246
869,737.0052970628251
870,737.0215727782276
871,737.0390829476964
872,737.0578285430934
873,737.0778093832748
874,737.09902412391
875,737.1214702508398
876,737.1451440770658
877,737.1700407434586
878,737.1961542232812
879,737.2234773306247
880,737.2520017328544
881,737.2817179671536
882,737.3126154612276
883,737.3446825581765
884,737.3779065454864
885,737.4122736880462
886,737.4477692650715
887,737.4843776108103
888,737.5220821589012
889,737.5608654902579
890,737.6007093843422
891,737.641594873674
892,737.6835023013923
893,737.7264113816481
894,737.7703012625815
895,737.8151505916145
896,737.8609375827622
897,737.9076400856247
898,737.9552356556569
899,738.0037016252451
900,738.0530151750677
901,738.1031534051888
902,738.1540934053327
903,738.2058123238112
904,738.2582874346141
905,738.3114962022179
906,738.3654163437202
907,738.4200258879699
908,738.4753032314356
909,738.5312271906145
910,738.587777050821
911,738.6449326112186
912,738.7026742259706
913,738.7609828414103
914,738.8198400291211
915,738.8792280148089
916,738.9391297028327
