frame_number,force
0,732.5094600000251
1,731.9899473147826
2,731.4937331714995
3,731.0419636331835
4,730.6518377783999
5,730.3354134727142
6,730.0990913816306
7,729.9437191729272
8,729.8651882386853
9,729.8553796251268
10,729.9033155840245
11,729.9963671270409
12,730.121370142736
13,730.2655361108472
14,730.4171068408839
15,730.5657664382852
16,730.7028591266157
17,730.8214687890603
18,730.9164153511234
19,730.9842230955113
20,731.0231072309148
21,731.0330002111396
22,731.0156031561688
23,730.9744140107485
24,730.9146723684105
25,730.8431816732959
26,730.7680059005025
27,730.6980583885642
28,730.6425963076803
29,730.6106288154549
30,730.6102630608062
31,730.6480419905422
32,730.7283463532452
33,730.852931826951
34,731.0206629645613
35,731.2274955140809
36,731.4667387384343
37,731.7295928246965
38,732.0059118472224
39,732.2851068472872
40,732.5570865585612
41,732.8131288451918
42,733.0465714461213
43,733.2532145997428
44,733.4313702120398
45,733.5815791546745
46,733.7061099769954
47,733.8083980043324
48,733.8925651808208
49,733.9630987044108
50,734.0246997897832
51,734.0822710517766
52,734.1409926795458
53,734.2064286454357
54,734.2845948206593
55,734.3819151653995
56,734.5050020303644
57,734.660228382281
58,734.8531096706216
59,735.0875725364917
60,735.3652412305714
61,735.6848947338586
62,736.0422189625342
63,736.4299104945355
64,736.8381180879838
65,737.2551648779495
66,737.6684752006371
67,738.0656135133074
68,738.4353200041561
69,738.7684183942206
70,739.0584964730244
71,739.302304232751
72,739.4998481324596
73,739.654179983749
74,739.7709003459462
75,739.8574214063834
76,739.9220571875286
77,739.9730313995927
78,740.0175164857417
79,740.0608298983826
80,740.1058974460268
81,740.1530415871057
82,740.2000844723627
83,740.2427097262099
84,740.2750201642999
85,740.2902341839255
86,740.2814511808226
87,740.2423976182527
88,740.1680727271834
89,740.0552483916927
90,739.9028106789143
91,739.7119370213475
92,739.4860908327099
93,739.2308106860639
94,738.9532918216364
95,738.6617981943859
96,738.3649826460547
97,738.0712091768518
98,737.787953683325
99,737.5213216641803
100,737.2756972809597
101,737.0535448896588
102,736.855398383078
103,736.6800622674367
104,736.5250090425984
105,736.3869140590251
106,736.262242251158
107,736.1477971142094
108,736.0411580210375
109,735.9409599893252
110,735.84700103039
111,735.7601876228048
112,735.6823430651361
113,735.6159082435252
114,735.5635679448758
115,735.5278427292653
116,735.5106929910318
117,735.5131857093631
118,735.5352757469644
119,735.5757433733359
120,735.6322967467752
121,735.7018044525698
122,735.7805965362819
123,735.8647711266537
124,735.9504556818099
125,736.0339911861433
126,736.1120368417565
127,736.1816253543263
128,736.2402155115518
129,736.2857735315891
130,736.3168755744834
131,736.3327936452512
132,736.333531949003
133,736.3198087427324
134,736.292995078395
135,736.255011348254
136,736.2081629147385
137,736.1548926617616
138,736.097447403242
139,736.0374862976898
140,735.9756948724647
141,735.911501014649
142,735.8429970513024
143,735.7671331478118
144,735.6801754887167
145,735.5783596678061
146,735.4586410373335
147,735.3194406277065
148,735.1612864239785
149,734.9872506342167
150,734.8031000451896
151,734.6171189059056
152,734.4396158103167
153,734.2821639766742
154,734.1566461468306
155,734.074194999298
156,734.044142914544
157,734.0731124770324
158,734.1643764396163
159,734.3175810995374
160,734.5288622467779
161,734.7913053795052
162,735.0956359585887
163,735.4309976920545
164,735.785701810476
165,736.1478888824336
166,736.506094638777
167,736.8497268167239
168,737.1694505531673
169,737.4574697198537
170,737.7076923929143
171,737.9157774142532
172,738.0790752639753
173,738.1964997463303
174,738.2683801825244
175,738.2963292291702
176,738.2831321476583
177,738.2326472931434
178,738.149708019464
179,738.0400165863622
180,737.9100152710827
181,737.766716279058
182,737.6174773211216
183,737.4697246974131
184,737.330641294188
185,737.2068395310057
186,737.1040297554089
187,737.0266933511143
188,736.9777951465451
189,736.958610206984
190,736.9687555063011
191,737.0064766599965
192,737.0691579387365
193,737.1539451579941
194,737.2583317652666
195,737.3805688815597
196,737.5198107619851
197,737.6759781187543
198,737.8493931265458
199,738.0402938665854
200,738.2483526749028
201,738.4722968831171
202,738.7096863300538
203,738.9568687116318
204,739.209113993063
205,739.4609108915857
206,739.706387854849
207,739.9398018208782
208,740.1560266373887
209,740.3509751859817
210,740.5219048815732
211,740.6675800922452
212,740.7882918641686
213,740.8857577809828
214,740.962932820427
215,741.0237533480034
216,741.0728242719684
217,741.1150624806612
218,741.1553312140762
219,741.198122115587
220,741.2473415787572
221,741.3062279479547
222,741.37738133692
223,741.4628553708399
224,741.5642547556345
225,741.6827961212367
226,741.8193068039333
227,741.9741503063366
228,742.1470779627883
229,742.337015938299
230,742.541811021592
231,742.7579822955371
232,742.9805496869127
233,743.2030171394468
234,743.4175716944602
235,743.6155255882567
236,743.7879809826611
237,743.9266462602811
238,744.0246977044907
239,744.0775662653577
240,744.0835253008837
241,744.0439626861108
242,743.9632573073703
243,743.8482542760116
244,743.7074274255631
245,743.5498925315237
246,743.3844527216346
247,743.2188143266633
248,743.0590408264594
249,742.9092540069907
250,742.7715596533883
251,742.6461627117576
252,742.5316317010638
253,742.425267154482
254,742.3235255271633
255,742.2224542304755
256,742.1181066572509
257,742.0069252552661
258,741.8860990343808
259,741.7539031252501
260,741.6099999660904
261,741.4556405821126
262,741.2936852289205
263,741.1283862881018
264,740.9649372882403
265,740.8088627427959
266,740.6653644551897
267,740.538729872037
268,740.4318690386607
269,740.3460171884543
270,740.2806299346109
271,740.2334898817314
272,740.201025745055
273,740.1788229845852
274,740.1622816481276
275,740.147347135721
276,740.1312096269236
277,740.1128604107749
278,740.0934146912382
279,740.0761405049055
280,740.0661606167879
281,740.0698308747874
282,740.0938494216791
283,740.144199944954
284,740.2250659568291
285,740.3378710929101
286,740.4805958339016
287,740.6474867125643
288,740.8292247261965
289,741.0135763882175
290,741.1865052459995
291,741.3336508623587
292,741.4419973145917
293,741.5014962342643
294,741.5064019492762
295,741.4561044422985
296,741.3552955692637
297,741.2133824177723
298,741.0431775088674
299,740.8590367086583
300,740.6747485854655
301,740.501555650953
302,740.346664576556
303,740.212475168
304,740.0965785564366
305,739.992418455634
306,739.890424202751
307,739.7794107411914
308,739.6480628533541
309,739.4863420484384
310,739.2866664614457
311,739.0447377642824
312,738.7599445313263
313,738.4353470406272
314,738.0773090281967
315,737.694868468798
316,737.2989411929602
317,736.9014412122551
318,736.514384196289
319,736.1490180142293
320,735.8150034474127
321,735.5196623523325
322,735.2673302940561
323,735.0588851251857
324,734.8915409250562
325,734.7589757715527
326,734.6518104422333
327,734.5583993710097
328,734.4658524032503
329,734.3611805497618
330,734.2324506453355
331,734.0698369395298
332,733.8664652218787
333,733.6189606829778
334,733.3276451112372
335,732.9963819937593
336,732.6321211842853
337,732.2442225775957
338,731.8436292143995
339,731.4419359551823
340,731.0504023350804
341,730.6790003574565
342,730.3356295784472
343,730.0256224927676
344,729.7515960921652
345,729.5136182418905
346,729.3095949693131
347,729.1357678688631
348,728.9872321069739
349,728.8584241170622
350,728.7435649481375
351,728.6370653811564
352,728.533893721841
353,728.4298853238868
354,728.3219583054529
355,728.2082090558238
356,728.0878894285477
357,727.9612978922573
358,727.829632721018
359,727.694849341924
360,727.5595427612578
361,727.4268527794569
362,727.3003722788791
363,727.1840315043662
364,727.0819421296732
365,726.9982116062024
366,726.936755055698
367,726.9011196072847
368,726.8943126670549
369,726.9186213515837
370,726.9754269835962
371,727.0650344209499
372,727.1865379619956
373,727.3377395622238
374,727.5151320943639
375,727.7139636566584
376,727.9284017451125
377,728.1518088045156
378,728.3771209352225
379,728.597295764684
380,728.8057759356357
381,728.9969150622225
382,729.1663312577069
383,729.311164967655
384,729.4302083963714
385,729.5238646809865
386,729.5939153015617
387,729.6431223275063
388,729.6747434889757
389,729.6920730801752
390,729.6981240776597
391,729.6955194046274
392,729.6865731348141
393,729.6734666969467
394,729.6584091740951
395,729.643711883992
396,729.6317611582836
397,729.6249017881352
398,729.6252465702568
399,729.6344289429812
400,729.6533284746318
401,729.6818123061142
402,729.7185393951654
403,729.7608719033622
404,729.80493088546
405,729.8458155265082
406,729.8779759404086
407,729.8956995345089
408,729.8936542303159
409,729.8674326306893
410,729.8140456174542
411,729.7323049544251
412,729.6230182208648
413,729.4889230295187
414,729.3343285770102
415,729.1644975796105
416,728.9848611503963
417,728.8001966240848
418,728.6139118096655
419,728.4275675666975
420,728.2407342031299
421,728.051219413461
422,727.8556301511986
423,727.6501541394215
424,727.4314032830413
425,727.1971742800118
426,726.9470348977658
427,726.6826993069623
428,726.4081866290484
429,726.1297635000759
430,725.8556736375281
431,725.595672172273
432,725.3604057944272
433,725.1606972124438
434,725.0067975976555
435,724.9076665404577
436,724.8703351017741
437,724.8994114669181
438,724.9967908925482
439,725.1616114452736
440,725.3904524209228
441,725.677730175457
442,726.0162323374313
443,726.3977370807902
444,726.8136597549783
445,727.2556530687032
446,727.7160884229245
447,728.188374795878
448,728.6671042557917
449,729.1480306753575
450,729.6278945140505
451,730.1041157548124
452,730.5744021264112
453,731.036359410256
454,731.4872200438002
455,731.9237960217423
456,732.3427089430526
457,732.7408766789795
458,733.1161668387648
459,733.4680758533021
460,733.7982686332514
461,734.1108270783443
462,734.4121095926838
463,734.7102051588186
464,735.0140476021248
465,735.3323175661519
466,735.6722982874985
467,736.0388673182426
468,736.4337925790284
469,736.8554530475009
470,737.2990295089008
471,737.7571232942335
472,738.2206798362935
473,738.6800415617452
474,739.1259454739002
475,739.5503143441579
476,739.946755386724
477,740.3107579614872
478,740.6396487869821
479,740.9323995300041
480,741.1893826439986
481,741.4121474790784
482,741.6032526638334
483,741.7661514735138
484,741.905095361184
485,742.0250067421778
486,742.1312768530364
487,742.2294673790005
488,742.3249324854988
489,742.4224127536356
490,742.5256612054526
491,742.6371450832136
492,742.7578500642423
493,742.8872110586684
494,743.0231930011328
495,743.162527971206
496,743.3010847219762
497,743.43432346607
498,743.5577864433384
499,743.6675867240331
500,743.7608640411717
501,743.8361667025321
502,743.8937043373568
503,743.9354189591944
504,743.964851431402
505,743.9868243315348
506,744.0069964930525
507,744.0313555245699
508,744.0657048014591
509,744.1151814808369
510,744.1838276509459
511,744.2742397836653
512,744.3873358339853
513,744.5222853277501
514,744.6766343802748
515,744.8466276504951
516,745.0276919192727
517,745.2150136813655
518,745.4041286412872
519,745.5914471664985
520,745.7746573238584
521,745.9529669466299
522,746.1271633108515
523,746.299478919505
524,746.473260134694
525,746.652458751324
526,746.8410053272033
527,747.0421522888956
528,747.2578804197515
529,747.4884569583422
530,747.732223217078
531,747.9856593279717
532,748.2437176681071
533,748.5003542034893
534,748.7491466200171
535,748.983889491574
536,749.199098365818
537,749.3904055345281
538,749.5548501038621
539,749.6910475031839
540,749.7992072290203
541,749.8809878402147
542,749.9392215765951
543,749.9775632558436
544,750.0001008913619
545,750.0109389094204
546,750.0137680343719
547,750.0114670205818
548,750.0058038867711
549,749.9972933888616
550,749.9852298294428
551,749.9678715682057
552,749.942727274837
553,749.9068940516186
554,749.8574106539775
555,749.7915945573552
556,749.707331626541
557,749.6032958283992
558,749.4790894934466
559,749.3352984986025
560,749.1734561144426
561,748.9959187930425
562,748.8056745152785
563,748.6061112296957
564,748.4007599843236
565,748.1930073281947
566,747.9857677607873
567,747.7811304818251
568,747.5800330687416
569,747.3820413531807
570,747.1853082786025
571,746.9867450269262
572,746.7823847681594
573,746.5678733317574
574,746.3389937223268
575,746.0921283907186
576,745.8245820761344
577,745.534721311226
578,745.2219292092383
579,744.8864163017032
580,744.5289520252953
581,744.1505797195321
582,743.75236431456
583,743.3352112729809
584,742.8997893743249
585,742.4465844346313
586,741.9760988241578
587,741.489180077343
588,740.9874117089224
589,740.4734600355802
590,739.951274268899
591,739.4260807602006
592,738.904164308631
593,738.3924654446341
594,737.8980420503821
595,737.4274550156995
596,736.9861440899369
597,736.5778629535714
598,736.2042438947558
599,735.8645591148829
600,735.5557286422022
601,735.2725897667704
602,735.0083988926315
603,734.7555013189898
604,734.5060875141925
605,734.2529521476475
606,733.9901808463162
607,733.7137101546092
608,733.4217292702392
609,733.1149020399624
610,732.7963846597423
611,732.4716125522716
612,732.1478380415153
613,731.8334263330676
614,731.5369680546805
615,731.2663245678725
616,731.0277501464967
617,730.8252209040198
618,730.6600647827489
619,730.530945125206
620,730.4341989242102
621,730.3644692248214
622,730.3155129848749
623,730.2810312605772
624,730.25537163022
625,730.2339913848625
626,730.2136303586269
627,730.1922084310218
628,730.1685190131504
629,730.1418219826554
630,730.1114416050312
631,730.0764521544011
632,730.0354992182372
633,729.9867724880714
634,729.9281222479588
635,729.8572946097366
636,729.7722512324336
637,729.6715380127606
638,729.5546607927944
639,729.4224069422888
640,729.2770392967589
641,729.1223062293235
642,728.9632557111366
643,728.805893060151
644,728.656761035478
645,728.5225254956227
646,728.4096128986866
647,728.3238938261765
648,728.2703814105216
649,728.2529284461785
650,728.273934703851
651,728.3340867997724
652,728.4321478968462
653,728.5648124331296
654,728.7266520210577
655,728.9101949178918
656,729.1061846278619
657,729.3040448880852
658,729.4925519378678
659,729.6606933910542
660,729.7986645913829
661,729.8989002019365
662,729.9569772609635
663,729.9722067849397
664,729.9477836325834
665,729.8904609230905
666,729.8098076708332
667,729.7171724872894
668,729.6245083367951
669,729.5432144281274
670,729.4831286847136
671,729.4517689988932
672,729.4538793131519
673,729.4912895556646
674,729.563053964373
675,729.6658017013041
676,729.7942234080466
677,729.9416250892904
678,730.1004968615267
679,730.2630578766885
680,730.4217452872053
681,730.5696162755959
682,730.7006319329827
683,730.8097958843696
684,730.8931368938848
685,730.9475567835367
686,730.970607194184
687,730.9602971254558
688,730.9150435493225
689,730.8338332536938
690,730.7165707770765
691,730.5644992606389
692,730.3805565249723
693,730.1695697233548
694,729.938251091593
695,729.6949955340156
696,729.4494960275428
697,729.2122021300056
698,728.9936619387923
699,728.8038061297989
700,728.6512460763759
701,728.5426665895984
702,728.4823993832301
703,728.4722530810002
704,728.511633840155
705,728.5979260363388
706,728.7270440684938
707,728.8940384834752
708,729.0936470589847
709,729.3207083816416
710,729.5703819933649
711,729.8381470888564
712,730.1195983310694
713,730.4101201457455
714,730.7045671996398
715,730.9970773184343
716,731.2810955946547
717,731.5496250059806
718,731.7956676500952
719,732.0127877397778
720,732.1957064156134
721,732.3408310464011
722,732.446635211663
723,732.5138353595066
724,732.5453436087187
725,732.5460080069345
726,732.5221819528931
727,732.4811895185685
728,732.4307658889663
729,732.3785476859344
730,732.331665769041
731,732.2964577625099
732,732.2782844623831
733,732.2814196079148
734,732.3089827169393
735,732.3628844730332
736,732.4437539875686
737,732.5508311277583
738,732.6818361388358
739,732.8328579521395
740,732.9983196307651
741,733.1710811190029
742,733.342726326962
743,733.5040577001175
744,733.6457901417308
745,733.7593953351416
746,733.8380005786152
747,733.8772091048261
748,733.8756972693669
749,733.8354666675191
750,733.7616903727882
751,733.6621801445202
752,733.5465801563676
753,733.425429393951
754,733.3092256468882
755,733.2075887549456
756,733.1285839429959
757,733.0782407758147
758,733.0602816869721
759,733.0760461346664
760,733.1245730592724
761,733.2028001080945
762,733.30584924972
763,733.4273848564295
764,733.5600459884993
765,733.6959596244709
766,733.8273263486108
767,733.9470374381971
768,734.0492479594819
769,734.1298155287254
770,734.1865347615866
771,734.2191475968276
772,734.2291610423551
773,734.2195302071598
774,734.1942626016041
775,734.1579807396146
776,734.11545703706
777,734.071124801723
778,734.0285849911146
779,733.9901600858868
780,733.9565647741488
781,733.9267521959888
782,733.8979659001045
783,733.8660006216498
784,733.8256545567652
785,733.7713324862
786,733.6977231543208
787,733.6004351832759
788,733.4764670776234
789,733.3244359293832
790,733.1445771513363
791,732.9385945929606
792,732.7094461131263
793,732.4611137054762
794,732.1983755170015
795,731.9265808812526
796,731.6514086755616
797,731.3785661103587
798,731.1133922128619
799,730.860380500599
800,730.6226968249504
801,730.4017991717637
802,730.19725309031
803,730.0067973204293
804,729.8266750397464
805,729.6522178075771
806,729.478642629498
807,729.3019831727826
808,729.1200239800821
809,728.9330629024572
810,728.7443236330708
811,728.5598978796719
812,728.3882019952612
813,728.2390375019042
814,728.1224065680592
815,728.0472535485901
816,728.0203069764407
817,728.0451870737253
818,728.1219051465299
819,728.2468110458342
820,728.4129679157261
821,728.6108756063556
822,728.8294322159654
823,729.0570114656068
824,729.2825349498306
825,729.496428224996
826,729.6913678049099
827,729.8627527639147
828,730.0088645991194
829,730.1307060671149
830,730.2315363895854
831,730.3161543807738
832,730.3900238270155
833,730.4583738145317
834,730.5254176242444
835,730.5938061635958
836,730.6643842479517
837,730.7362766362958
838,730.8072925224786
839,730.8745804020344
840,730.9353963921313
841,730.9878103983758
842,731.0311989609897
843,731.0664495676045
844,731.0958821792758
845,731.1229401344667
846,731.1517161541186
847,731.18638720659
848,731.2306447629626
849,731.2872095420281
850,731.3574987674007
851,731.4414765672672
852,731.5376871153653
853,731.6434598599457
854,731.7552757773236
855,731.8692709286041
856,731.981824428362
857,732.0901523654283
858,732.1928289392783
859,732.2901777164177
860,732.3844925985026
861,732.4800422782076
862,732.5828015422891
863,732.6998751010309
864,732.8386476009258
865,733.0057772249057
866,733.2062054869283
867,733.4423600476423
868,733.713689027928
869,734.0166065101536
870,734.3448616670643
871,734.6902691402402
872,735.043668338235
873,735.3959413339193
874,735.738928394651
875,736.066125693536
876,736.3731061092991
877,736.6576519389984
878,736.9196240871264
879,737.1606164804379
880,737.383450978924
881,737.5915602216251
882,737.7883062752894
883,737.9763044032404
884,738.1568450479748
885,738.3295061915211
886,738.4920172211806
887,738.6403909825848
888,738.7693027336193
889,738.872671384995
890,738.9443841252537
891,738.9790885178433
892,738.9729538397871
893,738.9242918610937
894,738.8339443375874
895,738.7053864157969
896,738.5445420343118
897,738.359345565252
898,738.1591113566553
899,737.9537891760498
900,737.7531874644998
901,737.5662407866463
902,737.4003871311807
903,737.2611050904528
904,737.1516417688628
905,737.0729414685121
906,737.0237603057299
907,737.0009272277647
908,736.9997043519865
909,737.0142164203095
910,737.0379430195958
911,737.064272966274
912,737.0870985109225
913,737.1013919122512
914,737.1036857231984
915,737.0923877364116
916,737.0678929430102
917,737.0324847523638
