acceleration,velocity,displacement
-0.012261315167721195,0.0,0.0
-0.012683546568913365,-6.2362154341586395e-06,-1.55905385853966e-09
-0.013138428596527647,-1.2691709225518892e-05,-6.2910350234590435e-09
-0.013625206373124114,-1.9382617967931833e-05,-1.4309616821821725e-08
-0.014142953910747153,-2.632465803889965e-05,-2.57364358235296e-08
-0.014690575778816965,-3.353304046129068e-05,-4.0700860448577184e-08
-0.015266810139362968,-4.102238694083566e-05,-5.9339717299108774e-08
-0.015870233105065773,-4.880664775194285e-05,-8.17969759723034e-08
-0.016499264340677913,-5.6899022113378774e-05,-1.0822339343863381e-07
-0.017152173805091927,-6.531188164982124e-05,-1.3877611937943381e-07
-0.01782708952475431,-7.40566974822828e-05,-1.7361826416245983e-07
-0.018522006297331403,-8.314397143780422e-05,-2.1291843139248159e-07
-0.019234795239967673,-9.258317182212898e-05,-2.568502172074649e-07
-0.019963214111337453,-0.00010238267415995527,-3.0559167870298597e-07
-0.020704918346290273,-0.0001125497072743622,-3.5932477406156534e-07
-0.021457472742420044,-0.00012309030504653977,-4.1823477714179085e-07
-0.02221836372807947,-0.00013400926416416465,-4.82509669444467e-07
-0.022985012122858008,-0.000145310108126899,-5.523395125172329e-07
-0.02375478627947407,-0.00015699505772748203,-6.279158039808282e-07
-0.024525015479607976,-0.00016906500816725253,-7.094308204545118e-07
-0.025293003456891713,-0.00018151951290137745,-7.970769507216693e-07
-0.026056041940949435,-0.00019435677425083773,-8.910460225097231e-07
-0.026811424146610828,-0.0002075736407727278,-9.915286262656145e-07
-0.027556458158853187,-0.0002211656113490938,-1.0987134392960699e-06
-0.02828848018200833,-0.00023512684593430917,-1.2127865536169207e-06
-0.02900486763450678,-0.000249450182888438,-1.3339308108226075e-06
-0.029703052079914995,-0.00026412716281704344,-1.462325147248978e-06
-0.03038053198556954,-0.0002791480588334146,-1.5981439526615924e-06
-0.031034885283302675,-0.00029450191315063266,-1.7415564456576043e-06
-0.0316637816742784,-0.00031017657989002793,-1.8927260689177693e-06
-0.03226499458547233,-0.0003261587739549656,-2.0518099073790176e-06
-0.03283641266184439,-0.0003424341257667948,-2.2189581323094576e-06
-0.033376050669061345,-0.0003589872415995212,-2.3943134741510366e-06
-0.03388205968181277,-0.00037580176918723977,-2.578010726847727e-06
-0.03435273643461306,-0.0003928604682163462,-2.7701762861986236e-06
-0.034786531712329656,-0.0004101452852530819,-2.9709277245659806e-06
-0.035182057660674004,-0.0004276374325963328,-3.1803734040283343e-06
-0.03553809390786581,-0.00044531747048846777,-3.3986121297995345e-06
-0.035853592405575785,-0.0004631653920668282,-3.6257328454383585e-06
-0.03612768091482331,-0.000481160710396928,-3.861814371054298e-06
-0.03635966508309462,-0.0004992825468964075,-4.106925185377632e-06
-0.03654902909218647,-0.0005175097204402277,-4.36112325221179e-06
-0.036695434903424126,-0.0005358208364391304,-4.62445589143163e-06
-0.03679872017519454,-0.0005541943752087851,-4.896959694343609e-06
-0.03685889496218823,-0.0005726087789931308,-5.178660482894088e-06
-0.03687613732206461,-0.000591042537064194,-5.469573311908419e-06
-0.03685078795995457,-0.0006094742683846987,-5.7697025132706415e-06
-0.03678334403931759,-0.0006278828013845168,-6.079041780712945e-06
-0.036674452276307834,-0.0006462472504634231,-6.3975742936749304e-06
-0.03652490141098247,-0.0006645470888852457,-6.725272878512097e-06
-0.03633561412103053,-0.0006827622177682489,-7.062100205175471e-06
-0.036107638428779974,-0.0007008730309057016,-7.408009017343958e-06
-0.03584213865725466,-0.0007188604751772103,-7.762942393864686e-06
-0.03554038601070133,-0.0007367061063441992,-8.126834039245038e-06
-0.03520374888191455,-0.0007543921400673532,-8.499608600847926e-06
-0.0348336830175532,-0.0007719014980422202,-8.88118201037532e-06
-0.0344317216944347,-0.0007892178492202172,-9.27146184719093e-06
-0.03399946606417736,-0.0008063256461598702,-9.670347721035952e-06
-0.033538575805557566,-0.0008232101566273039,-1.0077731671732746e-05
-0.03305076018552021,-0.0008398574906250734,-1.049349858354584e-05
-0.03253776957791362,-0.0008562546230659318,-1.0917526611968592e-05
-0.03200138744011009,-0.0008723894123204378,-1.1349687620815184e-05
-0.03144342272057886,-0.0008882506148606101,-1.1789847627610447e-05
-0.03086570266873766,-0.0009038278962079392,-1.2237867255377584e-05
-0.03027006602971975,-0.0009191118383825535,-1.2693602189025208e-05
-0.029658356620347,-0.0009340939440450702,-1.3156903634632113e-05
-0.02903241729463431,-0.0009487666375238155,-1.3627618780024334e-05
-0.02839408431158163,-0.0009631232629253695,-1.410559125513663e-05
-0.027745182109337466,-0.0009771580795305992,-1.4590661590750623e-05
-0.027087518472738718,-0.0009908662546761183,-1.5082667674302303e-05
-0.026422880065353833,-0.0010042438543106415,-1.5581445201548992e-05
-0.02575302828687909,-0.0010172878313986996,-1.6086828122976326e-05
-0.025079695411273088,-0.0010299960123232377,-1.659864908390681e-05
-0.024404580959346434,-0.0010423670814158927,-1.7116739857341594e-05
-0.02372934826250549,-0.0010544005637213557,-1.7640931768625907e-05
-0.02305562118362585,-0.0010660968060828885,-1.817105611107697e-05
-0.02238498097485162,-0.0010774569566225078,-1.8706944551753317e-05
-0.021718963263092507,-0.0010884829426819939,-1.9248429526579444e-05
-0.02105905515741589,-0.001099177447287121,-1.9795344624071724e-05
-0.02040669247439475,-0.0011095438841950737,-2.0347524956942272e-05
-0.01976325708580295,-0.001119586371585123,-2.090480752088732e-05
-0.019130074404379905,-0.0011293097044576686,-2.146703153989802e-05
-0.018508411027568138,-0.0011387193258156555,-2.203403879746635e-05
-0.01789947255246153,-0.001147821296710663,-2.260567395309793e-05
-0.017304401561602307,-0.001156622265239179,-2.3181784843585393e-05
-0.016724275765001264,-0.00116512943457083,-2.3762222768537894e-05
-0.016160106274395594,-0.0011733505300806793,-2.434684275970077e-05
-0.0156128359830844,-0.0011812937656450492,-2.4935503833632202e-05
-0.015083338025854407,-0.0011889678091472839,-2.5528069227330286e-05
-0.014572414298269023,-0.0011963817472283146,-2.6124406616424185e-05
-0.014080794026800215,-0.001203545049309582,-2.672438831555866e-05
-0.013609132400947379,-0.0012104675309165189,-2.7327891460615187e-05
-0.013158009297406664,-0.0012171593163411074,-2.7934798172429593e-05
-0.012727928135737874,-0.0012236308006993936,-2.854499570168972e-05
-0.012319314903570095,-0.0012298926114592205,-2.915837655472937e-05
-0.011932517383437886,-0.0012359555695309725,-2.977483859997692e-05
-0.011567804609531003,-0.0012418306500292147,-3.0394285154866964e-05
-0.011225366581830076,-0.0012475289428270548,-3.101662505308103e-05
-0.010905314261660864,-0.0012530616130379275,-3.164177269204728e-05
-0.010607679860810118,-0.0012584398615685453,-3.2269648060698894e-05
-0.010332417420099277,-0.0012636748858887727,-3.290017674756322e-05
-0.01007940366281039,-0.0012687778411595001,-3.353328992932529e-05
-0.009848439105736824,-0.001273759801851637,-3.416892434007807e-05
-0.009639249405991913,-0.0012786317239795691,-3.480702222153588e-05
-0.009451486908268433,-0.0012834044080581343,-3.544753125454531e-05
-0.009284732343168112,-0.0012880884628709934,-3.6090404472277586e-05
-0.0091384966272891,-0.0012926942701136077,-3.6735600155523734e-05
-0.009012222735518239,-0.0012972319499543095,-3.7383081710540716e-05
-0.008905287648093846,-0.0013017113275502125,-3.803281752991685e-05
-0.008817004408489863,-0.0013061419005643584,-3.8684780836945494e-05
-0.008746624353442499,-0.0013105328077548414,-3.9338949514025296e-05
-0.008693339583037607,-0.0013148927987389615,-3.999530591564875e-05
-0.008656285719615402,-0.0013192302050646248,-4.065383666659965e-05
-0.008634544965976218,-0.0013235529127360228,-4.1314532446049806e-05
-0.008627149435914371,-0.0013278683363364954,-4.1977387758317935e-05
-0.008633084711377848,-0.0013321833948733185,-4.264240069112039e-05
-0.008651293583969594,-0.0013365044894471554,-4.3309572662200505e-05
-0.008680679955429565,-0.0013408374828320052,-4.3978908155270296e-05
-0.008720112893795411,-0.0013451876810443115,-4.465041444623937e-05
-0.008768430864423374,-0.0013495598169838662,-4.532410132074642e-05
-0.008824446171198295,-0.0013539580362427715,-4.599998078405308e-05
-0.008886949643728406,-0.0013583858851965033,-4.6678066764412896e-05
-0.008954715590450208,-0.001362846301505048,-4.7358374811088284e-05
-0.009026507015260445,-0.0013673416071564757,-4.8040921788253665e-05
-0.009101081074125597,-0.0013718735041788222,-4.872572556608749e-05
-0.009177194727008873,-0.0013764430731291058,-4.941280471041447e-05
-0.009253610519233842,-0.0013810507744406665,-5.010217817230691e-05
-0.009329102409626915,-0.0013856964526728817,-5.079386497908529e-05
-0.009402461553352028,-0.0013903793436636264,-5.148788392816942e-05
-0.0094725019431856,-0.0013950980845377607,-5.2184253285219764e-05
-0.009538065811544974,-0.0013998507264764432,-5.288299048797332e-05
-0.009598028699965932,-0.001404634750104321,-5.3584111857118505e-05
-0.00965130411993068,-0.001409447083309295,-5.428763231547191e-05
-0.009696847760719156,-0.0014142841212794576,-5.49935651166191e-05
-0.00973366123878128,-0.0014191417485293328,-5.57019215840713e-05
-0.009760795418000559,-0.0014240153626935283,-5.6412710861877013e-05
-0.009777353354889098,-0.0014288998998867506,-5.7125939677522086e-05
-0.009782492936310238,-0.0014337898614595504,-5.784161211785866e-05
-0.009775429281553588,-0.0014386793420140163,-5.855972941872705e-05
-0.009755436978470243,-0.0014435620585790223,-5.928028976887531e-05
-0.00972185221771976,-0.0014484313808780698,-6.0003288128739585e-05
-0.009674074881401713,-0.0014532803626528502,-6.0728716064622316e-05
-0.009611570631994866,-0.0014581017740311992,-6.145656159879332e-05
-0.009533873031403224,-0.0014628881349470488,-6.218680907603789e-05
-0.009440585695188007,-0.0014676317496286966,-6.291943904718183e-05
-0.009331384456295442,-0.0014723247421665675,-6.365442817013064e-05
-0.009206019484280136,-0.0014769590931517113,-6.439174912896021e-05
-0.009064317284565932,-0.0014815266773439229,-6.513137057158412e-05
-0.008906182486609328,-0.0014860193022867166,-6.587325706649178e-05
-0.008731599320899298,-0.0014904287477385937,-6.66173690789981e-05
-0.008540632686477041,-0.0014947468057404378,-6.736366296736786e-05
-0.008333428720999991,-0.0014989653210923071,-6.811209099907605e-05
-0.008110214798664602,-0.0015030762319722232,-6.886260138734218e-05
-0.007871298897107689,-0.0015070716103961664,-6.961513834793428e-05
-0.007617068293929675,-0.0015109437021939257,-7.03696421760818e-05
-0.007347987574307721,-0.001514684966160985,-7.112604934317054e-05
-0.007064595948917051,-0.0015182881120417912,-7.188429261272124e-05
-0.006767503890415048,-0.0015217461370016243,-7.26443011749821e-05
-0.006457389091945908,-0.0015250523602472145,-7.34060007992943e-05
-0.006134991738933595,-0.0015282004554549344,-7.416931400321984e-05
-0.005801109085803624,-0.0015311844806611186,-7.493416023724886e-05
-0.005456589352271819,-0.0015339989052706375,-7.57004560837318e-05
-0.005102324988638759,-0.001536638633855865,-7.646811546851343e-05
-0.004739245391535386,-0.0015390990264509087,-7.723704988359012e-05
-0.0043683091768880284,-0.0015413759150930146,-7.80071686189761e-05
-0.003990496133648002,-0.0015434656164206486,-7.877837900185451e-05
-0.003606798985552954,-0.0015453649402004488,-7.955058664100979e-05
-0.003218215079867374,-0.0015470711937168038,-8.03236956744891e-05
-0.0028257381090128785,-0.0015485821820140238,-8.10976090184218e-05
-0.002430349959156223,-0.0015498962040310662,-8.187222861493307e-05
-0.002033012769431533,-0.0015510120447132132,-8.264745567711915e-05
-0.0016346612756082868,-0.0015519289632244732,-8.342319092910357e-05
-0.0012361955002734787,-0.0015526466774184436,-8.41993348392643e-05
-0.0008384738337483023,-0.001553165344751949,-8.497578784480691e-05
-0.0004423065271501796,-0.0015534855398421736,-8.575245056595544e-05
-4.844960025636307e-05,-0.0015536082288740254,-8.652922400813448e-05
0.0003424008414835085,-0.0015535347410637185,-8.730600975061891e-05
0.000729613886751549,-0.0015532667373816598,-8.808271012023025e-05
0.0011126286962381917,-0.0015528061767359125,-8.885922834875964e-05
0.0014909589691170801,-0.0015521552798195737,-8.963546871289851e-05
0.0018641969726579748,-0.00155131649083413,-9.041133665556193e-05
0.002232017092973879,-0.001550292437317722,-9.11867388875999e-05
0.0025941788519793364,-0.0015490858883314836,-9.19615834690122e-05
0.0029505293282761683,-0.0015476997112864198,-9.273577986891668e-05
0.003301004918868647,-0.0015461368277246337,-9.350923900366944e-05
0.003645632382415346,-0.0015444001683993127,-9.428187325270043e-05
0.00398452910782259,-0.0015424926280267533,-9.505359645180694e-05
0.004317902551660576,-0.0015404170201118825,-9.58243238638416e-05
0.004646048789893469,-0.001538176032276494,-9.65939721269387e-05
0.004969350138921483,-0.0015357721825442904,-9.736245918064389e-05
0.005288271809967334,-0.0015332077770570682,-9.812970417054423e-05
0.005603357559455311,-0.0015304848697147125,-9.889562733223718e-05
0.005915224293484064,-0.0015276052242514777,-9.966014985572873e-05
0.006224555596018465,-0.001524570279279102,-0.00010042319373161137
0.006532094184636493,-0.0015213811168339384,-0.00010118468158063964
0.006838633340758361,-0.0015180384349525898,-0.00010194453646858627
0.007145007396552459,-0.001514542524768262,-0.00010270268170851648
0.007452081386328612,-0.0015108932525725418,-0.00010345904065285168
0.007760739994019316,-0.0015070900472274548,-0.00010421353647780168
0.008071875955936052,-0.001503131893239966,-0.00010496609196291853
0.008386378106938389,-0.0014990173297242473,-0.00010571662926865959
0.00870511928183526,-0.0014947444553770539,-0.00010646506971493492
0.009028944294247386,-0.0014903109394830332,-0.00010721133356364994
0.009358658206646466,-0.0014857140388578097,-0.00010795533980823516
0.00969501507861241,-0.001480950620536495,-0.00010869700597308373
0.01003870734103476,-0.0014760171899315833,-0.00010943624792570075
0.010390355899076697,-0.0014709099241215554,-0.00011017297970421404
0.01075050102679324,-0.001465624709890088,-0.00011090711336271695
0.011119594092291723,-0.0014601571861103167,-0.00011163855883671705
0.011497990145707218,-0.001454502790050817,-0.00011236722383075733
0.011885941406369505,-0.0014486568071627977,-0.00011309301373006073
0.01228359169444217,-0.0014426144238875948,-0.00011381583153782333
0.012690971861106503,-0.0014363707829987075,-0.0001145355778395449
0.013107996271518364,-0.0014299210409655513,-0.00011525215079553597
0.013534460380300017,-0.0014232604268025967,-0.00011596544616247801
0.013970039416687572,-0.0014163843018533497,-0.000116675357344642
0.014414288176869641,-0.0014092882199549604,-0.00011738177547509407
0.014866641906653445,-0.0014019679874340797,-0.00011808458952694133
0.01532641824274832,-0.0013944197223967293,-0.00011878368645439904
0.015792820165113373,-0.0013866399127947639,-0.00011947895136319692
0.01626493990096971,-0.001378625472778243,-0.00012017026770959017
0.01674176371416035,-0.0013703737968744605,-0.00012085751752700335
0.01722217750717347,-0.001361882811569127,-0.00012154058167911425
0.017704973156428275,-0.0013531510239032265,-0.00012221934013798233
0.018188855500014808,-0.0013441775667391157,-0.0001228936722856429
0.01867244990571918,-0.0013349622403876823,-0.0001235634572374246
0.01915431036586417,-0.0013255055503197865,-0.00012422857418510147
0.01963292809165374,-0.001315808740705407,-0.00012488890275785778
0.020106740608632007,-0.0013058738235303357,-0.00012554432339891673
0.020574141375915865,-0.0012957036030341986,-0.00012619471775555786
0.021033489953022285,-0.0012853016952019641,-0.0001268399690801169
0.02148312271739707,-0.0012746725420343594,-0.00012747996263942597
0.02192136410119558,-0.0012638214203297112,-0.00012811458613001697
0.022346538275686022,-0.0012527544447354909,-0.00012874373009628327
0.022756981171413577,-0.001241478564873716,-0.00012936728834868558
0.023151052688141577,-0.0012300015564088273,-0.00012998515837900622
0.0235271489235093,-0.0012183320060059147,-0.0001305972417696099
0.02388371423258167,-0.0012064792902168919,-0.0001312034445936656
0.024219252926637402,-0.001194453548427087,-0.0001318036778033266
0.024532340438644242,-0.0011822656500857665,-0.0001323978576029548
0.02482163382375178,-0.0011699271565201676,-0.00013298590580460628
0.0250858815102442,-0.0011574502776866686,-0.00013356775016315798
0.02532393225647387,-0.001144847824244989,-0.0001341433246886409
0.025534743299128592,-0.0011321331553560882,-0.00013471256993354116
0.025717387694775717,-0.0011193201226076123,-0.00013527543325303208
0.025871060855962507,-0.0011064230104699277,-0.00013583186903630147
0.02599508627023448,-0.0010934564736883785,-0.00013638183890734104
0.026088920376546386,-0.0010804354720266832,-0.0001369253118937698
0.026152156564836933,-0.0010673752027913373,-0.0001374622645624743
0.026184528261211197,-0.0010542910315848252,-0.00013799268112106835
0.026185911063700235,-0.0010411984217535974,-0.00013851655348440296
0.02615632390214251,-0.0010281128630121367,-0.0001390338813055944
0.026095929207192482,-0.001015049799734803,-0.00013954467197128113
0.02600503208324522,-0.0010020245594121934,-0.00014004894056106787
0.02588407848748271,-0.0009890522817695114,-0.00014054670977136328
0.025733652424284402,-0.0009761478490415696,-0.00014103800980406605
0.02555447217226742,-0.0009633258178924316,-0.00014152287822079954
0.025347385570392,-0.0009506003534567668,-0.00014200135976363685
0.025113364403710186,-0.0009379851659632412,-0.00014247350614349184
0.02485349795315125,-0.0009254934503740258,-0.00014293937579757616
0.024568985805261095,-0.0009131378294344228,-0.00014339903361752828
0.024261130044215765,-0.0009009303004720536,-0.0001438525506500049
0.02393132695662595,-0.0008888821862218432,-0.00014430000377167837
0.02358105836728202,-0.0008770040898908661,-0.00014474147534070656
0.023211882698845297,-0.0008653058546243343,-0.00014517705282683535
0.022825425819937177,-0.0008537965274946387,-0.0001456068284223651
0.022423371722299794,-0.0008424843281090794,-0.00014603089863626602
0.022007453055389165,-0.0008313766219146571,-0.00014644936387377195
0.021579441545239823,-0.0008204798982644999,-0.00014686232800381675
0.021141138323486474,-0.0008097997532973183,-0.00014726989791670722
0.020694364184604293,-0.0007993408776702957,-0.00014767218307444913
0.020240949782908295,-0.0007891070491784175,-0.0001480692950561613
0.01978272579034083,-0.0007791011302851052,-0.0001484613471010272
0.019321513063841757,-0.0007693250705715596,-0.00014884845365124136
0.018859112904302255,-0.0007597799140795236,-0.00014923072989740413
0.01839729751363168,-0.0007504658114750401,-0.00014960829132879276
0.01793780076758754,-0.0007413820369047353,-0.0001499812532908877
0.017482309424309467,-0.0007325270093567611,-0.0001503497305524531
0.017032454889035337,-0.0007238983182784249,-0.00015071383688436188
0.01658980565456036,-0.000715492753142526,-0.0001510736846522171
0.016155860527439107,-0.0007073063365970261,-0.00015142938442465199
0.015732042727725083,-0.000699334360783235,-0.00015178104459899705
0.015319694921718034,-0.0006915714263708742,-0.0001521287710457856
0.014920075222101441,-0.0006840114838349194,-0.00015247266677333702
0.01453435416825022,-0.0006766478764873314,-0.0001528128316134176
0.014163612672578785,-0.0006694733847771242,-0.0001531493619287337
0.013808840880335224,-0.0006624802713888956,-0.0001534823503427752
0.013470937845650554,-0.0006556603267073992,-0.00015381188549229926
0.01315071189008551,-0.0006490049142734651,-0.00015413805180254447
0.012848881489138047,-0.0006425050159286592,-0.000154460929285095
0.012566076523777158,-0.0006361512764254305,-0.00015478059335818353
0.012302839732557783,-0.0006299340473613467,-0.00015509711468913022
0.012059628206910214,-0.0006238434303764797,-0.00015541055905856466
0.011836814792819327,-0.0006178693196265473,-0.00015572098724606542
0.011634689296677854,-0.000612001443604173,-0.0001560284549368731
