frame_number,force
0,615.5983001655327
1,615.5717710917115
2,615.5431905577758
3,615.5126059931665
4,615.4800755783098
5,615.445668139822
6,615.4094629598045
7,615.3715495020244
8,615.3320270599743
9,615.2910043332631
10,615.248598939208
11,615.2049368659771
12,615.160151872666
13,615.1143848407571
14,615.0677830808052
15,615.0204995981627
16,614.9726923221727
17,614.9245233044196
18,614.8761578930153
19,614.8277638909304
20,614.7795107063364
21,614.731568501624
22,614.6841073458677
23,614.6372963738409
24,614.5913029535595
25,614.5462918635311
26,614.5024244802888
27,614.4598579767585
28,614.4187445330599
29,614.379230563386
30,614.3414559647696
31,614.3055533950222
32,614.2716475877096
33,614.2398547120126
34,614.2102817852107
35,614.1830261454991
36,614.1581749926663
37,614.1358050034659
38,614.1159820274565
39,614.0987608679814
40,614.0841851516608
41,614.0722872876884
42,614.0630885152541
43,614.0565990343872
44,614.052818213345
45,614.0517348646487
46,614.0533275815732
47,614.0575651270146
48,614.0644068673761
49,614.0738032456062
50,614.0856962892651
51,614.1000201504277
52,614.1167016739203
53,614.1356609891525
54,614.1568121191142
55,614.1800635982951
56,614.2053190899145
57,614.2324779925739
58,614.2614360275752
59,614.2920858005635
60,614.3243173344105
61,614.3580185733282
62,614.3930758599067
63,614.4293743868756
64,614.4667986246809
65,614.5052327251115
66,614.5445609004497
67,614.5846677773472
68,614.6254387251674
69,614.6667601596121
70,614.708519823446
71,614.7506070467795
72,614.792912989712
73,614.8353308702447
74,614.8777561801822
75,614.9200868911631
76,614.9622236520856
77,615.0040699785113
78,615.0455324344093
79,615.0865208064896
80,615.126948270849
81,615.1667315509421
82,615.2057910656272
83,615.2440510664538
84,615.2814397642171
85,615.3178894456954
86,615.35333658208
87,615.3877219307711
88,615.4209906321416
89,615.4530923025712
90,615.483981124286
91,615.513615931303
92,615.541960289592
93,615.5689825689743
94,615.5946560043699
95,615.6189587443756
96,615.6418738853982
97,615.6633894896153
98,615.6834985852544
99,615.702199148428
100,615.7194940667813
101,615.7353910858707
102,615.7499027393559
103,615.7630462643791
104,615.7748435043496
105,615.7853208022367
106,615.7945088874689
107,615.8024427582966
108,615.8091615594572
109,615.8147084528763
110,615.8191304775543
111,615.8224783943687
112,615.8248065127306
113,615.8261724984355
114,615.826637164404
115,615.8262642471826
116,615.8251201718632
117,615.823273807013
118,615.8207962098236
119,615.8177603602727
120,615.8142408820805
121,615.81031374821
122,615.80605596966
123,615.8015452677009
124,615.7968597310327
125,615.7920774606699
126,615.7872762066957
127,615.782533002075
128,615.7779237993159
129,615.7735231160244
130,615.7694036954915
131,615.7656361881745
132,615.7622888588544
133,615.7594273222535
134,615.7571143074603
135,615.7554094493148
136,615.7543691033604
137,615.7540461801137
138,615.7544899941407
139,615.755746123559
140,615.7578562759415
141,615.7608581570868
142,615.764785339769
143,615.7696671305974
144,615.7755284346645
145,615.7823896195971
146,615.7902663824049
147,615.7991696238649
148,615.8091053361707
149,615.8200745101307
150,615.832073068096
151,615.8450918281424
152,615.8591165042011
153,615.8741277458367
154,615.8901012201455
155,615.9070077369383
156,615.9248134172574
157,615.9434799047082
158,615.9629646193893
159,615.9832210549686
160,616.0041991194315
161,616.0258455185811
162,616.0481041791841
163,616.0709167066449
164,616.0942228705009
165,616.1179611099743
166,616.1420690515865
167,616.1664840313596
168,616.1911436149517
169,616.2159861098157
170,616.2409510641236
171,616.2659797478183
172,616.2910156118947
173,616.3160047231303
174,616.3408961729197
175,616.3656424600481
176,616.390199847757
177,616.4145286954775
178,616.4385937653108
179,616.4623645026592
180,616.4858152894099
181,616.5089256670303
182,616.5316805261259
183,616.5540702585456
184,616.5760908680718
185,616.5977440359684
186,616.6190371378568
187,616.6399832083684
188,616.6606008501489
189,616.6809140843864
190,616.700952140605
191,616.7207491833748
192,616.7403439733076
193,616.7597794604291
194,616.779102310168
195,616.7983623649126
196,616.8176120462961
197,616.8369057049873
198,616.8562989262538
199,616.8758478012991
200,616.8956081761961
201,616.9156348917242
202,616.935981028073
203,616.9566971678419
204,616.9778306890851
205,616.9994250976862
206,617.0215194055208
207,617.0441475583597
208,617.0673379159547
209,617.091112786337
210,617.1154880166114
211,617.1404726430923
212,617.1660686041795
213,617.19227051938
214,617.2190655369747
215,617.2464332514048
216,617.2743456902252
217,617.3027673695623
218,617.3316554160862
219,617.3609597525088
220,617.3906233428756
221,617.4205824934838
222,617.4507672048614
223,617.4811015698174
224,617.5115042124856
225,617.5418887638293
226,617.5721643702446
227,617.6022362335493
228,617.632006182456
229,617.6613732769553
230,617.6902344471034
231,617.7184851664124
232,617.7460201578637
233,617.772734128047
234,617.7985225223952
235,617.8232822923426
236,617.8469126636597
237,617.8693158941626
238,617.890398008755
239,617.910069500963
240,617.9282459926873
241,617.9448488468621
242,617.9598057302253
243,617.9730511252791
244,617.9845267915641
245,617.994182176327
246,618.0019747738496
247,618.0078704318378
248,618.0118436027166
249,618.0138775374746
250,618.0139644198553
251,618.0121054392325
252,618.0083108012302
253,618.0025996757561
254,617.9950000825902
255,617.9855487151079
256,617.9742907032224
257,617.9612793172075
258,617.9465756149507
259,617.9302480366819
260,617.9123719532047
261,617.8930291753156
262,617.8723074326115
263,617.8502998291085
264,617.8271042815171
265,617.8028229442212
266,617.7775616235184
267,617.7514291829019
268,617.724536941072
269,617.6969980643017
270,617.6689269542935
271,617.6404386322497
272,617.6116481204803
273,617.5826698246121
274,617.553616921553
275,617.5246007599027
276,617.4957302802037
277,617.4671114625681
278,617.4388468092492
279,617.4110348696703
280,617.383769814823
281,617.35714106655
282,617.3312329854488
283,617.3061246195584
284,617.2818895146299
285,617.258595585094
286,617.2363050424211
287,617.2150743747677
288,617.1949543695036
289,617.1759901689122
290,617.1582213488248
291,617.1416820098581
292,617.1264008713642
293,617.1124013594992
294,617.0997016829874
295,617.0883148928611
296,617.0782489251784
297,617.0695066279317
298,617.0620857748311
299,617.0559790696967
300,617.051174146215
301,617.0476535687598
302,617.0453948406322
303,617.0443704263745
304,617.0445477948244
305,617.0458894893038
306,617.0483532305592
307,617.0518920564931
308,617.056454500592
309,617.0619848091835
310,617.0684231969152
311,617.0757061397487
312,617.0837667042175
313,617.0925349100384
314,617.1019381209724
315,617.1119014573385
316,617.122348223311
317,617.1332003425101
318,617.1443787957469
319,617.1558040549952
320,617.1673965079061
321,617.1790768674563
322,617.190766561772
323,617.2023881003232
324,617.2138654149778
325,617.2251241773884
326,617.2360920965398
327,617.2466992009829
328,617.2568781094312
329,617.2665642918462
330,617.2756963215298
331,617.2842161172873
332,617.292069173338
333,617.2992047732528
334,617.3055761830202
335,617.3111408180872
336,617.3158603802575
337,617.3197009619589
338,617.3226331163572
339,617.3246318915861
340,617.325676826762
341,617.325751907488
342,617.3248454794303
343,617.3229501199065
344,617.3200624689141
345,617.3161830222756
346,617.3113158901992
347,617.3054685247293
348,617.298651419893
349,617.2908777890858
350,617.2821632249658
351,617.2725253472632
352,617.2619834434128
353,617.250558106393
354,617.2382708743901
355,617.2251438778103
356,617.2111994998936
357,617.1964600570883
358,617.1809475047327
359,617.1646831730782
360,617.1476875383374
361,617.1299800329726
362,617.1115788989988
363,617.0925010881816
364,617.0727622135058
365,617.0523765562524
366,617.0313571318688
367,617.0097158159472
368,616.9874635297298
369,616.9646104828274
370,616.9411664691117
371,616.9171412100092
372,616.8925447379982
373,616.8673878123986
374,616.8416823593386
375,616.8154419272307
376,616.788682147795
377,616.761421191406
378,616.7336802054795
379,616.7054837259578
380,616.6768600538161
381,616.6478415900156
382,616.618465123671
383,616.5887720701261
384,616.558808658156
385,616.5286260674351
386,616.4982805177044
387,616.467833310032
388,616.4373508192605
389,616.406904435806
390,616.3765704544473
391,616.3464299075918
392,616.316568340873
393,616.2870755300445
394,616.2580451398989
395,616.2295743275828
396,616.2017632933189
397,616.1747147812794
398,616.1485335331072
399,616.1233256969523
400,616.0991981955592
401,616.07625805728
402,616.0546117138783
403,616.0343642692527
404,616.0156187442063
405,615.9984753037062
406,615.983030473862
407,615.9693763556692
408,615.9575998418351
409,615.947781842452
410,615.9399965252004
411,615.934310575964
412,615.930782486106
413,615.9294618732703
414,615.9303888432137
415,615.9335934003342
416,615.9390949140443
417,615.946901647395
418,615.9570103541191
419,615.9694059506526
420,615.9840612700111
421,616.0009369038611
422,616.01998113767
423,616.0411299823529
424,616.0643073052278
425,616.0894250632647
426,616.116383641497
427,616.1450722982837
428,616.1753697170948
429,616.207144662168
430,616.2402567330086
431,616.2745572104562
432,616.309889985136
433,616.3460925574891
434,616.3829970971018
435,616.4204315478349
436,616.4582207647144
437,616.4961876688757
438,616.5341544079066
439,616.5719435102857
440,616.6093790236436
441,616.6462876267057
442,616.6824997040608
443,616.7178503721141
444,616.752180444477
445,616.7853373258963
446,616.8171758254641
447,616.8475588818628
448,616.8763581954706
449,616.903454764321
450,616.9287393232347
451,616.9521126876413
452,616.9734860054143
453,616.9927809214802
454,617.0099296611069
455,617.0248750384873
456,617.0375703973218
457,617.0479794896695
458,617.056076298696
459,617.0618448103645
460,617.0652787387127
461,617.0663812092486
462,617.0651644051345
463,617.0616491808623
464,617.0558646478099
465,617.0478477354745
466,617.037642731507
467,617.0253008030523
468,617.0108795014752
469,616.9944422525454
470,616.976057834578
471,616.9557998474893
472,616.9337461757183
473,616.909978447438
474,616.8845814918202
475,616.8576427956374
476,616.8292519603137
477,616.7995001608485
478,616.7684796088091
479,616.7362830222811
480,616.7030031057832
481,616.6687320429824
482,616.6335610052887
483,616.5975796802195
484,616.5608758242873
485,616.5235348455883
486,616.4856394211424
487,616.4472691534768
488,616.408500270131
489,616.3694053689258
490,616.3300532109627
491,616.2905085621846
492,616.2508320828894
493,616.2110802631851
494,616.1713054013481
495,616.1315556213506
496,616.0918749252068
497,616.0523032751694
498,616.0128767004686
499,615.9736274235737
500,615.9345840018362
501,615.8957714813757
502,615.8572115607454
503,615.8189227622505
504,615.780920609229
505,615.743217808475
506,615.7058244380103
507,615.6687481409759
508,615.6319943263378
509,615.5955663766822
510,615.5594658627862
511,615.5236927638023
512,615.488245691015
513,615.4531221126646
514,615.4183185774384
515,615.3838309344883
516,615.3496545477392
517,615.3157845016324
518,615.2822157945735
519,615.2489435157913
520,615.2159630014974
521,615.1832699670134
522,615.1508606121106
523,615.1187316967639
524,615.0868805844256
525,615.0553052504881
526,615.0240042548168
527,614.9929766786286
528,614.9622220275943
529,614.9317401049784
530,614.9015308603948
531,614.871594220429
532,614.8419299067516
533,614.8125372463127
534,614.7834149776521
535,614.7545610574192
536,614.7259724715434
537,614.6976450559771
538,614.6695733323069
539,614.6417503634559
540,614.6141676340222
541,614.5868149587654
542,614.5596804217466
543,614.5327503480285
544,614.506009309779
545,614.4794401685892
546,614.4530241551438
547,614.4267409862567
548,614.4005690185257
549,614.3744854377626
550,614.3484664834363
551,614.3224877069334
552,614.2965242611605
553,614.2705512171934
554,614.2445439021808
555,614.2184782521277
556,614.192331173411
557,614.1660809073671
558,614.1397073926074
559,614.1131926196911
560,614.0865209726013
561,614.0596795514659
562,614.0326584713665
563,614.0054511329251
564,613.978054461429
565,613.9504691121128
566,613.9226996394993
567,613.8947546283777
568,613.866646783382
569,613.8383929735289
570,613.8100142278057
571,613.7815356782949
572,613.7529864483859
573,613.7243994848342
574,613.6958113333245
575,613.6672618580396
576,613.6387939071844
577,613.610452928681
578,613.5822865429476
579,613.5543440822483
580,613.5266761080688
581,613.4993339188054
582,613.4723690594369
583,613.4458328430861
584,613.419775892205
585,613.3942477053272
586,613.3692962544304
587,613.344967617727
588,613.3213056522399
589,613.2983517092271
590,613.2761443937089
591,613.2547193676895
592,613.2341091951064
593,613.2143432246531
594,613.1954475045723
595,613.1774447221339
596,613.1603541601999
597,613.1441916636587
598,613.1289696091538
599,613.1146968725296
600,613.1013787901109
601,613.0890171121564
602,613.077609949045
603,613.0671517123483
604,613.0576330536195
605,613.049040803583
606,613.0413579139472
607,613.0345634039508
608,613.0286323143366
609,613.0235356725664
610,613.0192404741593
611,613.0157096855593
612,613.0129022735255
613,613.010773264537
614,613.0092738354631
615,613.0083514348198
616,613.00794993323
617,613.0080098020175
618,613.008468319037
619,613.0092598001597
620,613.0103158538737
621,613.0115656561413
622,613.0129362431298
623,613.0143528202299
624,613.0157390866168
625,613.0170175754744
626,613.0181100107254
627,613.0189376815457
628,613.0194218364109
629,613.0194840991799
630,613.019046910198
631,613.0180339948722
632,613.0163708607829
633,613.013985323069
634,613.0108080570019
635,613.0067731757547
636,613.0018188295343
637,612.9958878194451
638,612.988928216532
639,612.9808939743378
640,612.9717455224699
641,612.9614503290712
642,612.9499834215039
643,612.9373278564395
644,612.9234751321596
645,612.9084255366979
646,612.8921884255755
647,612.8747824225179
648,612.8562355359593
649,612.8365851839429
650,612.8158781209631
651,612.7941702625035
652,612.771526405989
653,612.7480198500756
654,612.7237319175317
655,612.6987513902965
656,612.6731738681203
657,612.6471010638484
658,612.6206400488672
659,612.5939024623679
660,612.5670036986362
661,612.5400620869806
662,612.5131980778116
663,612.4865334455748
664,612.4601905160376
665,612.4342914231765
666,612.4089573996093
667,612.3843081034853
668,612.3604609836143
669,612.3375306834022
670,612.3156284829797
671,612.2948617779579
672,612.2753335927462
673,612.2571421263277
674,612.2403803286338
675,612.2251355061529
676,612.211488956091
677,612.1995156291277
678,612.1892838213477
679,612.1808548959276
680,612.1742830345493
681,612.1696150179386
682,612.1668900352021
683,612.1661395226349
684,612.1673870336496
685,612.1706481418569
686,612.1759303792039
687,612.1832332109188
688,612.1925480492177
689,612.2038583082287
690,612.2171395030152
691,612.2323593954541
692,612.2494781887901
693,612.2684487710795
694,612.2892170059442
695,612.3117220676014
696,612.3358968161916
697,612.3616682087959
698,612.388957740854
699,612.4176819117815
700,612.4477527073154
701,612.4790780896825
702,612.5115624857476
703,612.5451072635476
704,612.5796111889952
705,612.6149708564257
706,612.6510810883829
707,612.68783530132
708,612.7251258349204
709,612.7628442438513
710,612.800881552072
711,612.8391284712197
712,612.8774755860213
713,612.915813511102
714,612.9540330248179
715,612.9920251866636
716,613.0296814455032
717,613.0668937465911
718,613.1035546459798
719,613.1395574411036
720,613.1747963258905
721,613.2091665779218
722,613.2425647840569
723,613.2748891091477
724,613.3060396096363
725,613.3359185906689
726,613.364431003161
727,613.3914848762862
728,613.4169917802956
729,613.4408673136961
730,613.4630316075652
731,613.4834098384005
732,613.501932739784
733,613.5185371026699
734,613.5331662545636
735,613.5457705092012
736,613.5563075800477
737,613.5647429523955
738,613.5710502097514
739,613.575211310524
740,613.5772168110017
741,613.5770660308007
742,613.574767157637
743,613.5703372890713
744,613.5638024094336
745,613.5551973008197
746,613.5445653882553
747,613.5319585206239
748,613.5174366900777
749,613.5010676929032
750,613.4829267343187
751,613.4630959792364
752,613.4416640515249
753,613.418725485786
754,613.3943801373979
755,613.3687325578928
756,613.341891343461
757,613.3139684645298
758,613.2850785841528
759,613.2553383724841
760,613.2248658239766
761,613.1937795833055
762,613.1621982856046
763,613.1302399163753
764,613.0980211961056
765,613.0656569942266
766,613.0332597769359
767,613.0009390939266
768,612.9688011097412
769,612.9369481854067
770,612.9054785147537
771,612.8744858178417
772,612.8440590921383
773,612.8142824211794
774,612.7852348403266
775,612.7569902592721
776,612.7296174403946
777,612.703180030787
778,612.677736644265
779,612.6533409882941
780,612.630042029823
781,612.6078841939662
782,612.5869075907825
783,612.5671482673808
784,612.5486384838094
785,612.5314070109497
786,612.515479447699
787,612.5008785541545
788,612.4876245974588
789,612.4757357068825
790,612.4652282342589
791,612.4561171153779
792,612.4484162280289
793,612.4421387432961
794,612.4372974679517
795,612.4339051765248
796,612.4319749313548
797,612.4315203878782
798,612.4325560811329
799,612.4350976883042
800,612.4391622609957
801,612.4447684197268
802,612.4519365022746
803,612.4606886573811
804,612.4710488763212
805,612.4830429567218
806,612.496698395373
807,612.5120442091721
808,612.5291106854801
809,612.5479290649562
810,612.5685311615717
811,612.5909489263872
812,612.6152139639462
813,612.641357012429
814,612.6694074004
815,612.6993924936432
816,612.7313371451852
817,612.7652631602625
818,612.8011887859407
819,612.839128232958
820,612.8790912358955
821,612.9210826570343
822,612.9651021384549
823,613.0111438051517
824,613.059196019281
825,613.1092411832091
826,613.1612555879059
827,613.2152093035694
828,613.2710661105023
829,613.3287834695168
830,613.3883125323727
831,613.4495981937348
832,613.5125791863577
833,613.5771882205312
834,613.6433521678732
835,613.7109922890209
836,613.7800245047455
837,613.8503597101057
838,613.9219041309432
839,613.9945597210271
840,614.0682245966914
841,614.1427935045173
842,614.2181583167733
843,614.2942085485761
844,614.370831889996
845,614.447914746206
846,614.5253427797018
847,614.6030014500166
848,614.6807765470934
849,614.7585547141059
850,614.8362239548027
851,614.913674120486
852,614.9907973728313
853,615.0674886200156
854,615.1436459240114
855,615.2191708762873
856,615.2939689383534
857,615.3679497433749
858,615.4410273556429
859,615.5131204855317
860,615.5841526581389
861,615.6540523340705
862,615.7227529812928
863,615.7901930979418
864,615.8563161872725
865,615.9210706871901
866,615.9844098577335
867,616.0462916303005
868,616.1066784223416
869,616.1655369209928
870,616.2228378391011
871,616.2785556475834
872,616.3326682891915
873,616.3851568801931
874,616.4360054075164
875,616.4852004290549
876,616.532730784371
877,616.5785873223732
878,616.6227626516747
879,616.6652509180832
880,616.7060476122448
881,616.7451494092887
882,616.7825540415673
883,616.8182602050489
884,616.8522674991677
885,616.884576398757
886,616.9151882554679
887,616.9441053255067
888,616.9713308207938
889,616.9968689811789
890,617.0207251655995
891,617.0429059601444
892,617.0634193008957
893,617.0822746086143
894,617.0994829304755
895,617.1150570819453
896,617.1290117806716
897,617.1413637644415
898,617.1521318863208
899,617.1613371810852
900,617.1690028975895
901,617.1751544923219
902,617.1798195806176
903,617.1830278437124
904,617.1848108915551
905,617.1852020829597
906,617.1842363062265
907,617.1819497245159
908,617.1783794905814
909,617.1735634349535
910,617.1675397308597
911,617.1603465388024
912,617.1520216342996
913,617.142602023832
914,617.1321235561429
915,617.1206205381546
916,617.1081253663372
917,617.0946681848685
918,617.0802765810175
