acceleration,velocity,displacement
-0.008327201768909605,0.0,0.0
-0.008598363237905632,-4.23139125170381e-06,-1.0578478129259527e-09
-0.008951976121248614,-8.618976091492372e-06,-4.2704396487249986e-09
-0.009387746645531308,-1.3203906783187351e-05,-9.72616036739493e-09
-0.009904247013125736,-1.802690519785161e-05,-1.753386336265467e-08
-0.010498980444532196,-2.3127712062266095e-05,-2.7822517677684097e-08
-0.011168484077695212,-2.854457819282295e-05,-4.074059024145636e-08
-0.011908463031624666,-3.431381497015292e-05,-5.645518853220032e-08
-0.012713945100609261,-4.04694170032114e-05,-7.51509965255414e-08
-0.013579443484034129,-4.704276414937225e-05,-9.702904181368732e-08
-0.01449911545578277,-5.406240388432648e-05,-1.22305333822112e-07
-0.015466907636660905,-6.15539096574374e-05,-1.5120941220755296e-07
-0.016476682340116382,-6.953980715163172e-05,-1.8398284140982023e-07
-0.017522323112794152,-7.803955851485935e-05,-2.2087768282644302e-07
-0.01859782031379144,-8.706959437150575e-05,-2.621549710480343e-07
-0.019697338810215032,-9.664338415250737e-05,-3.0808321567903757e-07
-0.020815269364862214,-0.00010677153619627668,-3.5893694576623357e-07
-0.02194626333483354,-0.00011746191937120062,-4.149953096581029e-07
-0.02308524765291093,-0.00012871979711813673,-4.7654073878043724e-07
-0.02422741517221206,-0.00014054796282441748,-5.438576787660758e-07
-0.025368186085838244,-0.00015294686313893006,-6.172313852569126e-07
-0.026503139735071818,-0.00016591469459415758,-6.969467746901846e-07
-0.027627921068056976,-0.00017944745979493978,-7.83287313287459e-07
-0.02873813023253655,-0.00019353897262008816,-8.765339213912159e-07
-0.029829206552162923,-0.00020818080681626303,-9.769638662503037e-07
-0.03089631994534398,-0.00022336218844063975,-1.0848496150645294e-06
-0.03193428401479599,-0.00023906983943067475,-1.200457622032358e-06
-0.03293750467612394,-0.00025528778660340474,-1.3240470285408778e-06
-0.03389997500171504,-0.0002719971565228645,-1.455868264322445e-06
-0.03481532120082227,-0.00028917598057349883,-1.596161548596536e-06
-0.035676898460343505,-0.00030679903548879025,-1.7451553026121082e-06
-0.03647793075969898,-0.0003248377427938009,-1.9030644971827561e-06
-0.037211686273375184,-0.00034326014705206943,-2.0700889696442236e-06
-0.037871678824438364,-0.00036203098832652284,-2.246411753488872e-06
-0.03845188487000469,-0.0003811118792501336,-2.432197470383036e-06
-0.03894696418671547,-0.0004004615915143136,-2.6275908380741476e-06
-0.039352471462334324,-0.00042003645042657607,-2.83271534855937e-06
-0.039665046216950495,-0.0004397908298463973,-3.0476721686276136e-06
-0.03988256957881651,-0.000459677733795339,-3.272539309538048e-06
-0.040004277613717235,-0.00047964944559347245,-3.5073711043852508e-06
-0.04003082256705403,-0.0004996582206386653,-3.752198020943285e-06
-0.03996427699988855,-0.0005196569955304009,-4.0070268249855514e-06
-0.0398080816296793,-0.0005396000851877929,-4.2718410951651e-06
-0.039566943758860815,-0.000559443841534928,-4.54660207684578e-06
-0.03924669715454374,-0.0005791472517632791,-4.831249850170332e-06
-0.03885413551791494,-0.0005986724599313937,-5.125704778094e-06
-0.038396831248047165,-0.0006179852016228842,-5.42986919348257e-06
-0.03788294987973229,-0.0006370551469048291,-5.7436292806144985e-06
-0.03732106792489534,-0.000655856151355986,-6.066857105179702e-06
-0.03671999739910878,-0.000674366417686987,-6.399412747440446e-06
-0.03608861544372992,-0.0006925685708976967,-6.741146494586617e-06
-0.035435694717815124,-0.000710449648438083,-7.091901049420562e-06
-0.034769730772119506,-0.0007280010048105667,-7.4515137127327245e-06
-0.034098765589059055,-0.0007452181289008613,-7.81981849616058e-06
-0.033430210746324796,-0.0007621003729847073,-8.196648121631973e-06
-0.03277067838505296,-0.0007786505952675517,-8.581835863695038e-06
-0.03212583195034106,-0.0007948747228514003,-8.975217193224776e-06
-0.031500269873231804,-0.0008107812483072935,-9.37663118601445e-06
-0.030897453225117964,-0.0008263806790818809,-9.785921667861743e-06
-0.030319683154645338,-0.0008416849631768218,-1.0202938078426419e-05
-0.0297681267075438,-0.000856706915642369,-1.0627536048131217e-05
-0.029242882946972856,-0.0008714596680559982,-1.1059577694055809e-05
-0.028743078054131472,-0.0008859561583062743,-1.1498931650646377e-05
-0.02826697883170932,-0.0009002086725277345,-1.1945472858354879e-05
-0.027812116810213953,-0.0009142284464382153,-1.2399082138096366e-05
-0.02737541830269039,-0.0009280253302164414,-1.285964558226003e-05
-0.026953338627243424,-0.0009416075194489249,-1.3327053794676372e-05
-0.026542000360981515,-0.0009549813541959811,-1.3801201013087598e-05
-0.02613733506107013,-0.000968151188051494,-1.4281984148649467e-05
-0.025735226080466328,-0.000981119328336878,-1.476930177774656e-05
-0.025331648409496012,-0.0009938860469593685,-1.526305312157062e-05
-0.024922800568963174,-0.0010064496592039833,-1.576313704811146e-05
-0.024505223330853275,-0.0010188066651789375,-1.6269451129207192e-05
-0.024075900291113114,-0.0010309519460844291,-1.6781890782023035e-05
-0.02363233619119031,-0.001042879005205005,-1.7300348519845393e-05
-0.023172610641168916,-0.0010545802419130949,-1.7824713331624916e-05
-0.022695407265660536,-0.0010660472463898023,-1.835487020370064e-05
-0.022200020128489626,-0.0010772711032383398,-1.8890699791107674e-05
-0.021686339863931543,-0.0010882426932364451,-1.943207824022637e-05
-0.021154822197624906,-0.0010989529837518342,-1.997887715947344e-05
-0.020606442724110947,-0.0011093932999822682,-2.0530963730406965e-05
-0.02004264339602037,-0.001119555571512301,-2.1088200948280607e-05
-0.01946527660449873,-0.0011294325515124307,-2.165044797903679e-05
-0.018876551417899328,-0.0011390180085180301,-2.2217560619044407e-05
-0.01827898412449724,-0.0011483068924036293,-2.2789391844274823e-05
-0.01767535267096743,-0.0011572954766024953,-2.3365792436526355e-05
-0.017068652785041306,-0.0011659814779664975,-2.3946611675168602e-05
-0.01646205278811084,-0.0011743641543597856,-2.4531698083250175e-05
-0.015858843930791414,-0.001182444378539511,-2.5120900216475e-05
-0.015262383470653212,-0.0011902246853898722,-2.5714067482457344e-05
-0.01467602927085123,-0.0011977092885752483,-2.6311050975948624e-05
-0.014103067438089863,-0.0012049040627524835,-2.6911704313780556e-05
-0.013546637176731987,-0.0012118164889061889,-2.7515884451695225e-05
-0.013009658230914009,-0.0012184555627581003,-2.8123452464611298e-05
-0.012494765846340431,-0.0012248316687774139,-2.8734274272495177e-05
-0.01200425707553617,-0.0012309564245078831,-2.93482212958165e-05
-0.011540051508823002,-0.0012368425016539729,-2.9965171027356965e-05
-0.011103669284963357,-0.0012425034318524195,-3.0585007510733564e-05
-0.010696228622454708,-0.001247953406329274,-3.1207621720278986e-05
-0.010318463246105306,-0.001253207079296414,-3.1832911841685406e-05
-0.009970757559710707,-0.001258279384497868,-3.246078345763398e-05
-0.009653195826741357,-0.001263185372844481,-3.3091149646969565e-05
-0.00936562128837169,-0.0012679400771232593,-3.37239310094615e-05
-0.009107700533518422,-0.0012725584075787319,-3.4359055630637e-05
-0.008878986478128134,-0.0012770550793316435,-3.4996459002364595e-05
-0.008678971276669833,-0.001281444568770343,-3.5636083914390094e-05
-0.008507120682746784,-0.001285741091760197,-3.627788032952273e-05
-0.008362884641875883,-0.0012899585930913526,-3.692180525073562e-05
-0.008245684101604603,-0.0012941107352772228,-3.756782258282776e-05
-0.008154879456161813,-0.0012982108761666643,-3.821590298568873e-05
-0.008089730204210945,-0.0013022720285817576,-3.886602371187584e-05
-0.008049356664031811,-0.0013063068002988182,-3.951816841909598e-05
-0.008032711856701227,-0.0013103273174290015,-4.017232694852794e-05
-0.008038565965791347,-0.0013143451368846247,-4.082849506210634e-05
-0.008065500200973385,-0.001318371153426316,-4.148667413468408e-05
-0.008111904224496059,-0.0013224155045326834,-4.214687079917383e-05
-0.008175972055158812,-0.0013264874736025971,-4.280909654370765e-05
-0.008255694223879884,-0.0013305953901723568,-4.347336725965139e-05
-0.00834884758743691,-0.001334746525625186,-4.4139702738600776e-05
-0.008452987898682856,-0.001338946984496716,-4.480812611613125e-05
-0.008565452914073672,-0.0013432015946999052,-4.547866326093041e-05
-0.008683384050851652,-0.0013475138039411366,-4.615134211059067e-05
-0.008803772278127361,-0.0013518855930233814,-4.68261919598318e-05
-0.00892353058152352,-0.0013563174187382942,-4.750324271277222e-05
-0.009039592138118687,-0.0013608081994182046,-4.8182524117311346e-05
-0.009149030140390358,-0.0013653553549878318,-4.8864065005912855e-05
-0.009249191965323282,-0.0013699549105142602,-4.954789257228838e-05
-0.009337837814195277,-0.0013746016679591399,-5.023403171690672e-05
-0.009413272514815751,-0.0013792894455413925,-5.092250449528186e-05
-0.009474458538980123,-0.0013840113783048415,-5.1613329701243414e-05
-0.00952109806942349,-0.0013887602674569424,-5.230652261268386e-05
-0.009553672636128746,-0.0013935289601333305,-5.300209491958143e-05
-0.009573431507353127,-0.001398310736169201,-5.3700054843657065e-05
-0.009582324968299178,-0.001403099675288114,-5.4400407446521395e-05
-0.009582884661175461,-0.0014078909776954827,-5.510315510976729e-05
-0.009578058600680344,-0.0014126812135109466,-5.58082981575689e-05
-0.009571012341800359,-0.0014174684812465668,-5.6515835581258275e-05
-0.00956490992437028,-0.0014222524618131094,-5.7225765817023194e-05
-0.009562688934213356,-0.0014270343615277552,-5.793808752285841e-05
-0.009566843754697588,-0.001431816744699983,-5.865280029941535e-05
-0.00957923027255646,-0.0014366032632067965,-5.9369905301392045e-05
-0.00960090417414486,-0.0014413982968184717,-6.008940569139836e-05
-0.009632003423344391,-0.001446206523717844,-6.081130689653244e-05
-0.009671683076878367,-0.0014510324453428998,-6.153561663879763e-05
-0.009718106786862999,-0.001455879892808835,-6.226234472333556e-05
-0.009768494581463782,-0.0014607515431509168,-6.299150258232551e-05
-0.009819222088541286,-0.001465648472318418,-6.372310258619284e-05
-0.009865962982031153,-0.0014705697685860612,-6.445715714641896e-05
-0.009903863869198495,-0.0014755122252988688,-6.519367764489019e-05
-0.009927739283512985,-0.0014804701260870466,-6.593267323273667e-05
-0.009932274485458125,-0.0014854351295292894,-6.667414954664076e-05
-0.009912225067133339,-0.0014903962544174374,-6.741810739262744e-05
-0.00986260405180306,-0.0014953399616971714,-6.816454144665609e-05
-0.00977884918306774,-0.001500250325005889,-6.891343901833186e-05
-0.009656965611406004,-0.0015051092787045075,-6.966477891925946e-05
-0.0094936418305123,-0.0015098969305649872,-7.041853047157684e-05
-0.009286338822036003,-0.0015145919257281242,-7.117465268565012e-05
-0.009033353063821492,-0.0015191718486995886,-7.193309362925705e-05
-0.008733852542304462,-0.0015236136501011201,-7.269379000395722e-05
-0.008387882228999251,-0.001527894083793946,-7.345666693743099e-05
-0.007996334701332233,-0.001531990138026529,-7.422163799288611e-05
-0.007560884329924356,-0.0015358794427843432,-7.498860538808883e-05
-0.007083888010650831,-0.001539540635869487,-7.575746040775229e-05
-0.0065682595601146265,-0.0015429536727621786,-7.652808398491021e-05
-0.006017328017310323,-0.0015461000696565348,-7.730034742051489e-05
-0.005434691915853176,-0.0015489630746398256,-7.807411320658899e-05
-0.0048240814353429145,-0.0015515277679776247,-7.884923591724335e-05
-0.00418923836464043,-0.0015537810979276204,-7.962556313371965e-05
-0.0035338211786930264,-0.0015557118628134537,-8.040293637390492e-05
-0.0028613401399255303,-0.0015573106531431083,-8.118119200289406e-05
-0.0021751252777532665,-0.001558569769497528,-8.196016210855422e-05
-0.0014783282048172366,-0.0015594831328681706,-8.273967533414564e-05
-0.0007739566352161048,-0.0015600462040781789,-8.351955766838223e-05
-6.493754112573225e-05,-0.0015602559276222644,-8.429963320130733e-05
0.0006457987145747657,-0.001560110712328902,-8.507972486129512e-05
0.0013552237825857605,-0.001559610456704612,-8.58596551535535e-05
0.0020601178989547424,-0.0015587566212842269,-8.663924692305071e-05
0.002756989016432787,-0.00155755234455538,-8.741832416451062e-05
0.0034420147415546907,-0.0015560025936158831,-8.819671289905344e-05
0.004111015126353327,-0.0015541143361489061,-8.897424213149463e-05
0.004759461241395069,-0.001551896717056969,-8.97507448947961e-05
0.005382521119964487,-0.001549361221466629,-9.0526059379427e-05
0.005975141778832627,-0.0015465218057419297,-9.130003013622913e-05
0.006532163906956206,-0.0015433949793204826,-9.207250933249474e-05
0.007048464594948199,-0.0015399998221950065,-9.284335803287362e-05
0.0075191228972939245,-0.001536357925321946,-9.361244746975286e-05
0.007939602240936958,-0.0015324932440373882,-9.437966026209269e-05
0.008305942300654888,-0.0015284318579019901,-9.514489153757754e-05
0.008614951886279316,-0.0015242016343552567,-9.590804991064185e-05
0.008864394417390037,-0.0015198317977793393,-9.666905826867551e-05
0.009053157496216737,-0.0015153524098009375,-9.742785432057057e-05
0.009181396392244565,-0.0015107937713288223,-9.818439086585301e-05
0.009250639069346922,-0.0015061857624634244,-9.893863574930107e-05
0.009263840732551572,-0.0015015571425129497,-9.969057147554517e-05
0.00922537979732657,-0.0014969348373804802,-0.00010044019447051853
0.009140992545433137,-0.0014923432442947903,-0.00010118751399093734
0.009017647993203499,-0.001487803584160131,-0.00010193255069805107
0.008863367337137266,-0.0014833333303275458,-0.00010267533492667299
0.008686995053033003,-0.0014789457397300031,-0.00010341590469418737
0.008497932159570884,-0.0014746495079268522,-0.00010415430350610159
0.008305845964343332,-0.0014704485633958736,-0.00010489057802393227
0.008120373765684587,-0.0014663420084633668,-0.00010562477566689709
0.00795083926245229,-0.0014623242052063325,-0.00010635694222031452
0.007805998944539967,-0.0014583849956545845,-0.00010708711952052974
0.007693831620512991,-0.0014545100380133212,-0.00010781534327894671
0.007621378341708571,-0.001450681235522766,-0.00010854164109733074
0.0075946334025001365,-0.0014468772325867136,-0.0001092660307143581
0.007618481472013879,-0.001443073953868085,-0.00010998851851097181
0.007696672917474843,-0.001439245165270713,-0.0001107090982907565
0.007831829252138022,-0.0014353630397283097,-0.00011142775034200626
0.008025472316940794,-0.00143139871433604,-0.00011214444078052235
0.00827807335125393,-0.0014273228279189911,-0.00011285912116608611
0.008589120751773939,-0.001423106029393234,-0.00011357172838041417
0.008957206702982726,-0.001418719447529545,-0.00011428218474964486
0.009380132054350293,-0.0014141351128402117,-0.0001149903983897373
0.009855026786552177,-0.0014093263231299861,-0.00011569626374872986
0.01037848190030489,-0.0014042679459582718,-0.00011639966231600192
0.010946687866611635,-0.0013989366535165427,-0.00011710046346587062
0.011555574020602886,-0.001393311088044739,-0.00011779852540126094
0.012200942354555514,-0.0013873719589509493,-0.00011849369616300985
0.012878588833745661,-0.001381102076153874,-0.00011918581467178606
0.013584405749060132,-0.0013744863275081726,-0.00011987471177270158
0.014314459037888302,-0.0013675116113114354,-0.00012056021125740648
0.015065034809958473,-0.0013601667378494737,-0.0001212421308446967
0.0158326503585052,-0.0013524423165573577,-0.00012192028310829841
0.016614027467888332,-0.0013443306471007594,-0.00012259447634921294
0.017406029820549045,-0.0013358256327786501,-0.00012326451541918277
0.01820557136567905,-0.0013269227324820931,-0.00012393020251049797
0.019009507891255394,-0.0013176189626678595,-0.00012459133793428547
0.019814528081109718,-0.0013079129536747681,-0.00012524772091337112
0.020617061177716604,-0.0012978050563600615,-0.00012589915041587982
0.02141321568589024,-0.0012872974871441598,-0.00012654542605175588
0.022198758594653964,-0.0012763944935740238,-0.00012718634904693542
0.022969138629748875,-0.001265102519267923,-0.0001278217233001459
0.02371955095674242,-0.0012534303468713002,-0.0001284513565166807
0.024445035475726566,-0.0012413892002631829,-0.00012907506140346432
0.025140596847626116,-0.0012289927921823446,-0.00012969265690157572
0.025801331553174645,-0.0012162573100821445,-0.00013030396942714185
0.02642254633679329,-0.0012032013406096526,-0.0001309088340898148
0.026999854868544938,-0.001189845740308318,-0.0001315070958600443
0.027529245215457694,-0.0011762134652873173,-0.00013209861066144321
0.02800711731985679,-0.0011623293746534887,-0.00013268324637142842
0.028430295091566436,-0.001148220021550633,-0.00013326088372047945
0.028796021440418866,-0.0011339134424176367,-0.0001338314170864715
0.029101946138793456,-0.0011194389505228336,-0.00013439475518470663
0.029346115216263746,-0.0011048269351840692,-0.00013495082165613335
0.02952696742329759,-0.001090108664524179,-0.0001354995555560604
0.02964333992420328,-0.0010753160876873038,-0.0001360409117441133
0.029694482764405117,-0.0010604816320151516,-0.0001365748611740389
0.02968007984576054,-0.0010456379913626101,-0.00013710139107988336
0.02960027321479186,-0.001030817903097472,-0.00013762050505349837
0.029455687482171318,-0.0010160539129232312,-0.00013813222300750356
0.029247451648954682,-0.0010013781281404497,-0.0001386365810177695
0.02897721583601024,-0.0009868219612692085,-0.0001391336310401219
0.028647160285547753,-0.000972415867238819,-0.0001396234404972489
0.02825999387730219,-0.0009581890786981065,-0.00014010609173373313
0.027818939464713806,-0.0009441693453626026,-0.00014058168133974832
0.027327703664987497,-0.0009303826845801773,-0.00014105031934723403
0.026790429892945587,-0.000916853151190694,-0.00014151212830617674
0.026211636199108313,-0.0009036026346676805,-0.00014196724225264135
0.025596143522120206,-0.0008906506897373733,-0.0001424158055837426
0.024949003336058487,-0.0008780144030228286,-0.00014285797185693266
0.024275434319856154,-0.00086570829360885,-0.0001432939025310906
0.02358077524818728,-0.0008537442412168392,-0.000143723765664797
0.02287045700914343,-0.0008421314331525065,-0.00014414773458338933
0.022149991963399753,-0.0008308763209093706,-0.0001445659865219048
0.021424975033723065,-0.0008199825791600899,-0.00014497870124692216
0.020701088995394964,-0.0008094510631528104,-0.00014538605965750038
0.019984106334338645,-0.000799279764320377,-0.00014578824236436867
0.019279880139310198,-0.0007894637677019648,-0.00014618542824737426
0.0185943156514878,-0.0007799952187542654,-0.00014657779299398832
0.01793331356663417,-0.0007708633114497349,-0.00014696550762653931
0.017302678250672745,-0.0007620543134954082,-0.0001473487370327756
0.016707989040013582,-0.0007535516466727366,-0.00014772763852281763
0.016154438743478505,-0.0007453360397268636,-0.00014810236044441753
0.015646648128201417,-0.0007373857680089436,-0.00014847304089635148
0.0151884678185344,-0.0007296769890222597,-0.0001488398065856093
0.01478278036990451,-0.00072218417697515,-0.00014920277187710864
0.014431316362596702,-0.0007148806527920246,-0.00014956203808455044
0.014134499237410317,-0.0007077391988920228,-0.00014991769304747144
0.013891333128408206,-0.0007007327408005682,-0.00015026981103239458
0.01369934549541927,-0.0006938350711446113,-0.00015061845298538088
0.013554592921963335,-0.0006870215865402657,-0.0001509636671498021
0.013451735451178106,-0.0006802700044469803,-0.0001513054900475489
0.013384182313005677,-0.0006735610250059343,-0.0001516439478049121
0.013344308472811428,-0.00066687890230948,-0.00015197905778674097
0.013323736095307355,-0.0006602118911674503,-0.00015231083048511022
0.013313668646823696,-0.0006535525399819175,-0.00015263927159289757
0.01330526009405891,-0.0006468978077966968,-0.00015296438417984222
0.013289998737816505,-0.000640248993088728,-0.00015328617088006358
0.013260084104277309,-0.0006336114723782045,-0.00015360463599643033
0.013208775146927382,-0.0006269942575654033,-0.00015391978742891623
0.013130689053912549,-0.0006204093915151934,-0.0001542316383411864
0.013022033013930925,-0.0006138712109982324,-0.00015454020849181476
0.012880756419693043,-0.0006073955136398265,-0.00015484552517297428
