frame_number,force
0,615.8453271656302
1,615.8282899183127
2,615.8060721962652
3,615.7786924574573
4,615.7462404113209
5,615.7088729320976
6,615.6668075936099
7,615.620314245958
8,615.5697052959847
9,615.5153254828575
10,615.4575419087691
11,615.396734911379
12,615.3332901254313
13,615.267591851575
14,615.200017679365
15,615.1309342339069
16,615.0606939471368
17,614.9896328776849
18,614.9180697695867
19,614.8463066589339
20,614.7746312979027
21,614.703321439288
22,614.6326507137637
23,614.5628955668418
24,614.4943425487137
25,614.4272951364735
26,614.3620791947566
27,614.2990462034384
28,614.2385735815959
29,614.18106179855
30,614.1269283521281
31,614.0765989840068
32,614.0304966590586
33,613.9890289078999
34,613.9525741935556
35,613.9214680456512
36,613.8959897659777
37,613.8763504956222
38,613.8626833646424
39,613.8550363715102
40,613.8533685352328
41,613.8575496354823
42,613.8673634897956
43,613.882514335371
44,613.9026356329157
45,613.9273005298694
46,613.956033247589
47,613.9883207403373
48,614.023624140423
49,614.0613897833109
50,614.1010599125716
51,614.1420833364648
52,614.1839262741408
53,614.2260834427369
54,614.2680891681194
55,614.3095280052613
56,614.3500441163101
57,614.3893485789227
58,614.4272239317855
59,614.4635255922675
60,614.4981802341442
61,614.5311816332145
62,614.5625846920685
63,614.5924983085941
64,614.6210775782973
65,614.6485156228816
66,614.6750351569618
67,614.7008798014808
68,614.7263051792859
69,614.7515699419253
70,614.7769269833132
71,614.8026151528019
72,614.8288517958846
73,614.8558264351437
74,614.883695849259
75,614.9125806975484
76,614.9425636887137
77,614.9736891771731
78,615.0059640344447
79,615.039359626997
80,615.0738146576055
81,615.1092385274704
82,615.1455148496798
83,615.1825048270658
84,615.2200503596381
85,615.2579769072427
86,615.2960962464035
87,615.3342093094753
88,615.3721093050916
89,615.4095852946269
90,615.4464263014066
91,615.4824258572594
92,615.5173867239813
93,615.5511254521939
94,615.5834764677359
95,615.6142954453381
96,615.6434617759217
97,615.6708799482025
98,615.6964797038022
99,615.7202149423251
100,615.7420615114366
101,615.7620141168094
102,615.7800826076999
103,615.7962879325383
104,615.8106581818997
105,615.8232252640413
106,615.8340227460035
107,615.8430851880588
108,615.8504489724406
109,615.8561542859858
110,615.8602476548635
111,615.8627843500351
112,615.8638301538512
113,615.863462336459
114,615.861770041356
115,615.8588544470858
116,615.8548290245944
117,615.8498200301004
118,615.8439671451044
119,615.8374239432071
120,615.8303576948612
121,615.8229480066368
122,615.8153839378559
123,615.8078594475925
124,615.8005672262784
125,615.7936911670893
126,615.7873979360138
127,615.7818282610283
128,615.7770886508781
129,615.7732442941193
130,615.7703139027998
131,615.7682672220849
132,615.7670257596566
133,615.7664669778569
134,615.766431811998
135,615.7667350364441
136,615.7671777573647
137,615.7675611761276
138,615.7677007223498
139,615.76743967234
140,615.7666614195559
141,615.7652996345536
142,615.7633456489746
143,615.7608525511416
144,615.7579357199586
145,615.7547698228215
146,615.7515825813337
147,615.7486458213095
148,615.7462644844971
149,615.744764377052
150,615.7444794274334
151,615.7457391451205
152,615.7488568650291
153,615.7541192366263
154,615.7617772588446
155,615.7720389957286
156,615.7850639754138
157,615.8009592312791
158,615.8197770392652
159,615.8415145737833
160,615.8661157536269
161,615.8934753770263
162,615.9234453587169
163,615.9558426217508
164,615.9904580004936
165,616.0270653967929
166,616.0654304410951
167,616.1053180344298
168,616.1464983124924
169,616.1887507232653
170,616.2318660388854
171,616.2756462415288
172,616.3199023546083
173,616.3644504746032
174,616.4091064849528
175,616.453680112547
176,616.4979690575718
177,616.5417539124808
178,616.5847945138647
179,616.6268282329381
180,616.6675705141882
181,616.7067177620775
182,616.7439524944602
183,616.778950548547
184,616.8113900486871
185,616.8409618087487
186,616.8673807929653
187,616.8903981715878
188,616.9098134401112
189,616.9254860727672
190,616.9373461768973
191,616.945403508182
192,616.9497540695619
193,616.9505835384457
194,616.9481670134581
195,616.9428649088255
196,616.9351150922702
197,616.9254215406626
198,616.9143399580345
199,616.9024610163603
200,616.8903921187161
201,616.878738782677
202,616.868086822164
203,616.8589864129983
204,616.8519388687898
205,616.8473865832659
206,616.8457061817492
207,616.8472045711031
208,616.8521173892825
209,616.8606093476301
210,616.8727760643785
211,616.8886471477967
212,616.9081904535243
213,616.931317527618
214,616.9578901960534
215,616.9877281336935
216,617.0206171509482
217,617.056317892691
218,617.094574596463
219,617.1351234987725
220,617.1777004574478
221,617.2220473825165
222,617.2679170943261
223,617.315076246792
224,617.3633060192363
225,617.4124004392883
226,617.4621624501236
227,617.5123981532101
228,617.5629099957094
229,617.6134899255236
230,617.6639135896894
231,617.7139364830928
232,617.7632926429656
233,617.8116961098555
234,617.8588449929634
235,617.904427646062
236,617.9481302088244
237,617.9896445900208
238,618.0286759094224
239,618.0649485711334
240,618.0982105028571
241,618.1282355106833
242,618.1548240388491
243,618.1778028576282
244,618.1970243007264
245,618.2123655989409
246,618.223728657972
247,618.2310404161145
248,618.2342537532463
249,618.2333488087203
250,618.2283345074096
251,618.2192500939996
252,618.2061665043435
253,618.1891874165836
254,618.1684498167227
255,618.144123905395
256,618.1164121765289
257,618.0855475192377
258,618.0517902669062
259,618.0154242915181
260,617.9767524957103
261,617.9360922668075
262,617.8937714977213
263,617.8501256270555
264,617.805495880958
265,617.7602286045511
266,617.7146753303857
267,617.669193110842
268,617.6241446348768
269,617.579897655774
270,617.5368232035873
271,617.4952920227794
272,617.4556688053475
273,617.4183041045419
274,617.3835241878389
275,617.3516193809724
276,617.3228316211158
277,617.2973420210576
278,617.2752593142561
279,617.2566101057657
280,617.2413318246971
281,617.229269119781
282,617.2201742236552
283,617.2137116234388
284,617.209467216863
285,617.2069619181589
286,617.2056693426143
287,617.205036798432
288,617.2045084837214
289,617.2035496030159
290,617.2016700475912
291,617.1984462732134
292,617.1935400743952
293,617.1867131463933
294,617.1778366482496
295,617.1668953796893
296,617.1539865841137
297,617.1393137066981
298,617.1231756368949
299,617.1059520998099
300,617.0880859919858
301,617.0700635788088
302,617.0523935503509
303,617.0355859613603
304,617.0201320689769
305,617.0064860314916
306,616.9950493086772
307,616.9861583616125
308,616.9800759272955
309,616.9769858826473
310,616.9769916164054
311,616.9801178365816
312,616.9863156843045
313,616.9954707981684
314,617.0074136658899
315,617.0219314033053
316,617.0387800940122
317,617.0576969178143
318,617.0784113854128
319,617.1006550635237
320,617.1241692422743
321,617.1487100680131
322,617.1740507591809
323,617.1999807220449
324,617.2263017561542
325,617.2528220140487
326,617.2793487517675
327,617.3056810160654
328,617.33160327765
329,617.356880767454
330,617.381257007346
331,617.4044537778719
332,617.4261735226373
333,617.4461039369015
334,617.4639242661175
335,617.4793127553198
336,617.4919548006823
337,617.501551553535
338,617.5078288178959
339,617.5105459877219
340,617.5095046111765
341,617.5045561070359
342,617.4956082262848
343,617.4826299935562
344,617.4656550267489
345,617.444783260375
346,617.4201811321344
347,617.3920802603154
348,617.3607746374519
349,617.3266164327136
350,617.2900105682263
351,617.2514082247465
352,617.2112993305019
353,617.1702039941887
354,617.1286628757881
355,617.0872266386476
356,617.0464447581518
357,617.0068539782143
358,616.9689666525045
359,616.9332591787985
360,616.9001607421812
361,616.8700425799341
362,616.8432079917999
363,616.8198834213183
364,616.8002111029848
365,616.7842438605115
366,616.7719425617847
367,616.7631765468086
368,616.7577271507449
369,616.7552942745185
370,616.7555057838509
371,616.757929338957
372,616.762086121057
373,616.767465888684
374,616.7735428339083
375,616.7797916821415
376,616.7857033256773
377,616.7907991230792
378,616.794643012183
379,616.79685080654
380,616.7970963358271
381,616.79511431459
382,616.7907000081759
383,616.7837060317393
384,616.7740369652273
385,616.7616427113012
386,616.7465115048458
387,616.7286632485624
388,616.708143566751
389,616.6850187383001
390,616.6593714956556
391,616.6312975555097
392,616.6009027028892
393,616.5683003194583
394,616.5336094155309
395,616.4969533735813
396,616.4584596050064
397,616.4182601752974
398,616.3764933109699
399,616.3333056598121
400,616.2888551842373
401,616.2433145291078
402,616.1968746186674
403,616.1497482007973
404,616.102173140311
405,616.0544154063592
406,616.0067717678295
407,615.9595721397219
408,615.9131813780363
409,615.8680002144966
410,615.8244650011279
411,615.783045969675
412,615.7442437854262
413,615.7085843001846
414,615.6766115524374
415,615.6488791449929
416,615.6259401192927
417,615.6083354134461
418,615.5965810484442
419,615.5911543540531
420,615.5924797131912
421,615.6009143446317
422,615.6167345535799
423,615.640122791247
424,615.67115591697
425,615.7097952318136
426,615.7558789841765
427,615.8091180139688
428,615.8690950341195
429,615.9352678280183
430,616.0069764059464
431,616.0834539389139
432,616.1638411049424
433,616.2472033326566
434,616.3325502831573
435,616.4188567936235
436,616.5050844756526
437,616.5902032500601
438,616.6732122822175
439,616.7531599928867
440,616.8291629623985
441,616.9004235317929
442,616.9662457426756
443,617.0260490677833
444,617.0793792868553
445,617.1259159005974
446,617.1654756251418
447,617.1980117082302
448,617.2236090090532
449,617.2424749947369
450,617.2549270383789
451,617.2613766154919
452,617.2623111473063
453,617.2582743370277
454,617.2498459015798
455,617.2376215962892
456,617.2221943364657
457,617.2041370525662
458,617.1839877266215
459,617.1622368871451
460,617.1393177074729
461,617.1155987768265
462,617.0913795855806
463,617.0668887338225
464,617.0422847947248
465,617.0176596527701
466,616.9930440220324
467,616.9684147504121
468,616.9437034542325
469,616.9188060367686
470,616.8935927264021
471,616.8679183626008
472,616.8416326813934
473,616.8145902976412
474,616.7866600094737
475,616.7577330085819
476,616.727729587365
477,616.6966040180632
478,616.6643474361158
479,616.630988704835
480,616.5965932947807
481,616.5612602239781
482,616.5251171818692
483,616.4883141252144
484,616.4510158089864
485,616.41339382145
486,616.3756187137257
487,616.3378527680155
488,616.3002438643848
489,616.2629208163912
490,616.2259904514489
491,616.1895365763597
492,616.1536207851266
493,616.1182848881975
494,616.0835546212178
495,616.0494442214062
496,616.0159614002253
497,615.9831121793978
498,615.9509050375024
499,615.9193538901665
500,615.8884795914645
501,615.8583098259836
502,615.8288773893688
503,615.8002169275379
504,615.7723602895845
505,615.7453307991757
506,615.7191369187967
507,615.6937658757807
508,615.6691778105969
509,615.6453009418332
510,615.6220281443833
511,615.5992151973543
512,615.5766808065291
513,615.5542084156314
514,615.5315498130958
515,615.5084305532257
516,615.4845571624306
517,615.4596259668143
518,615.4333331995001
519,615.4053859113939
520,615.3755131881554
521,615.3434772423379
522,615.3090839836331
523,615.272192606179
524,615.232723656371
525,615.190665074016
526,615.1460758284059
527,615.0990869319807
528,615.0498998086667
529,614.9987822452381
530,614.9460623833571
531,614.8921212749289
532,614.8373843948151
533,614.782312318573
534,614.7273906710906
535,614.673119453143
536,614.6200019097458
537,614.5685331891821
538,614.5191891217531
539,614.4724154656149
540,614.4286179014003
541,614.3881529447051
542,614.3513198447205
543,614.3183535071039
544,614.289418538164
545,614.2646045756294
546,614.2439230442627
547,614.2273053789082
548,614.2146027192546
549,614.2055871456317
550,614.1999546146337
551,614.1973297599687
552,614.1972725933996
553,614.1992869207129
554,614.2028301091239
555,614.2073237989753
556,614.2121652236577
557,614.2167389045529
558,614.2204285516194
559,614.2226290004285
560,614.2227579807216
561,614.2202674916529
562,614.2146545917608
563,614.2054715026237
564,614.192335040994
565,614.1749354687624
566,614.1530448260613
567,614.1265246893763
568,614.095333120924
569,614.0595303991361
570,614.0192829931476
571,613.9748652200851
572,613.9266581047973
573,613.8751450679102
574,613.8209041303504
575,613.764596382205
576,613.7069506244454
577,613.648744389071
578,613.5907819155022
579,613.5338700252172
580,613.4787931175381
581,613.4262886238077
582,613.377024157903
583,613.3315773342978
584,613.2904189040985
585,613.2538996076062
586,613.2222410371369
587,613.1955308097123
588,613.1737223255644
589,613.1566392378555
590,613.1439845322501
591,613.1353539108732
592,613.130252987375
593,613.128117557943
594,613.1283359438573
595,613.1302722297407
596,613.1332892116167
597,613.1367699602677
598,613.1401370292692
599,613.1428685113879
600,613.1445104192023
601,613.1446852157108
602,613.1430966610587
603,613.1395313804621
604,613.133857647526
605,613.1260218345209
606,613.1160428865625
607,613.1040051319778
608,613.0900498054459
609,613.0743658055205
610,613.0571803482088
611,613.0387502338156
612,613.0193543587662
613,612.9992878513801
614,612.9788578495081
615,612.9583806297128
616,612.9381796860346
617,612.9185844101945
618,612.8999290631543
619,612.8825516411162
620,612.8667921157091
621,612.8529895123135
622,612.841477404879
623,612.832577576961
624,612.8265917824148
625,612.8237917329274
626,612.8244076155033
627,612.8286155779232
628,612.8365247635695
629,612.8481646655869
630,612.8634737166966
631,612.8822900183993
632,612.9043449651504
633,612.9292603755837
634,612.9565496724312
635,612.9856235609784
636,613.015800410952
637,613.0463211428222
638,613.0763679842827
639,613.1050861420068
640,613.1316072971475
641,613.1550738763576
642,613.1746632361516
643,613.1896111463459
644,613.1992341480919
645,613.202950419071
646,613.2002987136468
647,613.1909547957944
648,613.1747445899612
649,613.1516531355627
650,613.1218284618325
651,613.0855797266051
652,613.0433693051721
653,612.995798897218
654,612.9435901241085
655,612.8875604986667
656,612.8285959873361
657,612.7676215499359
658,612.7055710319031
659,612.6433577345197
660,612.5818470170555
661,612.5218323016796
662,612.4640156501375
663,612.4089936242449
664,612.3572486391536
665,612.3091456735717
666,612.2649340167018
667,612.2247535992245
668,612.1886453171796
669,612.1565646153385
670,612.1283974656997
671,612.1039777875044
672,612.0831053418053
673,612.0655631937528
674,612.0511339442563
675,612.039614079947
676,612.030825968454
677,612.0246272104728
678,612.0209172139539
679,612.0196409254814
680,612.0207896265782
681,612.0243986802084
682,612.0305422173086
683,612.0393249702688
684,612.050871669034
685,612.0653145296396
686,612.0827793962414
687,612.1033711214401
688,612.1271588447167
689,612.1541619464081
690,612.1843375549698
691,612.2175704960207
692,612.2536664501108
693,612.2923488544857
694,612.3332598179234
695,612.375965096006
696,612.41996302661
697,612.4646972171657
698,612.5095726538252
699,612.553974736172
700,612.597290512697
701,612.6389311304886
702,612.6783543232267
703,612.71508574853
704,612.7487381454745
705,612.7790275176037
706,612.8057857529798
707,612.8289692294406
708,612.848663050761
709,612.865080671653
710,612.878558816021
711,612.8895477593497
712,612.898597222401
713,612.9063383068473
714,612.9134620709267
715,612.920695468311
716,612.9287754745794
717,612.9384223405223
718,612.9503130255044
719,612.9650559193861
720,612.9831679317444
721,613.00505494481
722,613.0309965111588
723,613.0611354634467
724,613.0954727335089
725,613.1338672620114
726,613.1760406157833
727,613.221585859042
728,613.2699802140866
729,613.3206009848012
730,613.3727440907246
731,613.4256444080593
732,613.4784969934093
733,613.5304782372258
734,613.5807660985668
735,613.6285588019864
736,613.6730916517747
737,613.7136518412748
738,613.7495912583956
739,613.7803373082089
740,613.8054017267003
741,613.8243873333714
742,613.8369927101534
743,613.843014840735
744,613.842349747477
745,613.8349911771872
746,613.8210274776228
747,613.8006369384493
748,613.7740819415764
749,613.7417022019094
750,613.703907199559
751,613.6611677361909
752,613.6140065308117
753,613.5629879115518
754,613.5087068468696
755,613.4517776920356
756,613.3928230737946
757,613.3324633079257
758,613.27130666815
759,613.209940722238
760,613.1489248334472
761,613.0887838193971
762,613.030002700966
763,612.9730224546109
764,612.9182366605348
765,612.8659889134448
766,612.8165708964968
767,612.7702211568954
768,612.7271247937131
769,612.6874143330239
770,612.6511719512388
771,612.6184329853343
772,612.589190482738
773,612.5634004935715
774,612.5409878850126
775,612.5218525586984
776,612.505875961459
777,612.4929276749019
778,612.4828717239338
779,612.4755721206742
780,612.4708970942984
781,612.4687215301316
782,612.4689274162665
783,612.4714024710141
784,612.4760373742753
785,612.4827220414007
786,612.4913412763473
787,612.5017700880614
788,612.5138689730693
789,612.5274794716876
790,612.5424202429886
791,612.5584838242899
792,612.5754342436576
793,612.5930057763934
794,612.6109033008959
795,612.6288047843918
796,612.6463663397441
797,612.6632300737546
798,612.6790346853671
799,612.6934285194089
800,612.7060845239549
801,612.7167162898376
802,612.7250941211668
803,612.7310599748824
804,612.734540159661
805,612.735554877291
806,612.734223954625
807,612.7307683860878
808,612.7255075420042
809,612.718852081596
810,612.7112927756826
811,612.7033856558768
812,612.6957341867678
813,612.688969450403
814,612.6837295418554
815,612.6806394359164
816,612.6802924932883
817,612.6832345483386
818,612.6899511964244
819,612.7008585738472
820,612.7162977131072
821,612.7365324720608
822,612.7617509504092
823,612.7920700821217
824,612.827542739254
825,612.8681663706876
826,612.9138920994095
827,612.964633337609
828,613.0202732403324
829,613.0806706037271
830,613.145664096748
831,613.2150749613431
832,613.2887084437072
833,613.3663542068522
834,613.4477859178828
835,613.5327602077705
836,613.621015280931
837,613.7122695439383
838,613.8062206478988
839,613.9025452501066
840,614.0008996323968
841,614.100921164753
842,614.2022305147023
843,614.3044344215126
844,614.4071287639919
845,614.5099016467162
846,614.6123363800073
847,614.7140144423659
848,614.8145186147967
849,614.9134363965834
850,615.010363667182
851,615.1049085240395
852,615.1966953460612
853,615.2853692715462
854,615.3706012742036
855,615.4520938549384
856,615.5295871646359
857,615.602865259965
858,615.6717621967174
859,615.7361677100846
860,615.7960322314354
861,615.8513709455168
862,615.9022665777173
863,615.9488706686543
864,615.9914032162461
865,616.0301506873242
866,616.0654624789124
867,616.0977459161187
868,616.1274598128888
869,616.1551065429619
870,616.1812225344743
871,616.2063671594285
872,616.2311101566664
873,616.2560179553878
874,616.2816394418667
875,616.3084917628169
876,616.3370467244697
877,616.3677182919345
878,616.4008516148867
879,616.4367138760359
880,616.4754871089713
881,616.5172630269653
882,616.5620398699111
883,616.6097212769076
884,616.6601171601739
885,616.7129464572856
886,616.7678415295823
887,616.8243539628381
888,616.8819616396266
889,616.9400770982301
890,616.9980572868305
891,617.055214877074
892,617.1108313206742
893,617.1641717271201
894,617.2145013610625
895,617.2611032231557
896,617.3032959719603
897,617.3404514420074
898,617.3720111354392
899,617.3975011656513
900,617.4165451500251
901,617.4288745685305
902,617.4343362154076
903,617.4328965484225
904,617.4246429193994
905,617.4097818341736
906,617.3886345376502
907,617.3616303059296
908,617.3292977900504
909,617.2922545929334
910,617.2511950599138
911,617.2068761414134
912,617.160101220672
913,617.1117019950441
914,617.06251879605
915,617.0133800446686
916,616.9650817805992
917,616.9183682935079
