acceleration,velocity,displacement
-0.014807553691552615,0.0,0.0
-0.015224968824047514,-7.5081306289000325e-06,-1.8770326572250083e-09
-0.015660805045184807,-1.5229574096208114e-05,-7.561458838502044e-09
-0.01611422579520899,-2.317333180630656e-05,-1.7162185314130713e-08
-0.016584324192051737,-3.1347969303121745e-05,-3.079251059148779e-08
-0.017070125174068675,-3.976158164465185e-05,-4.8569898328431193e-08
-0.01757058800671352,-4.84217599398474e-05,-7.0615733724556e-08
-0.018084609141292486,-5.73355592268489e-05,-9.705506351623009e-08
-0.0186110254083127,-6.65094678642502e-05,-1.2801632028900486e-07
-0.019148617523961322,-7.594937859731871e-05,-1.636310319043971e-07
-0.019696113886554848,-8.566056144994775e-05,-2.040335169162137e-07
-0.020252194640212343,-9.564763858163954e-05,-2.493605669241105e-07
-0.020815495984414154,-0.00010591456123779616,-2.997511168789694e-07
-0.021384614709509964,-0.0001164645889112772,-3.5534590441623774e-07
-0.02195811293888048,-0.0001273002708233748,-4.1628711934990074e-07
-0.022534523058039206,-0.0001384234298226047,-4.827180445113956e-07
-0.02311235280901917,-0.0001498351487893693,-5.54782689164389e-07
-0.023690090525389423,-0.00016153575962297144,-6.326254162674742e-07
-0.024266210479792053,-0.0001735248348742668,-7.163905648917838e-07
-0.0248391783132812,-0.00018580118207253511,-8.062220691284843e-07
-0.025407456515539266,-0.00019836284077974023,-9.022630748415532e-07
-0.025969509927647565,-0.00021120708239053695,-1.0046555556341224e-06
-0.026523811243071054,-0.0002243304126832166,-1.1135399294025608e-06
-0.027068846486047047,-0.00023772857711549614,-1.229054676852239e-06
-0.027603120449032226,-0.00025139656884926595,-1.3513359633434295e-06
-0.028125162072557674,-0.00026532863947966345,-1.480517265425662e-06
-0.028633529752343474,-0.00027951831243588877,-1.61672900340455e-06
-0.02912681655867642,-0.0002939583990136437,-1.760098181266933e-06
-0.029603655351004326,-0.0003086410169910639,-1.91074803526811e-06
-0.030062723766522408,-0.0003235576117704456,-2.0687976924584876e-06
-0.03050274905712862,-0.0003386989799763583,-2.2343618403951885e-06
-0.03092251274631652,-0.0003540552954272196,-2.407550409246083e-06
-0.03132085507676367,-0.00036961613738298966,-2.5884682674486353e-06
-0.03169667921994713,-0.0003853705209571674,-2.7772149320336745e-06
-0.032048955219931854,-0.0004013069295671371,-2.9738842946647506e-06
-0.03237672364417993,-0.00041741334928316505,-3.1785643643773263e-06
-0.032679098915321274,-0.00043367730492304036,-3.3913370279288777e-06
-0.03295527230002515,-0.00045008589772687696,-3.612277828591357e-06
-0.03320451453424909,-0.00046662584443544553,-3.841455764131938e-06
-0.03342617806727777,-0.00048328351758582727,-4.078933104637256e-06
-0.033619698910702545,-0.0005000449868303224,-4.3247652307412935e-06
-0.03378459808388254,-0.0005168960610789687,-4.579000492718616e-06
-0.03392048265477099,-0.0005338223312636321,-4.841680090804266e-06
-0.03402704638255728,-0.0005508092135229642,-5.112837977000915e-06
-0.03410406997421176,-0.0005678419926121565,-5.392500778534695e-06
-0.03415142097014856,-0.0005849058653482465,-5.680687743024796e-06
-0.03416905327582689,-0.0006019859839097404,-5.9774107053392925e-06
-0.034157006356749856,-0.0006190674988178846,-6.282674076021199e-06
-0.03411540411368295,-0.0006361356014354928,-6.596474851084544e-06
-0.034044453452487904,-0.0006531755658270355,-6.9188026429001756e-06
-0.033944442560110734,-0.0006701727898301851,-7.249639731814481e-06
-0.033815738897068154,-0.0006871128351944798,-7.588961138070648e-06
-0.03365878691829517,-0.0007039814666483206,-7.936734713531347e-06
-0.03347410553771745,-0.0007207646897623237,-8.292921252634008e-06
-0.03326228535648655,-0.0007374487874858747,-8.657474621946058e-06
-0.03302398567942991,-0.0007540203552448538,-9.03034190762874e-06
-0.032759931348100034,-0.0007704663345017363,-9.411463580065388e-06
-0.03247090942001228,-0.0007867740446937644,-9.800773674864264e-06
-0.03215776572186205,-0.000802931213479233,-1.0198199989407513e-05
-0.03182140129981863,-0.0008189260052346532,-1.0603664294085983e-05
-0.03146276878342297,-0.0008347470477554636,-1.1017082557333513e-05
-0.031082868673370446,-0.0008503834571196619,-1.1438365183552293e-05
-0.030682745560204575,-0.0008658248606780557,-1.1867417263001723e-05
-0.030263484281135903,-0.0008810614181383908,-1.2304138832705836e-05
-0.02982620602405118,-0.0008960838407146876,-1.2748425147419105e-05
-0.029372064390037995,-0.0009108834083182099,-1.320016695967733e-05
-0.028902241427588432,-0.0009254519847726165,-1.3659250807950035e-05
-0.028417943652473892,-0.0009397820310426321,-1.4125559311903847e-05
-0.027920398066253835,-0.0009538666164723141,-1.4598971473782584e-05
-0.02741084818413016,-0.0009676994280349101,-1.507936298490939e-05
-0.02689055008066779,-0.0009812747776011094,-1.5566606536318396e-05
-0.026360768460517787,-0.0009945876072364058,-1.6060572132527775e-05
-0.02582277276046874,-0.0010076334925416524,-1.6561127407472287e-05
-0.025277833288792084,-0.0010204086440539677,-1.7068137941621192e-05
-0.02472721740812563,-0.0010329099067281971,-1.7581467579316733e-05
-0.024172185769183688,-0.0010451347575225244,-1.8100978745379413e-05
-0.02361398860424308,-0.001057081301115881,-1.8626532760039014e-05
-0.023053862090604865,-0.001068748263789593,-1.915799015126538e-05
-0.022493024794318167,-0.0010801349855108237,-1.9695210963590486e-05
-0.02193267420436955,-0.0010912414102604957,-2.0238055062533317e-05
-0.021373983368272176,-0.0011020680746536562,-2.0786382433761854e-05
-0.020818097641065705,-0.0011126160949059907,-2.1340053476151766e-05
-0.020266131559897038,-0.0011228871522062315,-2.189892928792982e-05
-0.019719165854879254,-0.0011328834765599255,-2.246287194512136e-05
-0.0191782446045357,-0.0011426078291747793,-2.3031744771555036e-05
-0.018644372541601367,-0.0011520634834613136,-2.360541259971406e-05
-0.018118512513107907,-0.0011612542047249909,-2.4183742021760637e-05
-0.017601583097647415,-0.0011701842286276796,-2.4766601630098804e-05
-0.017094456382328226,-0.0011788582384976735,-2.5353862246880144e-05
-0.016597955901851005,-0.0011872813415687183,-2.594539714189674e-05
-0.016112854743262402,-0.0011954590442299967,-2.6541082238346418e-05
-0.01563987382191587,-0.0012033972263712912,-2.714079630599674e-05
-0.015179680336114382,-0.0012111021149107987,-2.774442114131726e-05
-0.014732886408524918,-0.0012185802565969584,-2.83518417341942e-05
-0.014300047921604208,-0.0012258384901794907,-2.8962946420888313e-05
-0.01388166355276801,-0.0012328839180480837,-2.9577627022945208e-05
-0.013478174013829225,-0.001239723877439733,-3.0195778971817163e-05
-0.013089961498426847,-0.001246365911317797,-3.081730141900655e-05
-0.012717349340107419,-0.0012528177390274307,-3.1442097331592853e-05
-0.0123606018813738,-0.001259087226832801,-3.2070073573057914e-05
-0.012019924551149981,-0.0012651823584409318,-3.270114096937635e-05
-0.011695464146075089,-0.001271111205615238,-3.333521436039039e-05
-0.011387309310024574,-0.0012768818989792629,-3.397221263653902e-05
-0.01109549120509866,-0.0012825025991080436,-3.461205876106084e-05
-0.010819984364846326,-0.00128798146800053,-3.525467977783799e-05
-0.010560707718054155,-0.001293326641021255,-3.5900006805093434e-05
-0.010317525770906298,-0.001298546199393495,-3.654797501519712e-05
-0.010090249937562008,-0.001303648143320612,-3.719852360087565e-05
-0.009878640013150673,-0.0013086403658082901,-3.785159572815787e-05
-0.00968240578738218,-0.0013135306272584234,-3.850713847642455e-05
-0.009501208800017506,-0.0013183265309052734,-3.916510276596547e-05
-0.00933466424001434,-0.0013230354991652813,-3.982544327348311e-05
-0.009182342987196992,-0.001327664750972084,-4.0488118336017454e-05
-0.0090437737897521,-0.0013322212801663213,-4.115308984380205e-05
-0.00891844556543065,-0.0013367118350051171,-4.1820323122594913e-05
-0.008805809811546703,-0.0013411428988493615,-4.248978680605853e-05
-0.008705283109170823,-0.001345520672079541,-4.3161452698790755e-05
-0.008616249709121903,-0.001349851055284114,-4.383529563063167e-05
-0.008538064190219883,-0.0013541396337589495,-4.451129330289244e-05
-0.008470054183390486,-0.001358391663352352,-4.518942612717026e-05
-0.008411523157324526,-0.0013626120576875308,-4.586967705743023e-05
-0.008361753261555494,-0.0013668053767922508,-4.655203141605018e-05
-0.008320008220611623,-0.0013709758171627927,-4.723647671453894e-05
-0.008285536270023382,-0.0013751272032854515,-4.7923002469651e-05
-0.008257573122112208,-0.0013792629806334855,-4.861160001563073e-05
-0.008235344946772085,-0.0013833862101507066,-4.9302262313326784e-05
-0.008218071349784861,-0.0013874995642248458,-4.9994983756920675e-05
-0.008204968329078783,-0.0013916053241445616,-5.0689759979013025e-05
-0.00819525118838426,-0.0013957053790239274,-5.138658765480515e-05
-0.00818813738742789,-0.0013998012261678804,-5.20854643061031e-05
-0.008182849307981313,-0.0014038939728417328,-5.2786388105855504e-05
-0.008178616916053053,-0.0014079843393977414,-5.348935768391537e-05
-0.008174680303254635,-0.0014120726637025683,-5.4194371934690454e-05
-0.008170292095174468,-0.0014161589068021755,-5.490142982731664e-05
-0.008164719720379446,-0.001420242659756064,-5.5610530218956195e-05
-0.008157247538944182,-0.0014243231515708948,-5.6321671671787936e-05
-0.00814717883325634,-0.001428399258163945,-5.7034852274221645e-05
-0.008133837666242285,-0.0014324695122888197,-5.775006946683484e-05
-0.008116570613251885,-0.0014365321143586932,-5.846731987349672e-05
-0.008094748374065739,-0.0014405849441055227,-5.918659913811277e-05
-0.0080677672712474,-0.001444625573016851,-5.9907901767393363e-05
-0.008035050640560173,-0.0014486512774948028,-6.063122098002128e-05
-0.007996050118270598,-0.0014526590526845104,-6.135654856256611e-05
-0.007950246828508688,-0.0014566456269212052,-6.208387473246754e-05
-0.007897152470969039,-0.0014606074767460745,-6.281318800838436e-05
-0.0078363103055927,-0.0014645408424402149,-6.354447508818093e-05
-0.007767296027468003,-0.00146844174402348,-6.427772073479684e-05
-0.007689718522778425,-0.0014723059976610416,-6.501290767021798e-05
-0.007603220494989823,-0.0014761292324154836,-6.575001647773712e-05
-0.007507478949698564,-0.0014799069072766557,-6.648902551266015e-05
-0.0074022055273256625,-0.0014836343283959118,-6.722991082157829e-05
-0.007287146674656885,-0.0014873066664464075,-6.797264607028887e-05
-0.007162083648552055,-0.0014909189740272097,-6.871720248040728e-05
-0.007026832347680002,-0.0014944662030262677,-6.946354877467065e-05
-0.006881242971197115,-0.001497943221855987,-7.021165113089121e-05
-0.006725199506513657,-0.0015013448324754147,-7.096147314447407e-05
-0.006558619051018814,-0.001504665787114798,-7.171297579937162e-05
-0.006381450974207795,-0.0015079008046211045,-7.24661174473056e-05
-0.0061936759261730255,-0.0015110445863461997,-7.322085379504743e-05
-0.005995304696968514,-0.001514091831501985,-7.397713789950948e-05
-0.005786376931586243,-0.0015170372519091237,-7.473492017036226e-05
-0.005566959708594694,-0.0015198755860691688,-7.549414837985684e-05
-0.0053371459952827605,-0.001522601612495138,-7.625476767949792e-05
-0.005097052996668609,-0.001525210162243126,-7.701672062318249e-05
-0.0048468204191926476,-0.0015276961305970913,-7.777994719639254e-05
-0.004586608672190027,-0.001530054487869937,-7.85443848510093e-05
-0.004316597030657876,-0.001532280289295649,-7.930996854530069e-05
-0.004036981781551397,-0.0015343686839987014,-8.007663078862428e-05
-0.003747974373950308,-0.0015363149230375767,-8.084430169038336e-05
-0.003449799591528181,-0.0015381143665289462,-8.161290901277498e-05
-0.0031426937641432064,-0.001539762489867864,-8.238237822687419e-05
-0.002826903033727801,-0.0015412548890673318,-8.315263257160799e-05
-0.0025026816877310384,-0.0015425872852476966,-8.392359311518674e-05
-0.0021702905705524435,-0.0015437555283122674,-8.469517881857673e-05
-0.0018299955799207387,-0.0015447555998498856,-8.546730660061726e-05
-0.0014820662522000772,-0.0015455836153079158,-8.623989140440671e-05
-0.0011267744390248615,-0.0015462358254807222,-8.701284626460387e-05
-0.0007643930771811276,-0.0015467086173597737,-8.7786082375314e-05
-0.0003951950538298021,-0.0015469985143925264,-8.855950915825208e-05
-1.9452170193081887e-05,-0.0015471021761985322,-8.933303433089984e-05
0.0003625657914884429,-0.0015470163977932083,-9.010656397439778e-05
0.0007505918911434466,-0.0015467381083725503,-9.088000260093921e-05
0.0011443627363259088,-0.0015462643697156829,-9.165325322046127e-05
0.001543619061572788,-0.0015455923742662082,-9.242621740645674e-05
0.001948106173672937,-0.0015447194429573968,-9.319879536076264e-05
0.0023575742558665205,-0.001543643022850012,-9.39708859772145e-05
0.0027717785249278645,-0.0015423606846548133,-9.47423869040907e-05
0.0031904792354664436,-0.0015408701202147147,-9.551319460530808e-05
0.003613441526549721,-0.0015391691400242107,-9.628320442036781e-05
0.004040435107474124,-0.0015372556708657047,-9.70523106230903e-05
0.004471233781153385,-0.0015351277536435478,-9.782040647921762e-05
0.004905614803754513,-0.0015327835414973207,-9.858738430300283e-05
0.005343358078989125,-0.0015302212982766347,-9.935313551294632e-05
0.005784245187297144,-0.0015274393974600631,-0.0001001175506868805
0.0062280582551901085,-0.0015244363215994414,-0.00010088051961664538
0.006674578676158833,-0.0015212106623666041,-0.00010164193136263689
0.007123585699571344,-0.0015177611212726717,-0.0001024016743085467
0.007574854907685417,-0.0015140865111208574,-0.00010315963621664509
0.008028156604296366,-0.001510185758242862,-0.00010391570428398601
0.008483254142316958,-0.0015060579055562087,-0.00010466976519993577
0.008939902221657539,-0.001501702116465215,-0.00010542170520544113
0.00939784519196263,-0.00149711767961181,-0.00010617141015446039
0.009856815396075734,-0.0014923040144648005,-0.00010691876557797953
0.010316531588837457,-0.0014872606777185722,-0.00010766365675102538
0.010776697461973449,-0.0014819873704558695,-0.000108405968763069
0.011237000300156142,-0.001476483946015337,-0.0001091455865921868
0.011697109786940597,-0.0014707504184935628,-0.00010988239518331403
0.012156676973397843,-0.0014647869718034782,-0.00011061627953088829
0.012615333418657414,-0.0014585939692054644,-0.00011134712476614052
0.013072690510273531,-0.0014521719632232316,-0.0001120748162492477
0.013528338972425172,-0.001445521705852557,-0.00011279923966651664
0.0139818485707529,-0.0014386441589667625,-0.00011352028113272147
0.014432768023330041,-0.0014315405048182417,-0.00011423782729866772
0.014880625126799052,-0.0014242121565307094,-0.00011495176546400496
0.015324927104141739,-0.0014166607684729742,-0.00011566198369525588
0.01576516117691324,-0.0014088882464027104,-0.0001163683709489748
0.01620079536146756,-0.0014008967572681152,-0.00011707081719989252
0.01663127948613837,-0.0013926887385562138,-0.00011776921357384859
0.01705604642374971,-0.0013842669070787419,-0.00011846345248525733
0.017474513531026383,-0.001375634267090048,-0.00011915342777879953
0.01788608428426476,-0.0013667941176362251,-0.00011983903487498109
0.018290150099072106,-0.0013577500590403909,-0.00012052017091915024
0.018686092320571168,-0.00134850599843548,-0.00012119673493351922
0.019073284368974135,-0.0013390661542630937,-0.00012186862797169386
0.01945109402470075,-0.001329435059664675,-0.0001225357532751758
0.01981888583789752,-0.0013196175646990255,-0.00012319801643126673
0.020176023649315818,-0.0013096188373272221,-0.0001238553255317733
0.020521873212615078,-0.0012994443631117393,-0.00012450759133188306
0.020855804911767254,-0.0012890999435806437,-0.00012515472740855615
0.02117719656972831,-0.0012785916932102697,-0.00012579665031775387
0.021485436344388823,-0.0012679260349817403,-0.00012643327974980187
0.021779925704643845,-0.001257109694469482,-0.00012706453868216469
0.02206008247446248,-0.0012461496924247055,-0.00012769035352888823
0.02232534392709105,-0.001235053335824317,-0.00012831065428595047
0.02257516990584021,-0.001223828207366084,-0.00012892537467174808
0.022809045943133228,-0.0012124821534038408,-0.00012953445226194057
0.02302648634600946,-0.0012010232703315552,-0.0001301378286178744
0.023227037213953746,-0.0011894598894415644,-0.0001307354494078177
0.02341027935447199,-0.001177800560299458,-0.00013132726452025296
0.023575831064586984,-0.0011660540326946932,-0.0001319132281685015
0.023723350752197125,-0.001154229237240497,-0.0001324932989859853
0.023852539377973374,-0.0011423352647079545,-0.00013306744011147242
0.023963142704212997,-0.001130381344187408,-0.00013363561926369626
0.024054953341528792,-0.0011183768201759724,-0.0001341978088047871
0.024127812586887055,-0.0011063311286938684,-0.00013475398579200457
0.02418161204679699,-0.0010942537725354474,-0.0001353041320173119
0.024216295038193215,-0.0010821542957642,-0.0001358482340343868
0.02423185775806911,-0.0010700422575651344,-0.00013638628317271914
0.024228350212298334,-0.0010579272055725425,-0.00013691827553850356
0.024205876894193866,-0.0010458186487959193,-0.00013744421200209567
0.0241645972042442,-0.0010337260302713098,-0.00013796409817186248
0.024104725604292106,-0.0010216586995691757,-0.0001384779443543226
0.02402653150164858,-0.0010096258852926906,-0.00013898576550053806
0.02393033886062523,-0.0009976366677021222,-0.00013948758113878677
0.023816525540663474,-0.0009856999516018,-0.00013998341529361275
0.023685522361873105,-0.0009738244396261659,-0.00014047329639141974
0.023537811900623682,-0.0009620186060605416,-0.00014095725715284143
0.02337392701975942,-0.0009502906713304459,-0.00014143533447218918
0.02319444914061184,-0.000938648577290353,-0.0001419075692843444
0.02300000626800335,-0.0009270999634381993,-0.00014237400641952652
0.022791270784399728,-0.0009156521441750985,-0.00014283469444642985
0.02256895703366712,-0.0009043120872205818,-0.00014328968550427878
0.0223338187166549,-0.0008930863932830013,-0.00014373903512440467
0.02208664611975116,-0.0008819812770738997,-0.0001441828020419939
0.021828263194678645,-0.0008710025497452923,-0.0001446210479986987
0.02155952450443537,-0.0008601556028205138,-0.00014505383753684017
0.021281312047559054,-0.0008494453936825152,-0.00014548123778596592
0.02099453197168959,-0.000838876432677703,-0.00014590331824255597
0.020700111187667694,-0.0008284527718878637,-0.00014632015054369735
0.020398993895677824,-0.0008181779956170273,-0.00014673180823557356
0.020092138034288085,-0.0008080552126345359,-0.00014713836653763645
0.019780511662624935,-0.0007980870502103076,-0.00014753990210334767
0.019465089287575923,-0.0007882756499727574,-0.00014793649277839344
0.019146848151952448,-0.0007786226656128753,-0.00014832821735728983
0.018826764504294106,-0.0007691292624488137,-0.00014871515533930525
0.018505809874593517,-0.0007597961188540918,-0.00014909738668463098
0.01818494738179268,-0.0007506234295399952,-0.0001494749915717295
0.01786512809931102,-0.0007416109106697193,-0.00014984805015678195
0.017547287504935748,-0.0007327578067686576,-0.00015021664233614155
0.01723234204124779,-0.0007240628993821118,-0.00015058084751267924
0.01692118581138134,-0.0007155245174189545,-0.0001509407443668795
0.016614687431730574,-0.0007071405491081766,-0.00015129641063351128
0.016313687059143985,-0.0006989084554854579,-0.00015164792288465968
0.016018993606479195,-0.0006908252853190521,-0.0001519953563198608
0.015731382157213675,-0.0006828876913781289,-0.0001523387845640351
0.015451591585759202,-0.0006750919479423857,-0.00015267827947386522
0.015180322384551229,-0.000667433969449808,-0.00015301391095321327
0.014918234692472217,-0.0006599093301805521,-0.00015334574677812086
0.014665946513750661,-0.0006525132848789964,-0.00015367385243188574
0.014424032113189713,-0.0006452407902222614,-0.00015399829095066105
0.014193020571976293,-0.0006380865270509699,-0.00015431912277997936
0.013973394487646541,-0.0006310449232860641,-0.00015463640564256363
0.013765588802228662,-0.0006241101774635953,-0.00015495019441775105
0.013569989744941861,-0.0006172762828268027,-0.00015526054103282366
0.013386933879988112,-0.0006105370519205702,-0.0001555674943665105
