frame_number,force
0,615.28057312875
1,615.2596748208148
2,615.2381788204669
3,615.216122880962
4,615.1935466873492
5,615.1704917661917
6,615.1470013878866
7,615.123120461904
8,615.0988954253409
9,615.0743741252448
10,615.0496056951926
11,615.0246404266053
12,614.9995296352805
13,614.9743255236003
14,614.9490810388777
15,614.9238497283114
16,614.8986855910476
17,614.873642927888
18,614.8487761892299
19,614.8241398218585
20,614.7997881152133
21,614.7757750477223
22,614.7521541337435
23,614.7289782716113
24,614.7062995932496
25,614.6841693157925
26,614.662637595628
27,614.6417533852788
28,614.6215642935512
29,614.602116449432
30,614.5834543702608
31,614.5656208347336
32,614.548656761296
33,614.5326010924706
34,614.5174906856422
35,614.5033602108077
36,614.4902420557748
37,614.478166239253
38,614.4671603322339
39,614.4572493880039
40,614.4484558810774
41,614.440799655257
42,614.4342978809243
43,614.4289650215569
44,614.4248128093852
45,614.4218502300515
46,614.4200835160956
47,614.4195161490766
48,614.4201488701323
49,614.4219796987929
50,614.4250039598926
51,614.4292143184206
52,614.4346008221245
53,614.4411509516193
54,614.4488496776879
55,614.4576795253878
56,614.4676206445191
57,614.4786508859826
58,614.4907458835672
59,614.5038791407566
60,614.51802212221
61,614.5331443496483
62,614.5492135019017
63,614.5661955188673
64,614.5840547090916
65,614.6027538606581
66,614.6222543550301
67,614.642516283479
68,614.6634985657402
69,614.6851590705575
70,614.7074547378022
71,614.7303417018628
72,614.7537754160139
73,614.7777107774692
74,614.802102252821
75,614.8269040035527
76,614.8520700112928
77,614.8775542024588
78,614.903310571944
79,614.9292933054967
80,614.9554569004409
81,614.9817562843715
82,615.0081469314616
83,615.034584976042
84,615.0610273231446
85,615.0874317557419
86,615.1137570384404
87,615.1399630174074
88,615.16601071632
89,615.1918624281357
90,615.2174818024749
91,615.242833928393
92,615.2678854122973
93,615.2926044507733
94,615.3169608980984
95,615.3409263282516
96,615.3644740912534
97,615.3875793636877
98,615.4102191932828
99,615.4323725374695
100,615.4540202958754
101,615.4751453367552
102,615.4957325173795
103,615.5157686984254
104,615.5352427524599
105,615.5541455666424
106,615.5724700397936
107,615.5902110739585
108,615.6073655605505
109,615.6239323611252
110,615.6399122827986
111,615.655308048333
112,615.6701242609546
113,615.6843673640496
114,615.6980455959591
115,615.7111689401358
116,615.7237490709346
117,615.7357992952827
118,615.7473344904517
119,615.7583710381172
120,615.7689267548758
121,615.7790208193927
122,615.7886736963807
123,615.7979070576616
124,615.8067437005963
125,615.8152074642047
126,615.8233231433419
127,615.8311164013186
128,615.8386136813758
129,615.8458421174248
130,615.8528294444654
131,615.8596039090852
132,615.8661941804071
133,615.8726292617959
134,615.8789384035589
135,615.8851510168133
136,615.8912965886401
137,615.8974045986163
138,615.9035044368013
139,615.9096253232462
140,615.9157962290985
141,615.922045799378
142,615.9284022775062
143,615.9348934316891
144,615.9415464832873
145,615.9483880373466
146,615.9554440155056
147,615.9627395915155
148,615.9702991296293
149,615.9781461261173
150,615.9863031541556
151,615.9947918123052
152,616.003632676763
153,616.0128452575321
154,616.0224479586112
155,616.0324580422616
156,616.0428915973672
157,616.0537635118784
158,616.0650874493309
159,616.076875829444
160,616.0891398127934
161,616.1018892895053
162,616.1151328718562
163,616.1288778905971
164,616.1431303947741
165,616.1578951547822
166,616.1731756683808
167,616.188974169407
168,616.2052916389426
169,616.2221278187118
170,616.2394812264943
171,616.2573491733635
172,616.2757277825722
173,616.294612009941
174,616.3139956656448
175,616.3338714373209
176,616.354230914444
177,616.3750646139107
178,616.3963620067722
179,616.4181115460343
180,616.4403006954228
181,616.462915958984
182,616.4859429113703
183,616.5093662286538
184,616.5331697195073
185,616.5573363566089
186,616.5818483081274
187,616.6066869691537
188,616.6318329929444
189,616.6572663218689
190,616.6829662179634
191,616.708911292999
192,616.7350795379617
193,616.761448351869
194,616.7879945699012
195,616.8146944909047
196,616.8415239043833
197,616.86845811714
198,616.8954719797678
199,616.9225399132398
200,616.9496359358918
201,616.9767336911328
202,617.0038064762324
203,617.0308272725172
204,617.0577687772582
205,617.0846034374609
206,617.1113034856868
207,617.1378409779597
208,617.1641878337704
209,617.1903158781663
210,617.2161968859249
211,617.2418026278089
212,617.2671049189165
213,617.2920756691319
214,617.316686935647
215,617.3409109774849
216,617.3647203119111
217,617.3880877725887
218,617.4109865693031
219,617.4333903490444
220,617.4552732582156
221,617.4766100057105
222,617.497375926594
223,617.5175470460986
224,617.5371001436446
225,617.5560128166057
226,617.5742635435654
227,617.591831746856
228,617.6086978542193
229,617.6248433594627
230,617.6402508819876
231,617.6549042250304
232,617.6687884323993
233,617.6818898434258
234,617.6941961457777
235,617.7056964257354
236,617.7163812154844
237,617.7262425369638
238,617.7352739418052
239,617.7434705469378
240,617.7508290655175
241,617.7573478329236
242,617.7630268276499
243,617.7678676869757
244,617.7718737173462
245,617.7750498994009
246,617.7774028875779
247,617.7789410042161
248,617.77967422807
249,617.7796141771677
250,617.7787740859574
251,617.7771687767172
252,617.7748146252412
253,617.7717295208437
254,617.7679328207545
255,617.7634452990038
256,617.7582890899257
257,617.7524876264389
258,617.7460655733046
259,617.7390487556146
260,617.7314640828345
261,617.7233394687808
262,617.7147037479441
263,617.7055865885576
264,617.6960184027802
265,617.6860302543262
266,617.675653763843
267,617.6649210123248
268,617.6538644428584
269,617.6425167610024
270,617.6309108340948
271,617.6190795897791
272,617.6070559140571
273,617.5948725492318
274,617.5825619921605
275,617.5701563932828
276,617.5576874569077
277,617.5451863432492
278,617.5326835726919
279,617.5202089327735
280,617.5077913883404
281,617.4954589952979
282,617.4832388183173
283,617.4711568528115
284,617.4592379514465
285,617.4475057554022
286,617.4359826305158
287,617.4246896083583
288,617.4136463322156
289,617.4028710079021
290,617.3923803593035
291,617.3821895885293
292,617.3723123405554
293,617.3627606722547
294,617.3535450257609
295,617.3446742061658
296,617.3361553636101
297,617.3279939798728
298,617.3201938595828
299,617.3127571261966
300,617.3056842228873
301,617.2989739185052
302,617.2926233187711
303,617.2866278828503
304,617.2809814454433
305,617.2756762445022
306,617.2707029546467
307,617.2660507262925
308,617.2617072304295
309,617.2576587089286
310,617.2538900302167
311,617.2503847501422
312,617.247125177829
313,617.2440924462543
314,617.2412665872149
315,617.2386266102968
316,617.2361505854396
317,617.2338157286904
318,617.2315984907437
319,617.2294746478594
320,617.2274193947482
321,617.225407439019
322,617.2234130967871
323,617.2214103890662
324,617.2193731386325
325,617.2172750671197
326,617.2150898921733
327,617.2127914245054
328,617.2103536646696
329,617.2077508993337
330,617.2049577967857
331,617.2019495013689
332,617.1987017265084
333,617.195190845959
334,617.1913939828735
335,617.1872890962899
336,617.1828550646726
337,617.1780717661915
338,617.1729201554568
339,617.1673823364334
340,617.1614416312458
341,617.1550826445991
342,617.1482913235741
343,617.1410550126002
344,617.1333625034655
345,617.1252040802655
346,617.1165715592213
347,617.1074583233157
348,617.0978593517162
349,617.0877712439875
350,617.0771922391268
351,617.0661222294766
352,617.0545627695637
353,617.0425170799176
354,617.0299900459357
355,617.0169882119072
356,617.0035197703359
357,616.9895945467175
358,616.9752239799215
359,616.9604210983274
360,616.9452004918728
361,616.9295782801651
362,616.9135720768178
363,616.8972009501828
364,616.8804853806794
365,616.8634472149339
366,616.8461096169235
367,616.8284970162796
368,616.8106350538702
369,616.7925505247418
370,616.7742713184689
371,616.75582635692
372,616.7372455294287
373,616.7185596253436
374,616.699800263939
375,616.6809998216663
376,616.662191356695
377,616.6434085306723
378,616.6246855276372
379,616.6060569700682
380,616.5875578321067
381,616.5692233500439
382,616.5510889302058
383,616.5331900544263
384,616.515562183379
385,616.4982406580884
386,616.481260599962
387,616.4646568096522
388,616.4484636650319
389,616.4327150185372
390,616.4174440941212
391,616.4026833840593
392,616.3884645458543
393,616.3748182995165
394,616.3617743255431
395,616.349361163961
396,616.337606114808
397,616.3265351404178
398,616.3161727698587
399,616.3065420058754
400,616.297664234698
401,616.2895591390771
402,616.2822446148947
403,616.2757366916949
404,616.2700494574932
405,616.2651949882445
406,616.2611832823563
407,616.2580222006138
408,616.2557174118444
409,616.2542723446188
410,616.2536881452643
411,616.2539636424531
412,616.2550953186158
413,616.2570772884314
414,616.2599012846382
415,616.2635566513943
416,616.2680303453833
417,616.2733069448138
418,616.2793686664382
419,616.2861953907021
420,616.2937646951237
421,616.3020518959657
422,616.3110300982015
423,616.3206702537178
424,616.3309412276561
425,616.3418098727816
426,616.3532411117463
427,616.365198027062
428,616.3776419585249
429,616.3905326077565
430,616.4038281494405
431,616.4174853487622
432,616.4314596844913
433,616.445705477092
434,616.4601760211922
435,616.474823721703
436,616.4896002328547
437,616.5044565994198
438,616.5193433994148
439,616.5342108876101
440,616.5490091391993
441,616.5636881929827
442,616.5781981934055
443,616.5924895307658
444,616.6065129789141
445,616.6202198297908
446,616.6335620242022
447,616.6464922782984
448,616.6589642052826
449,616.6709324319509
450,616.6823527097381
451,616.6931820200186
452,616.7033786734743
453,616.7129024033959
454,616.7217144528346
455,616.7297776555538
456,616.7370565107526
457,616.7435172515392
458,616.7491279071326
459,616.753858358778
460,616.7576803893658
461,616.7605677267637
462,616.7624960808956
463,616.7634431746194
464,616.7633887684722
465,616.7623146793516
466,616.7602047932033
467,616.7570450717922
468,616.7528235536356
469,616.7475303492023
470,616.7411576305051
471,616.7336996152497
472,616.7251525457169
473,616.7155146625571
474,616.7047861736751
475,616.6929692183834
476,616.6800678270125
477,616.6660878761858
478,616.651037040002
479,616.6349247373989
480,616.6177620759789
481,616.599561792591
482,616.5803381909675
483,616.5601070767533
484,616.538885690285
485,616.5166926375011
486,616.49354781936
487,616.4694723601311
488,616.4444885349048
489,616.4186196966402
490,616.3918902030526
491,616.3643253436038
492,616.3359512668179
493,616.306794908106
494,616.2768839182488
495,616.2462465926628
496,616.2149118015546
497,616.1829089210418
498,616.1502677653045
499,616.117018519834
500,616.0831916758556
501,616.0488179660271
502,616.01392830152
503,615.9785537105927
504,615.9427252787647
505,615.9064740907168
506,615.8698311740586
507,615.8328274451102
508,615.7954936568311
509,615.7578603490095
510,615.7199578007952
511,615.6818159856273
512,615.6434645285736
513,615.6049326660728
514,615.566249208063
515,615.5274425024808
516,615.4885404020966
517,615.4495702336309
518,615.4105587690544
519,615.3715321989592
520,615.3325161078774
521,615.2935354514384
522,615.254614535265
523,615.2157769954952
524,615.1770457808103
525,615.138443135854
526,615.0999905859571
527,615.0617089231127
528,615.0236181931845
529,614.9857376843781
530,614.9480859170498
531,614.9106806349376
532,614.8735387978842
533,614.8366765760821
534,614.8001093458608
535,614.7638516870272
536,614.727917381785
537,614.6923194152649
538,614.6570699777088
539,614.6221804683493
540,614.5876615010055
541,614.5535229113904
542,614.519773766093
543,614.486422373193
544,614.453476294456
545,614.4209423590627
546,614.3888266788111
547,614.3571346647012
548,614.3258710447935
549,614.2950398832375
550,614.264644600368
551,614.2346879937635
552,614.2051722601288
553,614.1760990178215
554,614.1474693298028
555,614.1192837267886
556,614.0915422303826
557,614.0642443759988
558,614.0373892353903
559,614.0109754386128
560,613.9850011952476
561,613.9594643147177
562,613.9343622255506
563,613.9096919934672
564,613.8854503382152
565,613.8616336490923
566,613.8382379991232
567,613.8152591578487
568,613.7926926026739
569,613.7705335287159
570,613.7487768570841
571,613.727417241546
572,613.7064490735661
573,613.6858664857377
574,613.6656633536634
575,613.6458332963601
576,613.6263696753127
577,613.6072655923585
578,613.5885138866679
579,613.5701071311521
580,613.5520376286876
581,613.5342974085669
582,613.5168782235725
583,613.4997715480143
584,613.4829685770169
585,613.4664602272869
586,613.4502371395672
587,613.4342896829702
588,613.4186079613702
589,613.4031818219911
590,613.3880008662733
591,613.3730544630511
592,613.3583317640231
593,613.3438217214407
594,613.3295131078736
595,613.3153945378684
596,613.3014544912971
597,613.2876813381969
598,613.2740633649097
599,613.2605888013483
600,613.2472458492535
601,613.234022711358
602,613.2209076214208
603,613.2078888751372
604,613.1949548619293
605,613.182094097616
606,613.169295257934
607,613.1565472128742
608,613.1438390617985
609,613.1311601693297
610,613.1185002020237
611,613.1058491658428
612,613.0931974444276
613,613.0805358381191
614,613.0678556036112
615,613.0551484940592
616,613.0424067994422
617,613.029623386984
618,613.016791741435
619,613.0039060049995
620,612.990961016659
621,612.9779523506372
622,612.9648763537637
623,612.9517301815124
624,612.938511832519
625,612.9252201814053
626,612.911855009762
627,612.8984170351575
628,612.8849079380592
629,612.8713303865776
630,612.8576880589676
631,612.8439856638117
632,612.8302289577824
633,612.816424760854
634,612.802580968822
635,612.7887065629756
636,612.7748116167311
637,612.7609072989688
638,612.7470058737508
639,612.7331206960539
640,612.7192662031442
641,612.7054579012461
642,612.6917123472111
643,612.6780471249637
644,612.664480816558
645,612.6510329677232
646,612.6377240477906
647,612.6245754039084
648,612.6116092094445
649,612.5988484064951
650,612.5863166424563
651,612.5740382006938
652,612.5620379254448
653,612.5503411411835
654,612.5389735667964
655,612.5279612250112
656,612.5173303476199
657,612.5071072770925
658,612.4973183652011
659,612.4879898692932
660,612.4791478468749
661,612.4708180491859
662,612.463025814427
663,612.4557959612293
664,612.4491526828751
665,612.4431194427207
666,612.4377188712399
667,612.4329726650823
668,612.4289014885072
669,612.4255248775238
670,612.4228611470314
671,612.4209273012258
672,612.4197389475164
673,612.4193102141977
674,612.4196536721123
675,612.420780260552
676,612.4226992176502
677,612.425418015531
678,612.4289423004777
679,612.4332758383773
680,612.4384204656619
681,612.4443760459391
682,612.4511404324952
683,612.4587094368671
684,612.4670768036838
685,612.4762341919761
686,612.4861711631277
687,612.496875175616
688,612.5083315866815
689,612.5205236610535
690,612.5334325868532
691,612.5470374987713
692,612.5613155085683
693,612.5762417428862
694,612.5917893882831
695,612.6079297433479
696,612.6246322777015
697,612.6418646976579
698,612.6595930182746
699,612.6777816414818
700,612.6963934399225
701,612.7153898460793
702,612.7347309462233
703,612.7543755787036
704,612.7742814361233
705,612.7944051709798
706,612.8147025043819
707,612.8351283374765
708,612.8556368652329
709,612.8761816922532
710,612.8967159502977
711,612.9171924172471
712,612.9375636372525
713,612.9577820418549
714,612.9778000718833
715,612.9975702999637
716,613.0170455534824
717,613.0361790378663
718,613.0549244600592
719,613.0732361520749
720,613.091069194501
721,613.1083795398024
722,613.1251241352494
723,613.1412610452493
724,613.1567495727892
725,613.1715503796171
726,613.1856256047361
727,613.1989389807704
728,613.2114559477552
729,613.2231437638878
730,613.2339716127586
731,613.2439107065505
732,613.2529343846854
733,613.2610182073901
734,613.2681400436855
735,613.274280153358
736,613.2794212625278
737,613.2835486324963
738,613.2866501215866
739,613.2887162397242
740,613.2897401955212
741,613.2897179356517
742,613.2886481763405
743,613.2865324268324
744,613.2833750047383
745,613.2791830431987
746,613.2739664898486
747,613.2677380976367
748,613.2605134075937
749,613.2523107236748
750,613.2431510798006
751,613.2330581992317
752,613.2220584464386
753,613.2101807716881
754,613.197456648629
755,613.1839200052125
756,613.1696071483154
757,613.1545566824545
758,613.1388094229851
759,613.1224083041777
760,613.1053982825633
761,613.0878262359253
762,613.0697408583183
763,613.0511925514975
764,613.0322333131381
765,613.0129166222216
766,612.99329732197
767,612.9734315007271
768,612.953376371211
769,612.9331901485593
770,612.9129319275627
771,612.8926615594248
772,612.8724395283433
773,612.8523268281791
774,612.8323848394782
775,612.8126752071107
776,612.7932597187747
777,612.7742001845742
778,612.7555583178382
779,612.7373956173032
780,612.7197732507534
781,612.7027519402094
782,612.6863918487797
783,612.6707524693476
784,612.6558925152838
785,612.6418698133707
786,612.6287411990866
787,612.6165624143787
788,612.6053880080437
789,612.5952712388248
790,612.5862639813157
791,612.5784166347398
792,612.5717780346657
793,612.5663953677399
794,612.5623140895409
795,612.5595778456743
796,612.5582283962084
797,612.5583055435162
798,612.5598470635454
799,612.5628886404976
800,612.5674638048603
801,612.5736038746913
802,612.5813379000267
803,612.5906926102667
804,612.6016923644194
805,612.6143591041173
806,612.6287123093856
807,612.6447689571897
808,612.6625434828475
809,612.6820477444264
810,612.7032909902839
811,612.7262798299506
812,612.7510182086116
813,612.7775073854921
814,612.8057459164933
815,612.8357296414327
816,612.8674516762217
817,612.9009024102683
818,612.9360695093316
819,612.972937923981
820,613.0114899037684
821,613.051705017189
822,613.0935601774798
823,613.1370296742425
824,613.1820852107973
825,613.2286959471028
826,613.2768285480328
827,613.3264472368024
828,613.377513853362
829,613.4299879176001
830,613.4838266972262
831,613.5389852802195
832,613.5954166517347
833,613.6530717753218
834,613.7118996782959
835,613.7718475410629
836,613.8328607902044
837,613.8948831951253
838,613.9578569680491
839,614.0217228671195
840,614.0864203023194
841,614.1518874438842
842,614.2180613328572
843,614.2848779934151
844,614.3522725465681
845,614.4201793248386
846,614.4885319875428
847,614.5572636363435
848,614.6263069307596
849,614.6955942033135
850,614.7650575739757
851,614.8346290635745
852,614.9042407058683
853,614.9738246580206
854,615.0433133092304
855,615.1126393872597
856,615.1817360625838
857,615.25053704989
858,615.3189767066722
859,615.3869901287005
860,615.4545132421665
861,615.5214828923185
862,615.5878369284266
863,615.6535142849456
864,615.7184550587938
865,615.7826005827028
866,615.8458934946351
867,615.90827780328
868,615.9696989496495
869,616.0301038647962
870,616.0894410236868
871,616.1476604952835
872,616.2047139889262
873,616.2605548971594
874,616.3151383351839
875,616.3684211771242
876,616.4203620892993
877,616.4709215606753
878,616.5200619306638
879,616.5677474144003
880,616.6139441256066
881,616.6586200971183
882,616.7017452991397
883,616.7432916552859
884,616.7832330564534
885,616.821545372534
886,616.8582064619637
887,616.8931961790797
888,616.9264963792773
889,616.9580909219738
890,616.9879656713982
891,617.0161084952315
892,617.0425092611207
893,617.0671598310739
894,617.0900540536904
895,617.1111877541285
896,617.1305587216782
897,617.1481666948126
898,617.1640133436241
899,617.1781022495741
900,617.1904388825054
901,617.2010305748769
902,617.2098864932159
903,617.2170176068304
904,617.2224366538661
905,617.2261581048393
906,617.2281981238165
907,617.2285745274403
908,617.22730674201
909,617.2244157588034
910,617.2199240878066
911,617.2138557100035
912,617.2062360283894
913,617.1970918179121
914,617.1864511745969
915,617.1743434641684
916,617.1607992705194
