frame_number,force
0,605.6169400000529
1,605.5803578382512
2,605.5412976657566
3,605.4979235498143
4,605.4495919939046
5,605.3972351191773
6,605.3435332727236
7,605.292866911043
8,605.2510560853271
9,605.2249029613822
10,605.2215614144166
11,605.2477729920337
12,605.3090310964544
13,605.4087655238961
14,605.5476694985525
15,605.7233017577647
16,605.9300685617493
17,606.1596218797654
18,606.4016183743456
19,606.6447011797885
20,606.8775259187199
21,607.0896700862412
22,607.2723254113034
23,607.4187418512093
24,607.5244469917355
25,607.5872983029218
26,607.6074295749006
27,607.5871256345582
28,607.5306219455326
29,607.4438062470299
30,607.3338090396072
31,607.2084998064639
32,607.0759394638528
33,606.9438587865986
34,606.8192253330757
35,606.7079303751337
36,606.6145899114886
37,606.5424297866828
38,606.4932237764584
39,606.4672711576383
40,606.4634233023551
41,606.4791805721186
42,606.5108702864494
43,606.5538899197251
44,606.602979736711
45,606.6524925003322
46,606.696644912435
47,606.7297456068889
48,606.7463956520878
49,606.7416611708709
50,606.7112263317124
51,606.6515416699799
52,606.5599818867287
53,606.4350157773716
54,606.276370436818
55,606.0851527381141
56,605.8638846291308
57,605.616420161194
58,605.347741946554
59,605.0636733250492
60,604.7705654212797
61,604.4750061862585
62,604.1835611048425
63,603.9025240881547
64,603.6376566400403
65,603.3939205392711
66,603.1752377875001
67,602.9843185058072
68,602.8225851388928
69,602.6902060443252
70,602.5862363546081
71,602.5088428572031
72,602.4555714504933
73,602.4236154013694
74,602.410055393106
75,602.412052465607
76,602.4269793151275
77,602.452481262749
78,602.4864695052227
79,602.5270654267093
80,602.5725305512162
81,602.6212192614548
82,602.671572021289
83,602.7221385790016
84,602.7716072239615
85,602.8188224035524
86,602.862782878845
87,602.9026175814859
88,602.9375459889372
89,602.9668451059489
90,602.9898438838638
91,603.0059369130446
92,603.0145802543062
93,603.0152395543312
94,603.0073030173708
95,602.9900116467405
96,602.9624626217034
97,602.9237102160329
98,602.8729505244017
99,602.809753789244
100,602.7343002163897
101,602.6475712562041
102,602.55145008519
103,602.4487028290456
104,602.3428439805206
105,602.2379197253484
106,602.1382583892761
107,602.0482308215554
108,601.9720320183537
109,601.9134542821566
110,601.8756102282584
111,601.8606046393008
112,601.8692196103332
113,601.9007131445592
114,601.9528149972082
115,602.0219568204418
116,602.1037228304884
117,602.193460530384
118,602.2869534334171
119,602.3810402214405
120,602.4740735189597
121,602.566143074052
122,602.6590338298367
123,602.7559331754363
124,602.8609255208082
125,602.9783167387394
126,603.1118400880623
127,603.2638302312288
128,603.4345031483397
129,603.6215059492956
130,603.8198623100847
131,604.0223403021164
132,604.2201554966009
133,604.4038403847092
134,604.564090480923
135,604.6924496484891
136,604.7817983363824
137,604.8266972468253
138,604.82366225491
139,604.7714028958835
140,604.6709929501895
141,604.5259095423287
142,604.3418926668326
143,604.1266177978517
144,603.8892120391178
145,603.6396676760359
146,603.3882139178364
147,603.1446953525501
148,602.917979734151
149,602.7154003356802
150,602.5422531426874
151,602.4014148140682
152,602.293185515142
153,602.2154442162597
154,602.1641230809502
155,602.1339058208829
156,602.1189952478784
157,602.1138063342112
158,602.1134941265859
159,602.1142710581971
160,602.1134919148287
161,602.1095130022354
162,602.1013812892563
163,602.0884569697861
164,602.0700843021092
165,602.0453937573902
166,602.01326478946
167,601.972425939335
168,601.9216334909617
169,601.8598644768717
170,601.786483298164
171,601.7013732989374
172,601.605047422209
173,601.4987618613937
174,601.3846497322282
175,601.2658622182914
176,601.1466605039857
177,601.0323683496462
178,600.9290994534585
179,600.8432254242941
180,600.7806314263719
181,600.745883592654
182,600.7414755308594
183,600.7673147587512
184,600.8205580990267
185,600.8958346716503
186,600.9858332446204
187,601.0821785350164
188,601.17646723796
189,601.2612894725548
190,601.3310547290653
191,601.3824879071883
192,601.4147429009541
193,601.4291640475365
194,601.4287838320633
195,601.4176712611737
196,601.4002449914725
197,601.3806495726266
198,601.3622703428997
199,601.3474315260559
200,601.3372801795556
201,601.3318183841307
202,601.3300295669073
203,601.3300564405117
204,601.3294105186038
205,601.3252121522602
206,601.3144708813469
207,601.2944113184308
208,601.2628255266426
209,601.2184024849618
210,601.1609704836303
211,601.0915992510071
212,601.0125418805433
213,600.9270389140543
214,600.839034251155
215,600.7528455463149
216,600.6728010429986
217,600.6028365666172
218,600.5460655666838
219,600.5043793429322
220,600.4781667997187
221,600.4662357897075
222,600.4659738208402
223,600.4737275235361
224,600.4853321650307
225,600.4967005760135
226,600.504385983928
227,600.5060501803853
228,600.5007815849368
229,600.4892196258536
230,600.4734672336348
231,600.4568121489895
232,600.4433077658877
233,600.4372720561695
234,600.4427655368581
235,600.4631211865891
236,600.500601928861
237,600.5562293527635
238,600.6297708953839
239,600.719829787112
240,600.8239784501794
241,600.9389055002376
242,601.0605820563328
243,601.1844671557564
244,601.3057535385201
245,601.4196225819422
246,601.5214702052562
247,601.6071003745219
248,601.6729230877372
249,601.7161917914783
250,601.7352741326073
251,601.7299133585475
252,601.7014310537271
253,601.652834760651
254,601.588804143274
255,601.515523762864
256,601.4403191878882
257,601.3710670962491
258,601.3154069557902
259,601.2798553081304
260,601.2689650877766
261,601.2846615826494
262,601.3258456038732
263,601.3883144759254
264,601.4650204192193
265,601.5466517818539
266,601.6224802151274
267,601.6813769732279
268,601.7128751906542
269,601.7081485599514
270,601.6608002430054
271,601.5674116023971
272,601.4278616513031
273,601.2454510651147
274,601.0268326143273
275,600.7816985852177
276,600.5221644799761
277,600.2618437340657
278,600.0146992222567
279,599.793826285144
280,599.6103349041502
281,599.47246390789
282,599.3850079095298
283,599.349089402596
284,599.3622670643518
285,599.4189361530515
286,599.5109537086161
287,599.6284121870251
288,599.7604842179207
289,599.8962664732783
290,600.0255645640684
291,600.1395788152321
292,600.231464956819
293,600.2967508723787
294,600.3335884222474
295,600.3428119178384
296,600.3277784767289
297,600.2939916963111
298,600.2485468553294
299,600.1994606674313
300,600.1549506760518
301,600.1227135427973
302,600.109233884759
303,600.119156143357
304,600.1547772441722
305,600.2157450016882
306,600.2990394535491
307,600.3992582808407
308,600.5091538848029
309,600.6203239272706
310,600.723954376824
311,600.8115373242085
312,600.8755157371332
313,600.9098343797396
314,600.9103910832639
315,600.8753746269047
316,600.805449277706
317,600.7037312559571
318,600.5755263314352
319,600.4278506938319
320,600.2688034228635
321,600.1068748798798
322,599.9502654969191
323,599.8062741032056
324,599.6808084791918
325,599.5780665422636
326,599.5004193872195
327,599.4484972023818
328,599.4214451627897
329,599.4172807332463
330,599.4332530394893
331,599.4661060459874
332,599.5122011077374
333,599.5675374986823
334,599.6277675105637
335,599.688302603596
336,599.7445590672774
337,599.7923279906922
338,599.8282032794309
339,599.8499770456049
340,599.8569169997085
341,599.8498728502515
342,599.831206094968
343,599.8045770546508
344,599.7746362652159
345,599.7466557383267
346,599.7261172466509
347,599.718270642673
348,599.7276909007085
349,599.7578809199305
350,599.8109684005628
351,599.8875300900759
352,599.986560282073
353,600.1055903012374
354,600.2409534411652
355,600.3881624793252
356,600.542329951683
357,600.6985423555138
358,600.8521190187331
359,600.9987382467928
360,601.1344767968309
361,601.2558573887911
362,601.3599995716122
363,601.4449072621428
364,601.5098344188485
365,601.5556042982282
366,601.5847484618743
367,601.6013760306291
368,601.6107614715379
369,601.6187208899887
370,601.6309023688891
371,601.6521334794638
372,601.6859554873477
373,601.7344336703414
374,601.798265061439
375,601.8771217762336
376,601.9701034134089
377,602.0761544698099
378,602.194332210953
379,602.3238652133067
380,602.4640004947645
381,602.6136855986359
382,602.7711696538396
383,602.9336342554317
384,603.096970656623
385,603.2557914502293
386,603.4037076625116
387,603.5338383444388
388,603.6394688926421
389,603.7147441056757
390,603.7552762864563
391,603.7585707324865
392,603.7242143956923
393,603.6538209862977
394,603.5507618366838
395,603.419734403999
396,603.266235905537
397,603.0960179100624
398,602.9145912600952
399,602.7268319565442
400,602.5367208736548
401,602.3472371888373
402,602.1604077075142
403,601.9774887540951
404,601.7992364970924
405,601.6262187368679
406,601.4591319656682
407,601.2990907439699
408,601.1478393164085
409,601.0078159469128
410,600.8820116313831
411,600.7736164240415
412,600.6855131306469
413,600.6197231929275
414,600.576917984751
415,600.5560925445702
416,600.5544744730914
417,600.5677114123481
418,600.590339417994
419,600.616476971429
420,600.6406270143834
421,600.6584323680622
422,600.6672414756531
423,600.6663938317752
424,600.6572008899852
425,600.6426573314859
426,600.6269562588687
427,600.6148945332718
428,600.611252520327
429,600.6202323715771
430,600.645035471737
431,600.6876364012511
432,600.7487709111299
433,600.8281159519719
434,600.9246065413573
435,601.0368063611827
436,601.1632352543054
437,601.3025681654813
438,601.4536563148821
439,601.6153747079429
440,601.7863575871089
441,601.9647221630707
442,602.1478787802766
443,602.3324833238814
444,602.514530740714
445,602.6895478915565
446,602.8528370828066
447,602.9997421758584
448,603.1259290457992
449,603.2276669467408
450,603.3020754608914
451,603.3472963135027
452,603.3625777828113
453,603.3483017824466
454,603.3060037365573
455,603.2384158804186
456,603.1495188904679
457,603.0445412853753
458,602.9298249633797
459,602.8124958283214
460,602.6999370944442
461,602.5991292146987
462,602.5159624061284
463,602.4546330640839
464,602.4172098008185
465,602.4034168576968
466,602.4106508439983
467,602.4342245825616
468,602.4678115628319
469,602.5040400252561
470,602.5351567127657
471,602.5536592334701
472,602.552807515281
473,602.5269743182178
474,602.4718482958682
475,602.3845265054273
476,602.263530783239
477,602.108776190258
478,601.9215173603079
479,601.704292863521
480,601.4608695515963
481,601.1961603352146
482,600.9160711370047
483,600.6272482914752
484,600.3367399761131
485,600.0516215536661
486,599.7786385046143
487,599.5238938192443
488,599.2925774425922
489,599.0887343334412
490,598.9150947865419
491,598.7730123002885
492,598.6625419122154
493,598.5826508078679
494,598.5315095478351
495,598.5067883492687
496,598.5058891031914
497,598.5260811097886
498,598.5645589877865
499,598.6184718287083
500,598.6849681614681
501,598.7612788695599
502,598.8448397670834
503,598.9334379418917
504,599.0253477462654
505,599.1194097517152
506,599.215009366262
507,599.3119367009339
508,599.4101522444561
509,599.5095278561238
510,599.6096529313542
511,599.7097710922583
512,599.8088508843458
513,599.9057317426683
514,599.9992654415099
515,600.088403858519
516,600.1722313268311
517,600.2499591970311
518,600.3208907436282
519,600.3843661867875
520,600.4397298447176
521,600.4863921717532
522,600.5240416322334
523,600.5529867352986
524,600.57452075347
525,600.5911584024767
526,600.6066194564169
527,600.6255093314098
528,600.6527320201458
529,600.6927380755824
530,600.7487535480599
531,600.822153884813
532,600.9121255435
533,601.0156861155954
534,601.1280331641452
535,601.2431120309028
536,601.3542677862351
537,601.4548709642904
538,601.5388537599549
539,601.6011400075745
540,601.6379843507989
541,601.6472447816229
542,601.6285972004638
543,601.583668932251
544,601.5160365501563
545,601.4310258055997
546,601.3352834984593
547,601.2361481116143
548,601.1408963941112
549,601.0559707705553
550,600.9862973150828
551,600.9347866683681
552,600.9020759977637
553,600.8865316943645
554,600.8845002018788
555,600.8907719350215
556,600.8992100411896
557,600.9034871249321
558,600.8978634174006
559,600.8779268979114
560,600.8412017443321
561,600.7875238906877
562,600.719094726076
563,600.6401681839461
564,600.5563986545365
565,600.4739526967707
566,600.3985397409203
567,600.3345347220596
568,600.284350383687
569,600.2481738951506
570,600.2241156551027
571,600.2087322111176
572,600.1977973071259
573,600.1871407570142
574,600.1733805158519
575,600.1544280884561
576,600.1297197551315
577,600.1001929488034
578,600.0680732380697
579,600.0365507924333
580,600.0094105378323
581,599.9906588894804
582,599.9841761676371
583,599.9934127134603
584,600.0211310358145
585,600.0691835377435
586,600.1383214588387
587,600.2280563583363
588,600.3366157505467
589,600.4610225899501
590,600.5972883774216
591,600.7406752084773
592,600.8859801864462
593,601.027820508256
594,601.1609218566763
595,601.2804174029891
596,601.382153110916
597,601.4629822822783
598,601.5210249476215
599,601.5558584770856
600,601.5685905908417
601,601.5617577550937
602,601.5390112524462
603,601.5046068546375
604,601.4627817001971
605,601.4171460270414
606,601.370214325869
607,601.3231584791141
608,601.2758086481657
609,601.2268760028453
610,601.1743361845787
611,601.1158977262713
612,601.049483122156
613,600.9736634724311
614,600.8879987673287
615,600.7932381277079
616,600.6913354400042
617,600.5852553570556
618,600.4785924683108
619,600.3750825975487
620,600.2781143453175
621,600.1903378538444
622,600.1134318987148
623,600.0480472961301
624,599.9939031782925
625,599.949984271523
626,599.9147820200247
627,599.8865370926715
628,599.8634634755124
629,599.8439513919598
630,599.8267443967526
631,599.8110664583375
632,599.7966626667342
633,599.7837322988627
634,599.7727607487514
635,599.7642706279303
636,599.7585119802828
637,599.755117644033
638,599.7527718597197
639,599.7489665508315
640,599.739930958678
641,599.7208045338105
642,599.6860798657876
643,599.6302808468166
644,599.5487794211464
645,599.4386148038266
646,599.2991731298636
647,599.1326051078305
648,598.9438900355914
649,598.7404959733437
650,598.5316516010392
651,598.3273317791904
652,598.1371277682729
653,597.9691904222705
654,597.8294094157087
655,597.7209483570565
656,597.6441955801969
657,597.5971063454087
658,597.575822712085
659,597.5754052399491
660,597.5905242797903
661,597.6160166875316
662,597.6472665095115
663,597.6803956118
664,597.7122750505993
665,597.7404099739213
666,597.7627945385939
667,597.7778451748001
668,597.7844823006199
669,597.7823544851368
670,597.7721227452606
671,597.7556875284156
672,597.7362617422519
673,597.7182492463548
674,597.7069468635435
675,597.7081277931371
676,597.7275788914732
677,597.7706584357845
678,597.8419237699384
679,597.9448567721261
680,598.0816958530759
681,598.2533687753221
682,598.4595043127522
683,598.6984800575954
684,598.967455268297
685,599.262362526478
686,599.5778855233406
687,599.907497328367
688,600.2436375011604
689,600.5780643525566
690,600.9023628796859
691,601.208553653601
692,601.4897399992699
693,601.7407320788078
694,601.9585775633092
695,602.1429100269801
696,602.2960205237679
697,602.4225876556885
698,602.5290670952335
699,602.6228221123516
700,602.7111439567028
701,602.8003400092659
702,602.8950478367177
703,602.9978748322455
704,603.1093885114145
705,603.2284120713241
706,603.352527186175
707,603.4786620027986
708,603.6036509155666
709,603.7246834292318
710,603.8395958942486
711,603.946994175609
712,604.0462240236096
713,604.1372234650012
714,604.2202979036242
715,604.2958617218721
716,604.3641934695007
717,604.4252476999899
718,604.4785469469954
719,604.523151122934
720,604.5576939560432
721,604.5804954720307
722,604.5897778118407
723,604.5839955424834
724,604.5622414507651
725,604.5246373578999
726,604.4726044056938
727,604.4089410542172
728,604.3376940787515
729,604.2638512525571
730,604.1929045417091
731,604.1303430995563
732,604.0811427622704
733,604.0493177280196
734,604.0375876358723
735,604.0471945048561
736,604.0778871819745
737,604.128077157895
738,604.1951485121834
739,604.2758687065553
740,604.3668102174927
741,604.4646862449723
742,604.5665429534184
743,604.6698184711336
744,604.7723372937396
745,604.8723226398133
746,604.9684681298409
747,605.0600435237789
748,605.146969289059
749,605.2298086507615
750,605.3096714111855
751,605.3880571520193
752,605.466665408795
753,605.5471823722978
754,605.6310445394826
755,605.7191903258829
756,605.811832039517
757,605.9082971341186
758,606.006987950308
759,606.105490367307
760,606.2008280526285
761,606.2898168590701
762,606.3694351673466
763,606.437112093479
764,606.4908629935978
765,606.5292608312056
766,606.5512909438979
767,606.5561680343388
768,606.5431922655931
769,606.5116970694389
770,606.4611061358972
771,606.3910778331278
772,606.3016815426048
773,606.1935370331694
774,606.0678651770567
775,605.926440738078
776,605.7714859663419
777,605.6055741867139
778,605.4316102038232
779,605.2529162513669
780,605.0733904429607
781,604.8976481532675
782,604.7310370473227
783,604.5794435203007
784,604.4488674501553
785,604.3448123091393
786,604.2715991832242
787,604.2317435391757
788,604.2255172877972
789,604.2507666156233
790,604.3029993304598
791,604.3757181664091
792,604.4609601822195
793,604.5499926770424
794,604.634099879122
795,604.7053752198514
796,604.7574276064571
797,604.7859250752334
798,604.788925515498
799,604.7669698092525
800,604.7229383706996
801,604.6616992735975
802,604.5895949921678
803,604.5138180929367
804,604.4417237252685
805,604.3801295940315
806,604.3346608709026
807,604.3092067610288
808,604.3055673870253
809,604.3233668883229
810,604.3602651737999
811,604.4124208900594
812,604.4750844677008
813,604.5431752274004
814,604.6117269297289
815,604.6761448835086
816,604.7322757288921
817,604.7763371868888
818,604.8047867708311
819,604.8142195450513
820,604.80137100139
821,604.76326664051
822,604.6975171245107
823,604.6027188848
824,604.4788893934591
825,604.327843990895
826,604.1534127633818
827,603.9614128074339
828,603.7593349989639
829,603.5557575213825
830,603.3595411378914
831,603.178892892522
832,603.0204153292652
833,602.8882851413658
834,602.783711133821
835,602.7047887754068
836,602.6467983837383
837,602.6029125567217
838,602.5652134547983
839,602.5258750501642
840,602.4783330224611
841,602.4182541062893
842,602.34414353115
843,602.2574992027004
844,602.1625188917704
845,602.0654536204983
846,601.9737398141052
847,601.8950347925769
848,601.8362604650324
849,601.8027588060412
850,601.797670865052
851,601.8216325132323
852,601.8728182761828
853,601.9472853700847
854,602.0395143468768
855,602.1430328816554
856,602.2510387764637
857,602.3569760982361
858,602.4550322205175
859,602.540512766637
860,602.6100462650368
861,602.661593461726
862,602.6942799472616
863,602.7081135778376
864,602.7036746043173
865,602.6818681921666
866,602.6438041710825
867,602.590822251563
868,602.5246246909339
869,602.4474336922742
870,602.3620787645144
871,602.2719443223475
872,602.1807548632793
873,602.0922215134767
874,602.0096039011577
875,601.9352521122476
876,601.8701917484672
877,601.8138143792283
878,601.7637442983408
879,601.7159569225255
880,601.6651984028109
881,601.6056913264985
882,601.5320272255608
883,601.4400789751201
884,601.3277484530224
885,601.195405807159
886,601.0459539609528
887,600.8845321697643
888,600.7179331948435
889,600.5538420717603
890,600.4000094137774
891,600.2634528104643
892,600.149751635974
893,600.0624832005744
894,600.0028454990818
895,599.9695115004022
896,599.9587500686694
897,599.9648216081072
898,599.980610504204
899,599.9984065028176
900,600.010720009925
901,600.0110233033823
902,599.9943374523322
903,599.9576143200596
904,599.8998858473532
905,599.8221710067547
906,599.7271517967944
907,599.6186568933907
908,599.5010182652653
909,599.3783837392795
910,599.2540783439307
911,599.1301122111181
912,599.0069236640675
913,598.8834106499205
914,598.7572469977129
915,598.6254210692371
916,598.4848873524725
917,598.3331949123966
