frame_number,force
0,565.2867500000499
1,565.0969573928654
2,564.9170993267712
3,564.7561755065921
4,564.6214530520133
5,564.5178953657838
6,564.4478446092852
7,564.4109421750057
8,564.404257893442
9,564.4226002148245
10,564.4589842292547
11,564.5052397755825
12,564.5527415933664
13,564.5932282975567
14,564.6196520913306
15,564.6269799679264
16,564.6128518309682
17,564.5779904507588
18,564.5262658242121
19,564.4643566706973
20,564.4010177358989
21,564.3460351175399
22,564.3090195611028
23,564.2982312897949
24,564.3196259269472
25,564.3762576589668
26,564.4681000976741
27,564.5922774701669
28,564.7436490190291
29,564.9156480625373
30,565.1012362012707
31,565.2938053695894
32,565.4878654588111
33,565.6793989832573
34,565.8658421259082
35,566.0457512305422
36,566.2183028895753
37,566.3828080747081
38,566.5383775208978
39,566.6837912577714
40,566.8175537957396
41,566.9380799120206
42,567.0439420532549
43,567.1341083028921
44,567.2081131605789
45,567.266133622584
46,567.3089815511764
47,567.3380542930627
48,567.3552898575416
49,567.3631443264256
50,567.3645676626537
51,567.3629279606607
52,567.3618343504479
53,567.3648328195213
54,567.3749926793038
55,567.394449516673
56,567.4239983126361
57,567.4628282132007
58,567.5084703296825
59,567.5569981072615
60,567.6034697231709
61,567.6425433682074
62,567.6691580011266
63,567.6791679610884
64,567.6698378234693
65,567.6401319437681
66,567.5907708404409
67,567.524071540961
68,567.4436280942267
69,567.3539054738422
70,567.2598084753172
71,567.1662589296873
72,567.0777954086598
73,566.9982142228566
74,566.9302846030646
75,566.8755705786099
76,566.8343739669164
77,566.8057921532123
78,566.787870957145
79,566.7778258672574
80,566.7723027165111
81,566.7676515350638
82,566.7601935372626
83,566.746469551514
84,566.7234655114023
85,566.6888129814309
86,566.640963059462
87,566.579335260041
88,566.504442198229
89,566.4179738678239
90,566.3227974840999
91,566.2228177851116
92,566.1226704430995
93,566.027274861625
94,565.9413137686915
95,565.8687145136317
96,565.8121959373378
97,565.7729367411027
98,565.7504149818772
99,565.7424510302917
100,565.7454577921122
101,565.7548727744949
102,565.7657228291553
103,565.773250595723
104,565.7735077963323
105,565.7638049987374
106,565.7429236994982
107,565.7110528503396
108,565.6694838804437
109,565.6201543035863
110,565.5651583335565
111,565.5063406638524
112,565.445051652997
113,565.3820776976008
114,565.3177000959948
115,565.2518091364229
116,565.1840139711841
117,565.1137266055684
118,565.0402378875292
119,564.9628287129125
120,564.8809580794897
121,564.7945318837703
122,564.7041924313785
123,564.6115169487484
124,564.5190180576417
125,564.4299110645876
126,564.347714168068
127,564.2758169736172
128,564.21715264842
129,564.1740519269996
130,564.1482790994139
131,564.1411747835817
132,564.1537788209472
133,564.1868123201594
134,564.2404708437214
135,564.3140804939392
136,564.4057397226907
137,564.5120861128426
138,564.6282974894973
139,564.7483858615152
140,564.8657881820844
141,564.9741940966234
142,565.0684738844463
143,565.1455102722118
144,565.2047411154332
145,565.2482951865126
146,565.2807105852378
147,565.3083159362745
148,565.3384084107532
149,565.3783789534093
150,565.4349114347244
151,565.5133272132007
152,565.617093401397
153,565.7474940533314
154,565.9034759913524
155,566.0816964795945
156,566.2767952478779
157,566.4818835835048
158,566.6891978661067
159,566.8908249754139
160,567.0793958428857
161,567.2486686166797
162,567.3939667868444
163,567.5124698315848
164,567.6033573976383
165,567.6677935462138
166,567.7087323639522
167,567.7305475676385
168,567.7385289930236
169,567.7383250444633
170,567.7354222410904
171,567.7347321920669
172,567.7403086341484
173,567.7551658495008
174,567.7811471065778
175,567.8188157469066
176,567.8673944849189
177,567.924814783214
178,567.9879231109888
179,568.0528332103603
180,568.1153567639634
181,568.1714265793911
182,568.2174479130832
183,568.2505488417656
184,568.2687260072353
185,568.2708929095305
186,568.2568431025612
187,568.2271485382972
188,568.1830223557521
189,568.1261782929322
190,568.0587148391666
191,567.983044294135
192,567.9018691709645
193,567.818177316947
194,567.7352014418531
195,567.6562944534024
196,567.5847105337097
197,567.5233258769282
198,567.474351337672
199,567.4390758665606
200,567.4176583042897
201,567.4089817976528
202,567.4105999124079
203,567.418814327712
204,567.428911616417
205,567.4355538315635
206,567.4332835425387
207,567.4170806478721
208,567.3828944409449
209,567.3280732492414
210,567.2516353434696
211,567.1543629721787
212,567.0387306020056
213,566.9086801603155
214,566.7692425962695
215,566.6260092919957
216,566.4844961052817
217,566.3494969448589
218,566.2245525727445
219,566.1116392600323
220,566.0111212679486
221,565.9219458042019
222,565.8420199157853
223,565.7687010731707
224,565.6993398179657
225,565.6318135917179
226,565.5649816295761
227,565.4989861655013
228,565.4353404221964
229,565.3767772135726
230,565.3268693537804
231,565.2894665515277
232,565.2680251076625
233,565.2649330024211
234,565.2809418378234
235,565.3148053434002
236,565.3632002599078
237,565.4209725504185
238,565.4817048634033
239,565.5385431886633
240,565.5851689673249
241,565.6167715637565
242,565.6308637300865
243,565.6277886522599
244,565.6108040048703
245,565.585702074642
246,565.5600165817206
247,565.5419485923115
248,565.5391963045521
249,565.5578851283301
250,565.6017666037013
251,565.6718007806281
252,565.7661657980672
253,565.8806559667446
254,566.0093563927109
255,566.1454441396278
256,566.28196682037
257,566.4124764083447
258,566.5314408599122
259,566.6344116138697
260,566.7179777456057
261,566.7795778449444
262,566.8172631298537
263,566.8295025868896
264,566.8150950925098
265,566.7732187923459
266,566.7036109356759
267,566.6068296525709
268,566.4845133950342
269,566.3395445499424
270,566.1760484285937
271,565.9992052462089
272,565.8148992700781
273,565.629257706429
274,565.4481395495333
275,565.2766339273088
276,565.1186264025138
277,564.9764843685379
278,564.8508949116043
279,564.7408687553952
280,564.6439120387233
281,564.5563599511692
282,564.4738462092705
283,564.3918448519821
284,564.3061925146283
285,564.2135121607723
286,564.111506651326
287,563.9991347244479
288,563.8766963131219
289,563.7458418740073
290,563.6095028205906
291,563.4717346647044
292,563.3374701847449
293,563.2121844155765
294,563.101471654967
295,563.0105369188236
296,562.9436221978143
297,562.9034209211251
298,562.8905708531872
299,562.903340429197
300,562.9376158107126
301,562.9872403970586
302,563.0446674460029
303,563.1018012794306
304,563.1508632610565
305,563.1851361449479
306,563.1994955270253
307,563.1906976882061
308,563.1574362612597
309,563.1002067534146
310,563.0210364204084
311,562.9231412930724
312,562.8105579532495
313,562.6877830221338
314,562.5594542988085
315,562.4301121724743
316,562.304070231721
317,562.1854005978204
318,562.0780099572505
319,561.9857489720772
320,561.912469873873
321,561.8619460337155
322,561.8376096769753
323,561.842139231166
324,561.8769971675687
325,561.94204479786
326,562.0353362643352
327,562.1531435289141
328,562.2902169135692
329,562.4402543697062
330,562.596525979919
331,562.7525647988415
332,562.9028040764385
333,563.0430450016443
334,563.170687921622
335,563.2847250455798
336,563.3855353842023
337,563.4745346304369
338,563.5537395703124
339,563.6253284986637
340,563.6912970553772
341,563.7532859594219
342,563.812589933521
343,563.8702896295947
344,563.9274234018943
345,563.9851271893441
346,564.0446868326137
347,564.107462780438
348,564.1746789489633
349,564.2471148766188
350,564.3247813958075
351,564.4066760979994
352,564.4907039102966
353,564.573817781329
354,564.652389347516
355,564.7227619094133
356,564.7818801805465
357,564.8278554251377
358,564.8603282832494
359,564.8805360615164
360,564.8910631115527
361,564.8953304086364
362,564.8969412057327
363,564.899029153719
364,564.9037502683124
365,564.9120237676995
366,564.9235629447534
367,564.9371546685688
368,564.9510702879022
369,564.9634602125226
370,564.9726208318999
371,564.97710281396
372,564.9757015709089
373,564.9673986396502
374,564.9513129588054
375,564.9266971323342
376,564.8929904423383
377,564.8499239301049
378,564.7976625279738
379,564.7369554533542
380,564.6692474058176
381,564.596698589847
382,564.5220885651149
383,564.4486233073887
384,564.3796913267961
385,564.3186086298202
386,564.2683738585358
387,564.2314467188966
388,564.2095635114082
389,564.2036003092318
390,564.2134834717813
391,564.2381358222243
392,564.2754460854977
393,564.3222665774058
394,564.3744704302563
395,564.4271113408012
396,564.474715308158
397,564.5117083609914
398,564.5329608236549
399,564.5344060855219
400,564.5136656926579
401,564.4705860612354
402,564.4075738597916
403,564.3296200634181
404,564.2439419145387
405,564.1592512183864
406,564.0847528895298
407,564.029045169073
408,563.9991036790248
409,563.9994959840411
410,564.0319190113523
411,564.0950920534398
412,564.1849786039194
413,564.2952687598545
414,564.4180493292066
415,564.5446087607753
416,564.6663303999984
417,564.7756028917421
418,564.8666404613623
419,564.9360852544737
420,564.9832749974271
421,565.0101122242505
422,565.0205609023413
423,565.0198861324399
424,565.0137968852023
425,565.0076388210491
426,565.0057424629086
427,565.0109925034178
428,565.0246535736151
429,565.046456756915
430,565.074913423274
431,565.1077838336066
432,565.1426009894816
433,565.1771495141658
434,565.2098249492489
435,565.2398320405708
436,565.267207007925
437,565.2926740554196
438,565.3173770290566
439,565.3425560416072
440,565.3692549550782
441,565.3981384056627
442,565.4294584620179
443,565.4631525901278
444,565.4990119514316
445,565.5368567795165
446,565.5766772129565
447,565.6187115054503
448,565.6634349172703
449,565.7114411348723
450,565.7632216009458
451,565.8188771899395
452,565.8778239537079
453,565.9385759862253
454,565.9986890788117
455,566.054914031309
456,566.1035492781501
457,566.1409307725677
458,566.1639713588133
459,566.1706541271603
460,566.1603862742041
461,566.134144274504
462,566.094397812437
463,566.044863562201
464,565.9901656227788
465,565.9354550079461
466,565.8860016385654
467,565.8467594971368
468,565.8219248134288
469,565.8145333189339
470,565.8261493848086
471,565.8566839559883
472,565.9043579348497
473,565.965818309987
474,566.0364111626592
475,566.110603535783
476,566.1825200945868
477,566.2465327686465
478,566.2978270614768
479,566.3328691498562
480,566.3497057295804
481,566.3480442727954
482,566.3290968769394
483,566.2952265763571
484,566.2494847586767
485,566.1951451494391
486,566.1353214020522
487,566.0727143459796
488,566.00948911473
489,565.9472540587802
490,565.8871107408372
491,565.8297503711843
492,565.7755715385347
493,565.724794256117
494,565.677553658781
495,565.6339618688261
496,565.5941224643134
497,565.5580874949121
498,565.5257770954469
499,565.4969160251806
500,565.4710443065741
501,565.447624777739
502,565.4262302104172
503,565.4067741155134
504,565.389744410492
505,565.3763862331094
506,565.3687603348989
507,565.3696014837201
508,565.3819426993964
509,565.4085536773968
510,565.4513219060063
511,565.5107321631534
512,565.5855670307109
513,565.6728901159318
514,565.7683133874821
515,565.8664974723406
516,565.9617903848853
517,566.048888231833
518,566.1234167608804
519,566.1823789135716
520,566.224458516685
521,566.250188121464
522,566.261982792339
523,566.2640293466916
524,566.2620161447328
525,566.2626970582206
526,566.2733035060922
527,566.3008470462082
528,566.351383754081
529,566.4293275727907
530,566.5368981574974
531,566.6737749725517
532,566.8370072923276
533,567.0212024123374
534,567.2189887327512
535,567.4217235063223
536,567.6203709021031
537,567.8064178510613
538,567.9726649863371
539,568.1137643874866
540,568.2264522118643
541,568.309485442203
542,568.3633170009397
543,568.3895629099408
544,568.390357173998
545,568.3677371234229
546,568.3232091456796
547,568.2575912665886
548,568.1711417841456
549,568.0639090128888
550,567.9362020252483
551,567.7890794482273
552,567.6247629245601
553,567.4468946499943
554,567.2605781022353
555,567.0721673407662
556,566.8887986053966
557,566.7176935861077
558,566.5653128350996
559,566.4364889446866
560,566.3336989690334
561,566.2566257580401
562,566.2021038451571
563,566.1644626614196
564,566.136200626736
565,566.1088758881065
566,566.0740868944557
567,566.0244239273025
568,565.9542858740823
569,565.8604700256149
570,565.7424627810783
571,565.6023943783035
572,565.4446695167054
573,565.275335698428
574,565.1012914540158
575,564.9294625320545
576,564.766077908074
577,564.6161494872965
578,564.4832040050777
579,564.3692544115564
580,564.2749543216121
581,564.1998633608051
582,564.1427553489093
583,564.1019102599043
584,564.0753440286927
585,564.0609545273867
586,564.0565880836325
587,564.0600437871552
588,564.0690373348093
589,564.081152743488
590,564.093812048509
591,564.104281698564
592,564.1097190304152
593,564.1072559194607
594,564.0941187639835
595,564.0677853069374
596,564.0261735735322
597,563.967845786935
598,563.8921950221791
599,563.7995771346476
600,563.6913656489451
601,563.5699322613704
602,563.4385681783914
603,563.3013561306212
604,563.1629897264753
605,563.0285254772118
606,562.9030557488554
607,562.7913192087982
608,562.6973062914234
609,562.6239378001329
610,562.5728755220623
611,562.5444776873724
612,562.5378725329891
613,562.5511154164653
614,562.5814150765996
615,562.6254367267067
616,562.6796903407571
617,562.7409850008828
618,562.8068836623758
619,562.8760499775747
620,562.9483694175117
621,563.0247685217989
622,563.1067406698185
623,563.1956852995252
624,563.2922403490675
625,563.3957992588142
626,563.5043479923128
627,563.6146625435521
628,563.7228092132812
629,563.8248156259584
630,563.9173497123804
631,563.9982596193566
632,564.0668725293665
633,564.1240082744382
634,564.171728786204
635,564.2129079070148
636,564.2507497302392
637,564.288388805035
638,564.3286620296388
639,564.3740599654302
640,564.4267823664247
641,564.488784759425
642,564.5617294488252
643,564.6468265570611
644,564.7446254436132
645,564.8548491271123
646,564.976337003289
647,565.1071022169622
648,565.2444673862553
649,565.3852381193244
650,565.5258921508321
651,565.6627776191505
652,565.7923187784634
653,565.9112263720599
654,566.0167050342702
655,566.1066401913248
656,566.1797382153522
657,566.2355976996772
658,566.2747067651375
659,566.2983759592665
660,566.308619862683
661,566.3080017496649
662,566.2994599782395
663,566.2861330484577
664,566.2711871214609
665,566.2576348980625
666,566.248130537295
667,566.2447358469673
668,566.2486753662935
669,566.2601235642428
670,566.2780814537241
671,566.3003910906654
672,566.3239102401398
673,566.3448413675458
674,566.3591834740711
675,566.3632497178539
676,566.354176266882
677,566.3303466680707
678,566.2916683135215
679,566.2396626276768
680,566.1773688455031
681,566.1090976487906
682,566.0400849096754
683,565.9760860826132
684,565.922936173419
685,565.8860924008468
686,565.8701763009514
687,565.8785406682975
688,565.9129105140938
689,565.9731714516
690,566.0573680978258
691,566.16191879551
692,566.2819925701119
693,566.4119781907493
694,566.545998197639
695,566.6784376800327
696,566.8044451951565
697,566.920336372145
698,567.0238182821352
699,567.1139800963831
700,567.1910645372535
701,567.2561092872658
702,567.3105840721283
703,567.3561348172279
704,567.3944958633147
705,567.4275635861677
706,567.4575589520575
707,567.4871657832784
708,567.5195332821745
709,567.5580751404184
710,567.6060674706906
711,567.6661221487101
712,567.739665618737
713,567.8265605144559
714,567.9249624533337
715,568.0314339864732
716,568.141281680432
717,568.2490577304421
718,568.3491602870449
719,568.4364578300266
720,568.5068546674897
721,568.5577227476218
722,568.5881521326131
723,568.5990035131508
724,568.5927678154703
725,568.573251224227
726,568.5451153953643
727,568.51331580784
728,568.4824987932911
729,568.4564370117431
730,568.4375881297323
731,568.4268386251978
732,568.4234543712441
733,568.4252266772781
734,568.4287871861757
735,568.4300558192346
736,568.4247702565358
737,568.409028712306
738,568.379773549108
739,568.33515202145
740,568.2747036980895
741,568.1993445066108
742,568.1111546537256
743,568.0130256516802
744,567.9082556795486
745,567.8001832450423
746,567.6919198957191
747,567.586201574025
748,567.4853403617391
749,567.3912325883275
750,567.3053756634495
751,567.2288713665685
752,567.1624335997705
753,567.10644023826
754,567.0610495685463
755,567.0263558138042
756,567.0025232222004
757,566.9898413875002
758,566.9886811388478
759,566.9993707108089
760,567.0220272400976
761,567.0563660198893
762,567.1014935278902
763,567.1556949778974
764,567.216252800326
765,567.2793563394656
766,567.3401638892967
767,567.3930540816968
768,567.4320712373933
769,567.4515450466828
770,567.4468427486664
771,567.4151704253229
772,567.3562826915472
773,567.2729290981184
774,567.1708973744801
775,567.0585980446072
776,566.9462316164081
777,566.8446579305538
778,566.7641384666152
779,566.7131450026006
780,566.6974178716748
781,566.7194116774989
782,566.7781945578839
783,566.8697914837054
784,566.9879032130598
785,567.1248885374737
786,567.2728548652312
787,567.4246703406792
788,567.5747208807664
789,567.7192981364276
790,567.8565931428677
791,567.9863533377461
792,568.1093209318589
793,568.2265989077434
794,568.3390835490108
795,568.4470687651483
796,568.5500830606829
797,568.6469720711312
798,568.7361890258379
799,568.8162113581537
800,568.8859810104959
801,568.9452746344101
802,568.9949348774584
803,569.0369202313905
804,569.0741565548661
805,569.1102033102618
806,569.1487812665031
807,569.1932399007499
808,569.2460636568627
809,569.3085148639111
810,569.3804796580911
811,569.4605310220455
812,569.546174370803
813,569.6342154380009
814,569.7211865910857
815,569.8037730896328
816,569.8791906475826
817,569.9454839708153
818,570.0017382911334
819,570.0482085454137
820,570.0863657852341
821,570.1188442922037
822,570.1492634790575
823,570.1819107475378
824,570.2213013477513
825,570.2716600576879
826,570.336384056815
827,570.4175500608023
828,570.5155317606373
829,570.6287988904805
830,570.7539670740758
831,570.8861426056533
832,571.0195527897503
833,571.1483811557495
834,571.2676597982859
835,571.3740352576156
836,571.466242768822
837,571.5451978075318
838,571.613713843403
839,571.675938225905
840,571.7366381521443
841,571.8004668563213
842,571.8713138439933
843,571.9518107420752
844,572.0430354827945
845,572.1444296033768
846,572.2539111868215
847,572.3681348241211
848,572.482834682747
849,572.5931929247591
850,572.6941931654666
851,572.7809368111216
852,572.8489150305885
853,572.8942366812187
854,572.9138112077344
855,572.9054808838492
856,572.868093351861
857,572.8015041307791
858,572.7065047550124
859,572.5846922405976
860,572.4383217877889
861,572.2701919558724
862,572.0835839356048
863,571.8822309730381
864,571.6702661702628
865,571.4521050723258
866,571.2322497774423
867,571.0150285731129
868,570.8043015334313
869,570.6031754280267
870,570.4137792346394
871,570.2371453374308
872,570.073222853685
873,569.9210272680288
874,569.7789062469839
875,569.6448732057972
876,569.5169353926082
877,569.3933391180933
878,569.2726802570061
879,569.1538710221952
880,569.0359940021203
881,568.91810151829
882,568.7990315321905
883,568.677310689012
884,568.5511995384445
885,568.4189023491679
886,568.278915555216
887,568.1304381412831
888,567.9737371072071
889,567.8103662934064
890,567.6431725194225
891,567.4760718016217
892,567.3136232131309
893,567.1604618992695
894,567.0206792767586
895,566.8972564839485
896,566.7916567946976
897,566.7036596584229
898,566.6314760504861
899,566.5721256133734
900,566.5219974668437
901,566.4774861073861
902,566.4355977259935
903,566.3944399991132
904,566.3535241597345
905,566.3138243243712
906,566.2775644736379
907,566.247747356358
908,566.2275034530347
909,566.2193986174173
910,566.2248569344731
911,566.2438184416482
912,566.274689154268
913,566.3145833776404
914,566.3598053459262
915,566.406463714818
916,566.4510777077902
917,566.4910441183522
