frame_number,force
0,831.162780000083
1,831.4314140153206
2,831.6841831719804
3,831.9065710078792
4,832.0866356629039
5,832.2159895830686
6,832.290422262842
7,832.310096096643
8,832.279303827067
9,832.205836424381
10,832.1000577580955
11,831.9738038258869
12,831.8392192068214
13,831.7076298365374
14,831.5885448065476
15,831.4888780849079
16,831.4124734644956
17,831.3599936474826
18,831.3291902771209
19,831.3155113956774
20,831.3129466634084
21,831.3149755267173
22,831.3154732931541
23,831.3094444656115
24,831.2934890259226
25,831.2659593535424
26,831.2268275294955
27,831.1773431215827
28,831.1195959337542
29,831.0560902075958
30,830.9893977374361
31,830.921914130681
32,830.8557138398129
33,830.7924865596063
34,830.7335281248553
35,830.6797473794073
36,830.6316517036238
37,830.5893040076584
38,830.5522854603408
39,830.5197111698736
40,830.490320632282
41,830.4626340280283
42,830.4351580612417
43,830.406631359335
44,830.376292918739
45,830.3441332974501
46,830.3110719172321
47,830.2790172968752
48,830.2508005717988
49,830.2299958291876
50,830.2206398794121
51,830.2268554864069
52,830.2523869391636
53,830.30007474286
54,830.3713137575754
55,830.4655561110941
56,830.5799460400946
57,830.7091983697275
58,830.8458245868098
59,830.9807503230186
60,831.1042703138539
61,831.2071970003881
62,831.2820190637394
63,831.3238959168151
64,831.3313407261504
65,831.3064743283178
66,831.2547845899655
67,831.184411625006
68,831.1050758493614
69,831.0268350985396
70,830.9588741717947
71,830.9084929359366
72,830.8803876877719
73,830.8762532535097
74,830.8947036647595
75,830.9315132817517
76,830.9801792333079
77,831.0327690046088
78,831.0809516515174
79,831.1170534113961
80,831.1349636960942
81,831.130758500172
82,831.1029871186554
83,831.0526464974484
84,830.9829135474282
85,830.898712649033
86,830.8061813244631
87,830.7120886225727
88,830.6232684494352
89,830.5461347205289
90,830.4863217344212
91,830.4484443127274
92,830.4359297090793
93,830.4508685511173
94,830.4938689920884
95,830.5639509358653
96,830.6585512651324
97,830.7737039052286
98,830.9044091375965
99,831.0451399426223
100,831.1903882261666
101,831.3351512231376
102,831.4752866878795
103,831.6077021666698
104,831.7303779677653
105,831.8422552774596
106,831.9430449879612
107,832.0330144160874
108,832.1127865303563
109,832.1831671296095
110,832.2450217439836
111,832.2992337400204
112,832.3467522256784
113,832.3886896020867
114,832.4263993170467
115,832.4614831313245
116,832.4957229741541
117,832.5309622751333
118,832.5689608665259
119,832.6112371429218
120,832.6589123883225
121,832.7125824409782
122,832.7722428149574
123,832.8372746428425
124,832.9064759010652
125,832.9781235845272
126,833.0500796373966
127,833.1199724098183
128,833.1854670352996
129,833.2445918946217
130,833.296048804969
131,833.3394281151031
132,833.3752765676253
133,833.405007637538
134,833.4306846940141
135,833.4547349808859
136,833.4796564696471
137,833.5077625031172
138,833.5409882282845
139,833.5807689152927
140,833.6279879079203
141,833.6829764135423
142,833.7455363040347
143,833.8149579144108
144,833.8900147026095
145,833.9689345495821
146,834.0493755493839
147,834.1284590782751
148,834.2029120950806
149,834.2693407874635
150,834.3246152582748
151,834.3663046878706
152,834.3930745293246
153,834.404952145829
154,834.4033887398302
155,834.3910873563503
156,834.3716177667987
157,834.3488861566082
158,834.3265603758272
159,834.3075640820563
160,834.2937390658523
161,834.2857303748431
162,834.283083949577
163,834.2844867028014
164,834.2880509676071
165,834.2915634488523
166,834.2926752558194
167,834.2890702829069
168,834.2786697875531
169,834.2598922295848
170,834.2319181383283
171,834.1948638428061
172,834.1497778678681
173,834.0984317774786
174,834.0429497639961
175,833.9853752637943
176,833.9272951628914
177,833.8696348448213
178,833.8126984047827
179,833.7564554168049
180,833.7009875780606
181,833.6469431831649
182,833.5958365017116
183,833.5500825837352
184,833.512758195376
185,833.4871776264049
186,833.476408605012
187,833.4828119282205
188,833.5076205301091
189,833.5505491183211
190,833.6094596271139
191,833.680155632174
192,833.756392900511
193,833.8301655674471
194,833.8922761449386
195,833.9331401909474
196,833.9437300808605
197,833.9165448619646
198,833.8465037766862
199,833.7316741907182
200,833.5737445836069
201,833.3781587386867
202,833.1538611469576
203,832.912658072794
204,832.6682509108704
205,832.435040203005
206,832.2268332120922
207,832.0556090263194
208,831.9304846912814
209,831.8569794231784
210,831.8366196260755
211,831.8668975258755
212,831.9415851444166
213,832.0513829544201
214,832.1848418854615
215,832.3294596711136
216,832.4728334707689
217,832.6037457274771
218,832.71306194831
219,832.7943352503438
220,832.8440581251152
221,832.8615741326627
222,832.8487336152226
223,832.8094155160296
224,832.7490247097562
225,832.6740188898925
226,832.5914560346139
227,832.5085254296707
228,832.4320463182077
229,832.3679607964218
230,832.3208734742655
231,832.2936898486948
232,832.2873936382225
233,832.3009921608599
234,832.3316482713535
235,832.3750031524581
236,832.4256700826551
237,832.4778462417532
238,832.5259630729981
239,832.5652882827079
240,832.5924006667848
241,832.6054778325572
242,832.6043694094006
243,832.5904684577179
244,832.5664224207443
245,832.5357341552616
246,832.5023064762629
247,832.4699893856958
248,832.4421859904475
249,832.4215523517978
250,832.4098047258939
251,832.4076418524523
252,832.4147869945058
253,832.4301325161064
254,832.4519377341343
255,832.4780207696597
256,832.5059112526266
257,832.5329709443799
258,832.5565111506352
259,832.5739312253075
260,832.5828863012974
261,832.5814740719815
262,832.5684095850263
263,832.5431412547721
264,832.5058655123576
265,832.4574257509369
266,832.3991216015114
267,832.3324887995385
268,832.2591226703727
269,832.1806022569142
270,832.0985312128571
271,832.0146634909712
272,831.9310519811386
273,831.8501582870191
274,831.7748770528613
275,831.7084398743287
276,831.6541765694774
277,831.6151421080043
278,831.5936638439271
279,831.5909022480021
280,831.6065269897653
281,831.6385865890026
282,831.6836073175372
283,831.7369082055345
284,831.7930718807621
285,831.8464793614435
286,831.8918190380831
287,831.924518587578
288,831.941096441894
289,831.9394471091797
290,831.9190514937596
291,831.881071006471
292,831.8282776524798
293,831.7647970012009
294,831.6956829443516
295,831.626382508831
296,831.5621655255046
297,831.5075832473746
298,831.4659988352689
299,831.4392196536941
300,831.4272604347057
301,831.4282685590547
302,831.4386381404008
303,831.4533256794689
304,831.4663557346864
305,831.4714688941476
306,831.4628298534248
307,831.4357053684492
308,831.3870412985555
309,831.3158874464708
310,831.2236227535958
311,831.113934134837
312,830.9925163007769
313,830.866491608147
314,830.7435936866734
315,830.6312072711123
316,830.5353988966095
317,830.4600960650347
318,830.4065611156919
319,830.3732568687349
320,830.3561299031082
321,830.3492624904172
322,830.3457772580632
323,830.338835991094
324,830.3225728997742
325,830.2928383161599
326,830.2476753413159
327,830.1874910901653
328,830.1149171780746
329,830.0343856937151
330,829.9514747936092
331,829.8721042618688
332,829.8016944108523
333,829.7444332430027
334,829.7027932513819
335,829.677377184568
336,829.667075306197
337,829.6694403242191
338,829.681163642942
339,829.6985543464247
340,829.7179507864212
341,829.7360252570477
342,829.7499774213951
343,829.7576394170321
344,829.7575183335238
345,829.7487837409495
346,829.731190584465
347,829.7049321191911
348,829.6704479232917
349,829.6282485042899
350,829.5788322448856
351,829.5227497808803
352,829.4608224304362
353,829.3944639993607
354,829.3260132082984
355,829.2589711048155
356,829.1980499285527
357,829.1489725632053
358,829.118018407245
359,829.1113786874607
360,829.1344272650717
361,829.191015816491
362,829.2828846292375
363,829.4092633608425
364,829.5667179018176
365,829.7492723979566
366,829.9488042977631
367,830.155680635747
368,830.3595718835998
369,830.5503474108136
370,830.7189404272383
371,830.8580811177775
372,830.9628240718209
373,831.0308239007801
374,831.0623376599624
375,831.0599597485605
376,831.0281272586703
377,830.9724671293092
378,830.8990810299755
379,830.8138706186278
380,830.7219928525616
381,830.6275079254033
382,830.5332503423879
383,830.440922378827
384,830.3513766099052
385,830.2650185033552
386,830.182230750399
387,830.1037156335707
388,830.0306810242914
389,829.9648509259949
390,829.9083335358999
391,829.8633984770503
392,829.8321996118567
393,829.8164610840437
394,829.8171488578691
395,829.8341751279295
396,829.8662039737372
397,829.9106213082742
398,829.9636960587987
399,830.0209090461963
400,830.0773895717585
401,830.1283930400626
402,830.1697626762831
403,830.1983229371745
404,830.212153225946
405,830.2107068762758
406,830.1947752515392
407,830.1663293948866
408,830.1282839110936
409,830.0842232379027
410,830.0381219198641
411,829.9940819341568
412,829.9560988828136
413,829.9278589136069
414,829.9125669234871
415,829.9128073731861
416,829.9304297566728
417,829.9664410038472
418,830.0208977961847
419,830.0928194350821
420,830.1801614126979
421,830.2798859241069
422,830.3881411045916
423,830.5005272633928
424,830.6124021500146
425,830.7191729219307
426,830.8165421506785
427,830.9007073135436
428,830.9685379063368
429,831.0177533252215
430,831.0470991665255
431,831.0564962205169
432,831.0471403371164
433,831.0215539401657
434,830.9835989988127
435,830.9384420674858
436,830.8924318238312
437,830.8528330981686
438,830.8273725644603
439,830.8235941639207
440,830.8480859080248
441,830.9056938518696
442,830.9988566685529
443,831.1271747567657
444,831.2872877395242
445,831.473085888515
446,831.6762314457621
447,831.8869247344073
448,832.0948259947781
449,832.2900364132032
450,832.4640416060308
451,832.6105203274448
452,832.7259241444558
453,832.8097503128434
454,832.8644635272565
455,832.8950687150508
456,832.9083911573181
457,832.9121723579315
458,832.9141253753888
459,832.9210993876135
460,832.9384739787527
461,832.9698413196891
462,833.0169593242326
463,833.0799038434236
464,833.1573302807982
465,833.2467671484026
466,833.3448933675157
467,833.4477873604002
468,833.5511645546269
469,833.6506290841413
470,833.7419570396096
471,833.8214100010039
472,833.8860527030034
473,833.934026814027
474,833.9647297084526
475,833.9788624307625
476,833.9783271664013
477,833.9659701021286
478,833.9451971807458
479,833.9195340873695
480,833.8922304094015
481,833.8660052139453
482,833.8430004340988
483,833.8249530260425
484,833.8135227685116
485,833.810646437429
486,833.818768963716
487,833.8408408829267
488,833.8800450538595
489,833.9392938780192
490,834.0206046697804
491,834.1244990141435
492,834.2495631038048
493,834.3922565788536
494,834.5470025238701
495,834.7065556867037
496,834.8626212414597
497,835.0066645363942
498,835.1308120947846
499,835.2287105237077
500,835.2962011686786
501,835.3316954619033
502,835.336195381972
503,835.3129777938211
504,835.2670293146102
505,835.2043623381187
506,835.131350073273
507,835.0541830085452
508,834.978481173075
509,834.9090267189647
510,834.8495474961992
511,834.8025018465024
512,834.7688714602737
513,834.7480282228028
514,834.7377701664101
515,834.7345980048775
516,834.7342267494588
517,834.7322347131322
518,834.7247003301501
519,834.7086895279415
520,834.682512172051
521,834.6457330403903
522,834.5989813235664
523,834.5436414904729
524,834.4815198490546
525,834.414566642138
526,834.3447036025836
527,834.273773389269
528,834.2035960989465
529,834.1360889367627
530,834.0733805976643
531,834.0178440669786
532,833.9719936650696
533,833.9382413714914
534,833.9185593955945
535,833.9141197502323
536,833.9249676187576
537,833.949759223981
538,833.9855897895387
539,834.0279530722678
540,834.0708841574857
541,834.1073248287706
542,834.1297154937978
543,834.1307625446151
544,834.1042673998454
545,834.0458618990502
546,833.9535032622565
547,833.8276468101201
548,833.6711104515973
549,833.488723712019
550,833.2868748982788
551,833.0730345618402
552,832.8552858898254
553,832.6418699589037
554,832.4407502784205
555,832.25919580182
556,832.10337659484
557,831.9779753508982
558,831.8858356770515
559,831.8276789024716
560,831.8019284934354
561,831.8046971528518
562,831.8300024266355
563,831.8702502849369
564,831.9169586298511
565,831.9616197420064
566,831.9965605540025
567,832.0156624447195
568,832.0148345647531
569,831.9921788143056
570,831.9478349159725
571,831.8835557171141
572,831.8021272149481
573,831.706780907806
574,831.6007202448311
575,831.4868140510442
576,831.367446666148
577,831.244491020265
578,831.1193800564604
579,830.9932651228044
580,830.8672481624076
581,830.7426583407033
582,830.621321693116
583,830.5057524934684
584,830.3991904801226
585,830.305433532576
586,830.2284678955847
587,830.1719543920736
588,830.1386656365617
589,830.1299747358051
590,830.1454748711315
591,830.1827819637699
592,830.237556536928
593,830.303768537832
594,830.3742016024997
595,830.4411499507852
596,830.4972190855203
597,830.5361145226635
598,830.5532935450009
599,830.5463691974751
600,830.5152056198842
601,830.4617226037445
602,830.389496401984
603,830.3032675363861
604,830.208447857575
605,830.110685972715
606,830.0155185811988
607,829.9281055059823
608,829.8530220787959
609,829.7940752218213
610,829.7541210282664
611,829.7348807167714
612,829.7367713592615
613,829.758789454686
614,829.7985019692454
615,829.8521912165996
616,829.9151618459471
617,829.9821727814387
618,830.0479264151306
619,830.107534698896
620,830.1568910843415
621,830.1929163473161
622,830.213695290624
623,830.218540640247
624,830.2080028010487
625,830.1838210750634
626,830.1488070480191
627,830.1066581055945
628,830.0617058019845
629,830.0186089360396
630,829.9820076157183
631,829.9561604088182
632,829.944589320141
633,829.9497594027624
634,829.9728270367112
635,830.0135012749469
636,830.0700586943489
637,830.1395197541566
638,830.2179506063666
639,830.3008333412157
640,830.3834600885701
641,830.4613285890833
642,830.5305238338153
643,830.5880594344933
644,830.6321342474888
645,830.6622498204581
646,830.6791529774889
647,830.6846211291313
648,830.6811643644958
649,830.6717328037684
650,830.6594810175051
651,830.6475912722836
652,830.6391335798232
653,830.6369423761944
654,830.6434921038243
655,830.6607531475659
656,830.6900233507557
657,830.7317582142678
658,830.7854413350634
659,830.8495330499081
660,830.921517622327
661,830.9980500776908
662,831.0751914272422
663,831.1487160061982
664,831.2144684615035
665,831.268734523364
666,831.3085744201132
667,831.332061844285
668,831.3383825326695
669,831.3277751206986
670,831.3013370307032
671,831.2607587740144
672,831.2080751388917
673,831.1455157709913
674,831.0754960138528
675,831.0007238694983
676,830.924338049602
677,830.8499666299903
678,830.7816207722501
679,830.7234023183692
680,830.679084098905
681,830.6516899799136
682,830.6432202854478
683,830.6546091576191
684,830.6858889143308
685,830.7364474387756
686,830.8052559259592
687,830.8910047614254
688,830.9921541196101
689,831.1069335643815
690,831.2333132494011
691,831.368956068481
692,831.5111703954891
693,831.6569052552348
694,831.8028344186505
695,831.9455436738465
696,832.0817779353807
697,832.2086649813692
698,832.3238441145118
699,832.4254779099431
700,832.5121775359145
701,832.5829071114453
702,832.6369426478066
703,832.6739399343643
704,832.6941203252064
705,832.6985324530386
706,832.6893019498592
707,832.6697488839611
708,832.6442575361493
709,832.6178450242053
710,832.5954792938227
711,832.5812971227944
712,832.5779211406125
713,832.5860513840965
714,832.6044296559372
715,832.6301795869929
716,832.6594386543544
717,832.6881372007982
718,832.7127576101586
719,832.7309273458079
720,832.7417499385282
721,832.7458417021177
722,832.7451058595788
723,832.7423234076862
724,832.7406546031985
725,832.7431282775342
726,832.7521716495759
727,832.7692222544721
728,832.7944660855632
729,832.8267443109254
730,832.8636501486169
731,832.9018043138728
732,832.9372692866982
733,832.9660416497153
734,832.984542033147
735,832.990016175731
736,832.9807852009155
737,832.9563256468394
738,832.9171896646044
739,832.8647865401788
740,832.8010588973656
741,832.7281134161045
742,832.6478919868482
743,832.5619697621161
744,832.4715325169659
745,832.3775299473007
746,832.2809477748906
747,832.183113347144
748,832.0859553676225
749,831.992161997882
750,831.9051996405152
751,831.829164125898
752,831.7684516390707
753,831.7272683424975
754,831.7090363980535
755,831.7157829572592
756,831.7476133543904
757,831.8023775151502
758,831.8756357645457
759,831.9609961349869
760,832.0508180016777
761,832.1371773973525
762,832.2129105090694
763,832.2725253508621
764,832.3128017675695
765,832.3329711605996
766,832.3344569710372
767,832.3202472406646
768,832.2940524274271
769,832.2594591312037
770,832.2192922666409
771,832.1753280019224
772,832.1283849512748
773,832.0787111371458
774,832.0265110566143
775,831.9724329694004
776,831.9178675109838
777,831.8649842329487
778,831.8165171988868
779,831.7753729966364
780,831.7441701092907
781,831.7248294731231
782,831.7183131725054
783,831.7245543833276
784,831.7425671632282
785,831.7706949023894
786,831.8069414445947
787,831.8493107181112
788,831.8960683559714
789,831.9458543701938
790,831.9976256230224
791,832.0504759222197
792,832.1034343856605
793,832.1553393926491
794,832.2048270090633
795,832.2504089836164
796,832.2905887019893
797,832.3239712282214
798,832.3493440133184
799,832.3657271122012
800,832.3724077087904
801,832.3689704380096
802,832.3553132359796
803,832.3316217727255
804,832.2982874581069
805,832.2557919408158
806,832.2046145392123
807,832.1452159209838
808,832.0781106519128
809,832.0039956336556
810,831.9238803838297
811,831.8391670341078
812,831.7516383645269
813,831.6633316829868
814,831.5763116538669
815,831.4923958652176
816,831.4129114099998
817,831.3385586350789
818,831.269432437641
819,831.2052069083602
820,831.145432199975
821,831.0898402019739
822,831.0385364597028
823,830.9919919853955
824,830.9508305158591
825,830.9154927374713
826,830.8859051342017
827,830.8612695507805
828,830.8400376457689
829,830.8200787595072
830,830.7990105415442
831,830.7746298804377
832,830.7453495005747
833,830.7105314547806
834,830.6706357760247
835,830.6271624275985
836,830.582420253338
837,830.5391820142597
838,830.5002878200955
839,830.4682593059669
840,830.4449845079171
841,830.4315169398274
842,830.428001277658
843,830.4337065504338
844,830.4471316931449
845,830.4661543238223
846,830.4882126870539
847,830.5105229915487
848,830.5303285409159
849,830.5451602247578
850,830.5530733099142
851,830.5528206157284
852,830.543928278511
853,830.526655334447
854,830.5018430357042
855,830.4706931670511
856,830.4345385532587
857,830.3946607502502
858,830.3521757439479
859,830.3079784591605
860,830.2627281999921
861,830.2168643859927
862,830.1706550601975
863,830.1242906009801
864,830.0780300012053
865,830.0323839598392
866,829.9882955643724
867,829.9472764804575
868,829.9114717389556
869,829.8836395327286
870,829.8670354999254
871,829.8651923370187
872,829.881591209142
873,829.9192296839848
874,829.9801069002455
875,830.0646810057576
876,830.1714013910897
877,830.2964482169065
878,830.4337886386785
879,830.5755810354985
880,830.7128704751453
881,830.8364714746717
882,830.9379344140859
883,831.0105071061242
884,831.0500046880396
885,831.0554866755717
886,831.0296262867167
887,830.978669438519
888,830.9119351621549
889,830.8408934681565
890,830.7779401780523
891,830.735043935691
892,830.7224539057934
893,830.7476292630574
894,830.8144995005115
895,830.9231046136329
896,831.0696094229196
897,831.2466485480808
898,831.4439403612528
899,831.6491024835402
900,831.8486032900115
901,832.0287877271935
902,832.1769084042782
903,832.2820732257486
904,832.3360143754987
905,832.3336139759496
906,832.2731759792808
907,832.1564758297309
908,831.9886280961385
909,831.7777903165877
910,831.5346900390205
911,831.2719569302894
912,831.0032822387263
913,830.7424877554251
914,830.5026213939067
915,830.2951912492439
916,830.1296158097288
