acceleration,velocity,displacement
0.019790972536677748,0.0,0.0
0.020061704218481045,9.963169188789698e-06,2.4907922971974246e-09
0.02035382123245054,2.0067050551522593e-05,9.998347232275498e-09
0.02066483102239728,3.0321713615234548e-05,2.2595538273964784e-08
0.020992185776665055,4.0735967815000134e-05,4.035995863152346e-08
0.02133329997743574,5.1317339253525334e-05,6.337328539865482e-08
0.02168556777668629,6.207205619205585e-05,9.172063426005011e-08
0.022046380138236208,7.300504317078647e-05,1.254899091007607e-07
0.022413141665436696,8.41199236217047e-05,1.647711507988835e-07
0.02278328700975284,9.541903079050208e-05,2.096558894019352e-07
0.023154296735308316,0.00010690342672676737,2.6023650378125255e-07
0.023523712505942106,0.00011857292903707998,3.166055927222144e-07
0.02388915146703734,0.00013042614503032483,3.788553612390656e-07
0.024248319711706007,0.00014246051282501066,4.470770257028995e-07
0.0245990247441689,0.0001546723489389794,5.21360241143897e-07
0.024939186874942773,0.00016705690184375731,6.017925538395812e-07
0.025266849496937933,0.00017960841093672748,6.884588820347024e-07
0.02558018820223518,0.00019232017036152076,7.814410273592645e-07
0.025877518712730786,0.00020518459709026226,8.808172192222102e-07
0.026157303611963778,0.00021819330267143592,9.866616941626347e-07
0.02641815787212744,0.00023133716804245872,1.0990443118411085e-06
0.02665885317059485,0.00024460642080313926,1.218030209052508e-06
0.02687832099433509,0.00025799071434437173,1.3436794928393858e-06
0.027075654541292193,0.00027147920822827857,1.4760469734825483e-06
0.027250109437150213,0.00028506064922288916,1.6151819378453402e-06
0.027401103288651155,0.0002987234524043395,1.7611279632521474e-06
0.027528214094485425,0.0003124557817501236,1.913922771790763e-06
0.027631177537583883,0.00032624562965814097,2.0735981246428293e-06
0.02770988318811517,0.0003400808948395657,2.240179755767256e-06
0.0277643696524495,0.0003539494580497069,2.4136873439895744e-06
0.02779481871107423,0.0003678392551405878,2.594134522287148e-06
0.027801548499537098,0.00038173834694324064,2.781528922808105e-06
0.027785005798652642,0.00039563498551778805,2.975872255923362e-06
0.02774575751140859,0.00040951767634530336,3.1771604213891347e-06
0.027684481414438623,0.00042337523607676516,3.3853836494946517e-06
0.027601956283337076,0.0004371968455012091,3.600526669889145e-06
0.027499051504438106,0.00045097209744815285,3.822568905626486e-06
0.027376716300781645,0.0004646910393994578,4.051484689838388e-06
0.027235968713181614,0.0004783442106529486,4.28724350235149e-06
0.027077884481535502,0.0004919226739516279,4.529810223502634e-06
0.02690358596044516,0.0005054180415621231,4.7791454023810715e-06
0.026714231178457302,0.0005188224958468487,5.035205536733315e-06
0.02651100311951556,0.0005321288044213419,5.297943361800362e-06
0.026295099275846293,0.0005453303300201824,5.5673081454107435e-06
0.026067721496207157,0.0005584210352131958,5.843245986719088e-06
0.025830066134196944,0.0005713954821207968,6.125700116052586e-06
0.025583314493010427,0.0005842488272775986,6.414611193402185e-06
0.025328623567845814,0.0005969768117928127,6.709917603169787e-06
0.025067117098874624,0.0006095757469594929,7.011555742857864e-06
0.024799876955910984,0.0006220424954731892,7.319460303466034e-06
0.02452793487839495,0.0006343744484317657,7.633564539442273e-06
0.024252264598577874,0.0006465694983010089,7.953800526125467e-06
0.023973774387050735,0.0006586260080474161,8.280099402712573e-06
0.023693300075452332,0.0006705427766630418,8.612391598890188e-06
0.023411598626727433,0.0006823190013385867,8.950607043390595e-06
0.023129342336056763,0.0006939542365792827,9.294675352870063e-06
0.022847113753080624,0.0007054483506015671,9.644525999665275e-06
0.022565401416853093,0.0007168014793940505,1.000008845716418e-05
0.022284596488335414,0.0007280139788703476,1.036129232173028e-05
0.022004990349928207,0.0007390863755799135,1.0728067410342844e-05
0.02172677321934858,0.0007500193164722327,1.1100343833355881e-05
0.021450033804296276,0.0007608135182281439,1.1478052042030976e-05
0.021174760011164206,0.0007714697166820091,1.1861122850758514e-05
0.020900840712798126,0.0007819886168629997,1.2249487434144767e-05
0.02062806856854914,0.0007923708441833364,1.2643077299406351e-05
0.02035614386833681,0.0008026168972925579,1.3041824234775326e-05
0.020084679343000834,0.0008127271030953923,1.3445660234872314e-05
0.019813205855171916,0.0008227015743949355,1.3854517404244896e-05
0.019541178869542916,0.0008325401705761142,1.4268327840487658e-05
0.019267985603392945,0.0008422424616943482,1.4687023498555275e-05
0.018992952771763657,0.0008518076962881374,1.5110536038050896e-05
0.01871535485492464,0.0008612347731948095,1.5538796655421633e-05
0.018434422816571823,0.0008705222176126836,1.5971735903123507e-05
0.018149353185017914,0.000879668161613081,1.6409283497929947e-05
0.017859317382245294,0.0008886703292548968,1.685136812064694e-05
0.017563471158621162,0.0008975260263901135,1.7297917209558193e-05
0.017260963972856626,0.0009062321351729829,1.7748856749948967e-05
0.01695094815172434,0.0009147851132041281,1.8204111062043243e-05
0.016632587677662066,0.0009231809971614747,1.8663602589634645e-05
0.016305066487540185,0.0009314154107027753,1.912725169160071e-05
0.01596759621388829,0.0009394835763781324,1.9594976438370937e-05
0.015619423344754428,0.0009473803312677931,2.006669241528242e-05
0.015259835809188308,0.0009551001460562788,2.0542312534613438e-05
0.014888169010829453,0.0009626371472612833,2.1021746857942828e-05
0.014503811336326647,0.0009699851423480723,2.1504902430345165e-05
0.014106209163865626,0.0009771376474731204,2.1991683127800465e-05
0.013694871393964959,0.000984087917612578,2.248198951907189e-05
0.013269373520898716,0.0009908289788412938,2.2975718743185356e-05
0.012829361258319582,0.0009973536625360983,2.3472764403529703e-05
0.01237455372755801,0.0010036546412825677,2.3973016479484368e-05
0.011904746212490448,0.00100972446626758,2.4476361256371904e-05
0.011419812480697296,0.001015555605940877,2.498268127442402e-05
0.010919706663954455,0.0010211404857270398,2.5491855297340998e-05
0.010404464681145009,0.0010264715285633146,2.6003758300913586e-05
0.009874205177569182,0.001031541196027993,2.6518261482061412e-05
0.009329129951172164,0.0010363420298101784,2.7035232288520956e-05
0.008769523839550493,0.001040866693257859,2.7554534469287964e-05
0.008195754051795187,0.0010451080127306955,2.8076028145785104e-05
0.007608268946902874,0.00104905901848037,2.8599569903587872e-05
0.007007596280140281,0.0010527129847871307,2.9125012904404748e-05
0.006394340952766357,0.0010560634690953573,2.965220701787537e-05
0.005769182309089075,0.0010591043499108212,3.0180998972626916e-05
0.005132871033282566,0.001061829863246414,3.0711232525916224e-05
0.004486225703549018,0.001064234637430622,3.1242748651085485e-05
0.0038301290528690813,0.0010663137261197266,3.177538574197307e-05
0.0031655239633639433,0.0010680626393737849,3.230897983334645e-05
0.0024934091980352473,0.0010694773726641347,3.284336483635593e-05
0.0018148348607015187,0.0010705544336788188,3.337837278794167e-05
0.001130897572334619,0.0010712908667870778,3.391383411305814e-05
0.0004427353552922899,0.0010716842750189844,3.444957789850966e-05
-0.0002484777727450135,0.0010717328394146213,3.498543217711806e-05
-0.000941537475099763,0.0010714353356026602,3.552122422087238e-05
-0.001635215004362427,0.0010707911474827946,3.6056780841643746e-05
-0.002328263295528795,0.0010698002779078218,3.65919286979914e-05
-0.0030194231992444628,0.0010684633562841285,3.712649460653939e-05
-0.0037074298194499236,0.001066781643029455,3.766030585636779e-05
-0.004391018932003336,0.0010647570308415916,3.819319052483555e-05
-0.005068933472075606,0.0010623920427405718,3.872497779323109e-05
-0.005739930082821871,0.0010596898268518474,3.92554982606292e-05
-0.006402785715570471,0.0010566541479022492,3.978458425431772e-05
-0.007056304267020666,0.0010532893754066014,4.0312070135144935e-05
-0.007699323233638479,0.0010496004685314367,4.0837792596129444e-05
-0.008330720355233032,0.0010455929576342188,4.136159095267086e-05
-0.008949420208380974,0.0010412729224933152,4.1883307422702744e-05
-0.009554400700111126,0.0010366469672661923,4.240278739514262e-05
-0.010144699406109596,0.001031722192239637,4.291987968501908e-05
-0.010719419694958116,0.0010265061624643702,4.3434436773695084e-05
-0.011277736577621841,0.0010210068733962252,4.394631503266023e-05
-0.011818902215883607,0.001015232713697849,4.445537492943375e-05
-0.012342251014742438,0.0010091924253901924,4.496148121420576e-05
-0.012847204218314054,0.0010028950615819283,4.546450308594879e-05
-0.01333327393373567,0.0009963499420439159,4.5964314336855253e-05
-0.0138000665206382,0.0009895666069303223,4.6460793474098816e-05
-0.01424728529422573,0.0009825547689766062,4.695382381807555e-05
-0.014674732492443266,0.0009753242645299389,4.744329357645218e-05
-0.015082310456573432,0.0009678850037926847,4.792909589353284e-05
-0.01547002197611418,0.0009602469206845128,4.841112887465214e-05
-0.015837969756911607,0.0009524199227512563,4.8889295585511084e-05
-0.0161863549888227,0.0009444138415648227,4.9363504026590106e-05
-0.016515475014708066,0.00093623838406394,4.9833667082997296e-05
-0.016825720131434702,0.0009279030852774043,5.029970245033263e-05
-0.017117569582494663,0.0009194172628489219,5.076153253736421e-05
-0.01739158682992106,0.000910789973745818,5.12190843465129e-05
-0.017648414218476162,0.0009020299734837187,5.1672289333320285e-05
-0.01788876716155172,0.0008931456781387118,5.2121083246225896e-05
-0.018113427979548093,0.0008841451293534368,5.256540594809894e-05
-0.018323239505072482,0.0008750359624822817,5.300520122105787e-05
-0.018519098541126485,0.0008658253779707319,5.344041655617112e-05
-0.018701949231131734,0.0008565201160276673,5.387100292967072e-05
-0.01887277638263459,0.0008471264346242257,5.429691456733369e-05
-0.01903259878167026,0.0008376500908331495,5.471810869869804e-05
-0.01918246253779616,0.0008280963255032829,5.513454530278215e-05
-0.019323434503477364,0.0008184698512429645,5.554618684696871e-05
-0.019456595809231956,0.0008087748436647872,5.595299802069565e-05
-0.01958303554599487,0.0007990149358259805,5.635494546556834e-05
-0.01970384461182014,0.0007891932157865268,5.6751997503471464e-05
-0.01982010972649476,0.000779312227201948,5.7144123864218585e-05
-0.019932907608651667,0.0007693739728681614,5.753129541423611e-05
-0.020043299307348925,0.0007593799211391613,5.791348388773794e-05
-0.0201523246818781,0.0007493310151418546,5.8290661621808195e-05
-0.020260997024842783,0.0007392276847151744,5.866280129677245e-05
-0.02037029782251867,0.000729069861003334,5.902987568320208e-05
-0.02048117164544581,0.0007188569936363428,5.9391857396862e-05
-0.020594521163249647,0.0007085880704341689,5.9748718662879625e-05
-0.02071120227921074,0.0006982616395735539,6.0100431090381556e-05
-0.020832019379019618,0.0006878758341589963,6.044696545881469e-05
-0.020957720683932275,0.0006774283991432584,6.0788291517140256e-05
-0.021088993694084627,0.0006669167205487542,6.112437779706325e-05
-0.02122646070915479,0.0006563378569479444,6.145519144143742e-05
-0.021370674427999132,0.0006456885731636559,6.178069804896532e-05
-0.02152211365850623,0.0006349653761420296,6.210086153629173e-05
-0.02168117920486764,0.000624164552926186,6.241564401855878e-05
-0.02184819002775187,0.0006132822106180312,6.272500570944483e-05
-0.022023379786290657,0.0006023143181645206,6.302890484164046e-05
-0.02220689387047328,0.0005912567497503296,6.332729760861917e-05
-0.022398787022340765,0.0005801053295271261,6.362013812843854e-05
-0.022599021628404152,0.0005688558773644398,6.390737843016143e-05
-0.022807466748607362,0.0005575042552701869,6.41889684633201e-05
-0.023023897932662664,0.0005460464140998694,6.44648561306626e-05
-0.02324799786163376,0.0005344784401512953,6.47349873442254e-05
-0.023479357839695368,0.0005227966012259631,6.499930610456972e-05
-0.023717480149158497,0.0005109973917287496,6.52577546028084e-05
-0.02396178127075585,0.000499077576373771,6.551027334483403e-05
-0.024211595956690528,0.0004870342320669094,6.57568012969442e-05
-0.024466182125701886,0.0004748647875463113,6.59972760518475e-05
-0.02472472653508253,0.0004625670603811152,6.623163401382936e-05
-0.02498635118016114,0.00045013929095230425,6.645981060166272e-05
-0.02525012037194397,0.000437580173064278,6.668174046766687e-05
-0.02551504843552217,0.00042488888086241144,6.689735773114854e-05
-0.025780107948530424,0.0004120650917663983,6.710659622430574e-05
-0.026044238406906197,0.00039910900517753915,6.730938974854172e-05
-0.026306355176617117,0.0003860213567816583,6.750567233903152e-05
-0.02656535857205955,0.00037280342834448917,6.769537853531306e-05
-0.02682014289567667,0.0003594570529775551,6.787844365564357e-05
-0.027069605279578635,0.00034598461593374127,6.805480407287139e-05
-0.027312654188638024,0.0003323890510666871,6.82243974896215e-05
-0.027548217472031893,0.0003186738331515196,6.838716321067605e-05
-0.027775249881355366,0.0003048429663131728,6.854304241054223e-05
-0.027992740003078154,0.00029090096884206443,6.869197839433103e-05
-0.028199716575072854,0.0002768528546975267,6.883391685021593e-05
-0.028395254168373272,0.00026270411201166513,6.896880609189322e-05
-0.028578478220803727,0.0002484606789143709,6.909659728962473e-05
-0.02874856941511293,0.00023412891700539174,6.921724468860468e-05
-0.028904767402072533,0.00021971558280109538,6.93307058135563e-05
-0.02904637387795797,0.00020522779748108775,6.943694165862684e-05
-0.029172755037578126,0.00019067301525220372,6.953591686181017e-05
-0.029283343439113825,0.00017605899063303073,6.962759986328147e-05
-0.02937763932879163,0.00016139374494105436,6.971196304717499e-05
-0.029455211473321086,0.0001466855322405262,6.978898286647038e-05
-0.02951569753776938,0.00013194280498775358,6.985863995077745e-05
-0.029558804037731763,0.0001171741795938783,6.992091919692286e-05
-0.029584305893827486,0.00010238840211098849,6.997580984234909e-05
-0.029592045617622558,8.759431423312599e-05,7.002330552143511e-05
-0.029581932152282088,7.280081979064983e-05,7.006340430494106e-05
-0.029553939378492423,5.80168519079562e-05,7.009610872286571e-05
-0.029508104281973285,4.3251340992839776e-05,7.012142577109091e-05
-0.029444524769498742,2.8513183729971768e-05,7.013936690227161e-05
-0.029363357121117834,1.3811213257317625e-05,7.014994800151844e-05
-0.029264813079167156,-8.458292927536234e-07,7.015318934750959e-05
-0.029149156597146203,-1.5449321711831966e-05,7.014911555975844e-05
-0.029016700298749053,-2.9990785935805778e-05,7.013775553284653e-05
-0.028867801722708027,-4.446191144117005e-05,7.011914235850229e-05
-0.02870285944489428,-5.8854576733070626e-05,7.009331323645872e-05
-0.028522309169534618,-7.316086888667786e-05,7.006030937505379e-05
-0.028326619868893496,-8.737310114628489e-05,7.002017588254554e-05
-0.02811629003515243,-0.00010148382862229637,6.99729616501034e-05
-0.027891844095364805,-0.00011548586215492568,6.991871922740909e-05
-0.027653829026787525,-0.00012937228043546377,6.985750469176149e-05
-0.027402811190957683,-0.00014313644048990007,6.978937751153015e-05
-0.027139373383070486,-0.0001567719866334071,6.971440040474933e-05
-0.026864112073869767,-0.00017027285799764216,6.963263919359157e-05
-0.026577634808293244,-0.0001836332947181829,6.954416265541261e-05
-0.02628055772515517,-0.000196847842851545,6.944904237102018e-05
-0.025973503179028717,-0.00020991135807759098,6.93473525707879e-05
-0.025657097472187022,-0.0002228190082403949,6.923916997920841e-05
-0.02533196872572434,-0.00023556627478987276,6.912457365845084e-05
-0.024998744925924177,-0.0002481489532027849,6.900364485145268e-05
-0.024658052176172514,-0.00026056315247830906,6.88764668250324e-05
-0.024310513172193182,-0.0002728052938154005,6.874312471345898e-05
-0.02395674590266862,-0.00028487210858411596,6.86037053628591e-05
-0.023597362558710422,-0.0002967606356994607,6.845829717678821e-05
-0.023232968615635147,-0.0003084682184930471,6.830698996324008e-05
-0.02286416203583016,-0.00031999250115591343,6.814987478332783e-05
-0.022491532539143592,-0.00033133142479965685,6.798704380183894e-05
-0.022115660897864476,-0.00034248322315890887,6.781859013984931e-05
-0.02173711822792859,-0.0003534464179403571,6.764460772957449e-05
-0.021356465257200665,-0.00036421981381163943,6.746519117163648e-05
-0.020974251554008557,-0.00037480249301444175,6.728043559492996e-05
-0.020591014699486942,-0.00038519380957781563,6.70904365192819e-05
-0.020207279391271475,-0.0003953933831005052,6.689528972111232e-05
-0.019823556474199713,-0.000405401092066873,6.669509110232048e-05
-0.019440341902413772,-0.00041521706666102637,6.648993656263851e-05
-0.019058115644163282,-0.00042484168104767064,6.627992187571134e-05
-0.018677340547535056,-0.0004342755450955952,6.606514256917553e-05
-0.018298461194039446,-0.0004435194955309888,6.584569380901888e-05
-0.017921902773992294,-0.00045257458652299675,6.562167028850538e-05
-0.01754807001738429,-0.0004614420797208409,6.539316612194442e-05
-0.01717734620386183,-0.0004701234337761524,6.516027474357017e-05
-0.016810092258821307,-0.0004786202933918232,6.492308881177818e-05
-0.016446645924963442,-0.00048693447793776934,6.468170011894578e-05
-0.01608732098408177,-0.0004950679696650306,6.443619950704508e-05
-0.01573240649452178,-0.0005030229015346815,6.418667678924516e-05
-0.015382166008384168,-0.000510801544660408,6.393322067769638e-05
-0.015036836742277574,-0.0005184062953480735,6.367591871769426e-05
-0.014696628694520276,-0.0005258396617072729,6.341485722843042e-05
-0.014361723723538439,-0.0005331042498117876,6.315012125055066e-05
-0.014032274620345907,-0.0005402027493977587,6.288179450074827e-05
-0.013708404218096111,-0.0005471379191073693,6.260995933362199e-05
-0.013390204582769554,-0.0005539125713075857,6.233469671101825e-05
-0.013077736326138786,-0.0005605295565348127,6.205608617905765e-05
-0.012771028084302416,-0.0005669917476374231,6.17742058530146e-05
-0.012470076215744067,-0.0005733020237124347,6.148913241017714e-05
-0.012174844783541834,-0.0005794632539622562,6.120094109075846e-05
-0.011885265884506568,-0.0005854782816292683,6.090970570686058e-05
-0.011601240367935962,-0.0005913499081923789,6.0615498659405165e-05
-0.01132263895517236,-0.000597080878023156,6.031839096285128e-05
-0.011049303742276315,-0.0006026738636975181,6.001845227742111e-05
-0.0107810500521631,-0.000608131452146128,5.9715750948460194e-05
-0.010517668600312178,-0.0006134561318092467,5.941035405247135e-05
-0.010258927942844595,-0.0006186502809450359,5.910232744928278e-05
-0.010004577178540492,-0.0006237161572253822,5.8791735839740174e-05
-0.009754348872923813,-0.0006286558887382482,5.847864282824927e-05
-0.00950796216644335,-0.0006334714664980901,5.8163110989440185e-05
-0.0092651260258484,-0.000638164738546163,5.784520193817912e-05
-0.009025542598271506,-0.000642737405702193,5.752497640211704e-05
-0.008788910626903372,-0.0006471910190084867,5.720249429593937e-05
-0.008554928882868686,-0.0006515269788859297,5.687781479646576e-05
-0.008323299560812477,-0.00065574653599685,5.6550996417745066e-05
-0.008093731580246835,-0.0006598507937821148,5.622209708530033e-05
-0.007865943736610603,-0.0006638407126113292,5.5891174208701966e-05
-0.007639667655310824,-0.0006677171154593095,5.555828475168431e-05
-0.007414650510702242,-0.0006714806950008128,5.522348529906928e-05
-0.007190657473546686,-0.000675132021996875,5.4886832119819856e-05
-0.00696747384668211,-0.0006786715548269322,5.45483812256139e-05
-0.006744906847393636,-0.0006820996500004511,5.420818842440706e-05
-0.006522787002561284,-0.0006854165734629398,5.386630936854121e-05
-0.006300969140352397,-0.0006886225124986682,5.352279959705081e-05
-0.0060793329861274425,-0.0006917175880302882,5.317771457191857e-05
-0.005857783395612791,-0.0006947018671257233,5.283110970812957e-05
-0.005636250279137139,-0.0006975753755444108,5.248304039746203e-05
-0.005414688281074091,-0.0007003381101844636,5.213356202602981e-05
-0.0051930762764676175,-0.0007029900513238489,5.1782729985652736e-05
-0.004971416734436371,-0.0007055311745765749,5.1430599679177627e-05
