frame_number,force
0,828.3095820699341
1,828.374801948249
2,828.4367111324731
3,828.4951335228292
4,828.5499749646146
5,828.6012072854658
6,828.6488528720721
7,828.6929707906166
8,828.7336450864503
9,828.770975463687
10,828.8050701574466
11,828.8360405714959
12,828.8639971960736
13,828.8890464120948
14,828.9112879573565
15,828.9308129781222
16,828.9477026447662
17,828.962027315652
18,828.9738462787956
19,828.9832081585813
20,828.9901520385465
21,828.9947092366109
22,828.9969056080179
23,828.9967642822397
24,828.99430876021
25,828.989566235805
26,828.9825709132795
27,828.9733670438046
28,828.9620113971073
29,828.94857489077
30,828.9331431358634
31,828.915815743123
32,828.8967043427389
33,828.8759293714974
34,828.8536157796196
35,828.8298879273248
36,828.8048640910164
37,828.7786511781726
38,828.7513404116298
39,828.7230047924528
40,828.6936990071916
41,828.6634621268765
42,828.6323230553032
43,828.600308317845
44,828.5674514738449
45,828.5338032132495
46,828.4994411231667
47,828.4644782127075
48,828.4290694824336
49,828.3934159822195
50,828.3577658890142
51,828.3224122515401
52,828.2876872615884
53,828.2539531866544
54,828.2215903770914
55,828.1909830066488
56,828.1625033867613
57,828.1364957927153
58,828.1132607430745
59,828.0930405648793
60,828.0760068819316
61,828.0622504846018
62,828.0517739608988
63,828.044487454647
64,828.0402078531648
65,828.0386615124555
66,828.0394903243979
67,828.0422606403097
68,828.0464744338632
69,828.0515821731959
70,828.0569971035263
71,828.06211085748
72,828.0663103549067
73,828.0689957650234
74,828.0695989571444
75,828.0676015140281
76,828.0625511347121
77,828.0540751692992
78,828.041890178896
79,828.0258068380679
80,828.0057300827541
81,827.9816549436335
82,827.9536588531448
83,827.9218913574176
84,827.8865621566981
85,827.8479283137382
86,827.806281362598
87,827.7619349344571
88,827.7152133899192
89,827.66644181638
90,827.6159376292107
91,827.5640039024336
92,827.5109244136939
93,827.4569602072108
94,827.4023473125272
95,827.3472951701942
96,827.29198532006
97,827.2365700079051
98,827.1811705663206
99,827.1258756562452
100,827.070739614497
101,827.0157812435472
102,826.9609834713384
103,826.9062943581511
104,826.8516298025055
105,826.7968779916906
106,826.7419053223886
107,826.6865633331865
108,826.6306961412555
109,826.5741479034837
110,826.5167699412688
111,826.4584273900151
112,826.3990054578301
113,826.3384154743321
114,826.2766008624599
115,826.2135430302557
116,826.1492670013465
117,826.083846439598
118,826.0174076467824
119,825.9501321289465
120,825.8822573787606
121,825.8140755832317
122,825.7459300701875
123,825.6782094552738
124,825.6113395914035
125,825.5457735137682
126,825.4819796248897
127,825.4204284170055
128,825.3615781285857
129,825.3058598789581
130,825.2536629359316
131,825.2053207507255
132,825.1610982731751
133,825.121180976334
134,825.0856660444553
135,825.0545562535751
136,825.0277571154704
137,825.0050778117483
138,824.9862362807203
139,824.9708685464643
140,824.9585420596837
141,824.9487724980231
142,824.941043156607
143,824.9348257770463
144,824.9296014893614
145,824.924880560996
146,824.9202198941
147,824.9152376063977
148,824.9096244094297
149,824.9031517358669
150,824.8956766415464
151,824.8871434740395
152,824.8775822541523
153,824.8671037457951
154,824.8558913174026
155,824.8441898811556
156,824.8322923686617
157,824.820524313503
158,824.8092271397392
159,824.7987407271579
160,824.7893858018609
161,824.7814467112939
162,824.7751551530606
163,824.770675410056
164,824.7680916219725
165,824.7673976334322
166,824.7684900096189
167,824.771164861694
168,824.7751190963785
169,824.7799565015434
170,824.7851986743478
171,824.790300305383
172,824.7946679331623
173,824.7976810733812
174,824.7987145902193
175,824.7971612623356
176,824.7924536518708
177,824.7840845463764
178,824.7716253671381
179,824.7547420345587
180,824.7332078740036
181,824.7069132205204
182,824.6758714442427
183,824.6402212252568
184,824.6002250633591
185,824.5562641170133
186,824.5088294477201
187,824.4585096730095
188,824.4059750745743
189,824.3519584578427
190,824.2972334332976
191,824.242591128891
192,824.1888165537396
193,824.1366659014818
194,824.0868459993274
195,824.0399968756351
196,823.9966780819473
197,823.9573590320533
198,823.9224132775911
199,823.8921164070064
200,823.8666471689126
201,823.8460914199787
202,823.830448496747
203,823.8196395902103
204,823.8135176703167
205,823.811878441147
206,823.814471698036
207,823.8210123909582
208,823.8311907849865
209,823.8446813249604
210,823.8611500043576
211,823.880260120988
212,823.9016763549246
213,823.9250672385399
214,823.9501063075795
215,823.9764724521541
216,824.003850145463
217,824.0319302453112
218,824.0604119130755
219,824.0890059107905
220,824.1174391835692
221,824.1454602958964
222,824.1728450709692
223,824.1994017567818
224,824.2249751793768
225,824.2494495168081
226,824.2727494577219
227,824.2948396446665
228,824.3157225055837
229,824.3354348146994
230,824.3540435290382
231,824.3716415653785
232,824.3883441334351
233,824.4042859701696
234,824.4196194236265
235,824.4345130107782
236,824.4491499417908
237,824.4637261403503
238,824.4784474190366
239,824.4935256458283
240,824.5091739574732
241,824.5256013165983
242,824.5430068897147
243,824.5615747443453
244,824.5814692219842
245,824.6028311553096
246,824.6257749843861
247,824.6503868086586
248,824.676723422735
249,824.7048123527177
250,824.7346528269343
251,824.7662175275092
252,824.7994549076996
253,824.8342917992331
254,824.8706359518635
255,824.9083780866144
256,824.9473930794727
257,824.9875400538045
258,825.0286614065109
259,825.070581050311
260,825.1131023686473
261,825.1560065230893
262,825.1990517869472
263,825.2419744637155
264,825.28449170703
265,825.3263062752899
266,825.3671130148417
267,825.406606725929
268,825.4444910392087
269,825.4804879518892
270,825.5143476217876
271,825.5458578524047
272,825.5748525307043
273,825.601218269501
274,825.624898732665
275,825.6458964942799
276,825.6642726200755
277,825.6801443269392
278,825.6936810640344
279,825.7050992570132
280,825.7146558819051
281,825.7226410436344
282,825.7293697805703
283,825.7351733258298
284,825.7403900255845
285,825.7453561022443
286,825.7503964918772
287,825.7558160682227
288,825.7618916331577
289,825.768865029728
290,825.7769376191357
291,825.7862662609465
292,825.7969609324217
293,825.8090841934504
294,825.8226527467659
295,825.8376412716167
296,825.8539885106811
297,825.8716053110744
298,825.8903840248214
299,825.9102084408493
300,825.9309633241087
301,825.9525427052496
302,825.9748562658472
303,825.9978334208905
304,826.0214249193814
305,826.0456019408879
306,826.0703528327379
307,826.0956778718541
308,826.1215826968836
309,826.1480712203875
310,826.1751388278708
311,826.2027665313785
312,826.2309165447411
313,826.2595295230476
314,826.2885234588688
315,826.317793969681
316,826.3472155080217
317,826.3766429562095
318,826.4059131736191
319,826.4348463285145
320,826.4632472052004
321,826.4909070186752
322,826.5176064172076
323,826.5431201787325
324,826.5672236881122
325,826.5897008557007
326,826.6103528806733
327,826.629007189493
328,826.6455259065368
329,826.659813264063
330,826.671821428958
331,826.6815543736144
332,826.6890696902107
333,826.6944785857478
334,826.6979445486766
335,826.6996811911749
336,826.6999494898192
337,826.6990541837699
338,826.6973386836612
339,826.6951777045799
340,826.6929670194644
341,826.6911101785988
342,826.6900026447681
343,826.6900143750515
344,826.6914722541361
345,826.694643878797
346,826.699724056694
347,826.7068250761008
348,826.7159713718296
349,826.7270987611347
350,826.7400581065859
351,826.7546231385901
352,826.77050212748
353,826.7873529742557
354,826.8048010305206
355,826.8224586317978
356,826.8399450776194
357,826.8569057398039
358,826.873029134963
359,826.8880610619244
360,826.9018151968274
361,826.9141798387711
362,826.9251207866172
363,826.9346805522758
364,826.9429742428595
365,826.9501824882115
366,826.9565418073661
367,826.9623328593086
368,826.9678671331679
369,826.9734727637541
370,826.9794802365798
371,826.9862087244242
372,826.9939536998631
373,827.002976354694
374,827.0134952401254
375,827.025680369244
376,827.0396497519274
377,827.0554680092501
378,827.0731464750927
379,827.092644155907
380,827.113869089567
381,827.1366799247111
382,827.1608878199935
383,827.1862589568186
384,827.2125180245681
385,827.2393529756104
386,827.2664212051294
387,827.2933571392949
388,827.3197810471462
389,827.3453087639527
390,827.369561955348
391,827.3921785305295
392,827.4128227754096
393,827.4311947414233
394,827.4470384638732
395,827.4601487113868
396,827.4703761116104
397,827.4776305647396
398,827.4818828285311
399,827.4831641184372
400,827.4815636225674
401,827.4772240186618
402,827.4703353216206
403,827.4611275420264
404,827.4498626000444
405,827.4368257552126
406,827.4223166428785
407,827.4066400086274
408,827.3900964277406
409,827.3729735670937
410,827.3555387287499
411,827.3380334119738
412,827.3206704327583
413,827.3036337923036
414,827.2870810849707
415,827.2711479073253
416,827.2559535558885
417,827.2416072702786
418,827.228214319492
419,827.215881313132
420,827.2047202747956
421,827.194851220988
422,827.1864031630669
423,827.1795135542616
424,827.1743262450476
425,827.1709879780316
426,827.1696433920896
427,827.1704285557075
428,827.1734632942143
429,827.1788429038202
430,827.1866300571421
431,827.1968477057533
432,827.2094736198513
433,827.2244369697947
434,827.2416171417024
435,827.260844841177
436,827.2819054508747
437,827.3045444982369
438,827.3284749194838
439,827.3533856169078
440,827.378950694523
441,827.4048387779522
442,827.4307219433745
443,827.4562839185623
444,827.4812273175327
445,827.5052797194172
446,827.5281984308517
447,827.5497738037159
448,827.5698310251825
449,827.5882303802416
450,827.6048661308371
451,827.619664322683
452,827.6325799391973
453,827.6435938294268
454,827.6527097804419
455,827.6599520473443
456,827.665363604661
457,827.6690052994032
458,827.6709559449912
459,827.6713132127038
460,827.6701949786174
461,827.6677406039314
462,827.664111523997
463,827.6594905510495
464,827.6540794588143
465,827.648094645224
466,827.6417608702275
467,827.6353031939399
468,827.6289373131731
469,827.6228585543327
470,827.6172298703435
471,827.6121693376205
472,827.6077378551664
473,827.6039279647689
474,827.6006548416727
475,827.597750449275
476,827.5949615927437
477,827.5919522385853
478,827.5883101214764
479,827.583557396097
480,827.5771648634733
481,827.5685690495518
482,827.5571911839462
483,827.5424570407708
484,827.523816716755
485,827.5007636723616
486,827.4728526467048
487,827.4397162696736
488,827.4010802187513
489,827.3567765746434
490,827.3067547705642
491,827.2510894236709
492,827.1899844643706
493,827.123773253178
494,827.052914673384
495,826.9779854340719
496,826.899668967581
497,826.8187413565441
498,826.7360547495421
499,826.6525188108941
500,826.5690808987409
501,826.4867057820893
502,826.4063557057246
503,826.3289714663906
504,826.2554549004824
505,826.18665288607
506,826.1233427396663
507,826.0662187870156
508,826.0158798789058
509,825.9728176989578
510,825.9374059044716
511,825.9098904332612
512,825.8903815915809
513,825.8788487021743
514,825.8751180850909
515,825.8788749611385
516,825.8896695424212
517,825.9069271840619
518,825.9299621160773
519,825.9579940326206
520,825.9901667252393
521,826.025568023357
522,826.0632505200041
523,826.1022527826246
524,826.1416208084879
525,826.1804293479155
526,826.2178025130936
527,826.2529329372696
528,826.2850986745077
529,826.3136770356303
530,826.3381546726237
531,826.3581334839339
532,826.3733323013951
533,826.3835847378247
534,826.3888338879389
535,826.389124722807
536,826.384595028426
537,826.3754656506112
538,826.3620306326325
539,826.344647582917
540,826.3237283444183
541,826.2997298540705
542,826.2731450497765
543,826.2444937749858
544,826.2143137413473
545,826.1831516404114
546,826.1515544397927
547,826.1200608408259
548,826.0891928743473
549,826.0594476488282
550,826.0312893173524
551,826.0051414095989
552,825.9813797686634
553,825.960326384618
554,825.9422443936762
555,825.927334446143
556,825.915732603906
557,825.9075099222088
558,825.9026738301263
559,825.9011712940859
560,825.9028935858629
561,825.9076823862673
562,825.9153369557896
563,825.9256221102589
564,825.9382766847793
565,825.9530220758187
566,825.969570387697
567,825.9876317228208
568,826.0069202652641
569,826.0271590133505
570,826.0480832615499
571,826.0694430997737
572,826.0910052122563
573,826.1125541606991
574,826.133893221765
575,826.1548447729793
576,826.1752502104147
577,826.1949694507538
578,826.2138801843993
579,826.231877112093
580,826.2488713429569
581,826.2647900044475
582,826.2795760458472
583,826.2931882647764
584,826.3056016806003
585,826.316808417513
586,826.3268191927672
587,826.3356653554978
588,826.3434012733999
589,826.3501067813196
590,826.3558893572701
591,826.3608856134117
592,826.3652615915113
593,826.3692113120173
594,826.3729531015232
595,826.3767234220782
596,826.380768227483
597,826.3853322212057
598,826.3906466938832
599,826.3969168027821
600,826.4043092208515
601,826.412941080868
602,826.4228711074218
603,826.4340937354252
604,826.4465367968606
605,826.4600630268993
606,826.4744752961693
607,826.4895252028614
608,826.504924457236
609,826.5203583518854
610,826.5355005747609
611,826.5500286817182
612,826.563639570256
613,826.5760641784921
614,826.5870804575253
615,826.5965236208508
616,826.6042928435709
617,826.6103539058141
618,826.6147376789916
619,826.6175348077891
620,826.618887368593
621,826.6189785636594
622,826.6180215719272
623,826.6162485467108
624,826.6139005079943
625,826.6112186251571
626,826.6084371909992
627,826.6057784177387
628,826.6034489675809
629,826.6016378888556
630,826.6005154836117
631,826.6002326464953
632,826.600920321058
633,826.6026888174355
634,826.6056267982256
635,826.6097998139802
636,826.6152483958573
637,826.6219858727259
638,826.6299962075399
639,826.6392321624974
640,826.6496139845427
641,826.6610286610484
642,826.6733297781827
643,826.6863381331882
644,826.6998433680175
645,826.7136068777456
646,826.7273661050355
647,826.7408401557412
648,826.7537365407667
649,826.7657587883671
650,826.7766146584216
651,826.7860246673414
652,826.7937305392406
653,826.7995030596926
654,826.8031487422145
655,826.8045148233432
656,826.8034923582142
657,826.8000174900451
658,826.794071221226
659,826.7856781722124
660,826.7749048467701
661,826.7618578002267
662,826.7466818346916
663,826.7295580103996
664,826.7107010291471
665,826.6903555405534
666,826.6687911325124
667,826.6462960625474
668,826.6231700266092
669,826.5997163975353
670,826.5762344315154
671,826.5530119520425
672,826.5303189454891
673,826.5084023567795
674,826.4874822445565
675,826.4677493974756
676,826.4493644890889
677,826.4324587848434
678,826.4171362791259
679,826.4034769542397
680,826.3915406598625
681,826.3813709757236
682,826.3729984371456
683,826.3664427358245
684,826.361713899048
685,826.3588128259828
686,826.3577317436867
687,826.3584550675935
688,826.3609608571962
689,826.3652226735582
690,826.3712113467726
691,826.3788960964474
692,826.3882446353599
693,826.3992222002942
694,826.4117897177858
695,826.4259014188731
696,826.4415021753013
697,826.4585247172415
698,826.4768868024187
699,826.49648841079
700,826.5172091208364
701,826.5389058641963
702,826.5614111660235
703,826.5845318277703
704,826.608047950471
705,826.631712285119
706,826.6552500447153
707,826.6783594169867
708,826.7007130444841
709,826.7219606753289
710,826.7417330274178
711,826.7596467412998
712,826.7753102609121
713,826.788330579053
714,826.7983208792883
715,826.804909111832
716,826.8077474793704
717,826.8065227145886
718,826.8009669222808
719,826.7908686606235
720,826.7760838634575
721,826.7565461441656
722,826.7322759415878
723,826.703387862137
724,826.6700954952515
725,826.6327130119209
726,826.5916530163207
727,826.547420356959
728,826.5006018569505
729,826.4518521583213
730,826.4018760855992
731,826.3514081488403
732,826.3011900664671
733,826.2519474674913
734,826.2043671051342
735,826.1590758575502
736,826.1166225191804
737,826.0774630332431
738,826.0419495197317
739,826.0103232768657
740,825.9827118509122
741,825.9591301858837
742,825.9394856929084
743,825.9235868179609
744,825.9111544338004
745,825.9018352705666
746,825.895216683727
747,825.8908422331532
748,825.8882276448919
749,825.8868766999668
750,825.8862965228438
751,825.8860117081166
752,825.8855767804627
753,825.8845866669576
754,825.8826851371248
755,825.8795714227869
756,825.8750053690479
757,825.8688114550704
758,825.8608818783908
759,825.8511786918533
760,825.8397348190832
761,825.8266537219655
762,825.8121075518181
763,825.7963337208647
764,825.7796298962468
765,825.7623474137689
766,825.7448830922832
767,825.7276694900937
768,825.7111638068168
769,825.6958358325594
770,825.6821554805489
771,825.6705804477963
772,825.6615444316378
773,825.6554461334288
774,825.6526390752813
775,825.6534221100861
776,825.6580304598552
777,825.6666271966282
778,825.6792952875601
779,825.6960305890751
780,825.7167363530566
781,825.7412198116458
782,825.7691912714295
783,825.8002659755207
784,825.8339688696135
785,825.8697423502978
786,825.9069570073017
787,825.94492520405
788,825.9829170783642
789,826.0201783025283
790,826.0559488226646
791,826.0894818008042
792,826.1200620523153
793,826.147023364557
794,826.1697641734227
795,826.187761164628
796,826.20058049951
797,826.2078865432724
798,826.2094481091825
799,826.2051422585608
800,826.194955649525
801,826.1789833656991
802,826.157425100384
803,826.1305785461066
804,826.0988298752136
805,826.0626413134095
806,826.0225360373528
807,825.9790809732782
808,825.9328684242645
809,825.8844976532964
810,825.8345575523784
811,825.7836113922198
812,825.7321844206092
813,825.6807547853033
814,825.6297479450761
815,825.5795344504439
816,825.5304307470803
817,825.482702488829
818,825.4365697412499
819,825.3922133952789
820,825.3497820980674
821,825.3093990840409
822,825.2711684645637
823,825.2351807280265
824,825.2015172998456
825,825.1702540007234
826,825.1414632369737
827,825.1152148701374
828,825.0915759180243
829,825.0706094014021
830,825.0523726846965
831,825.03691561656
832,825.0242787488834
833,825.0144919039594
834,825.0075733132406
835,825.0035294461211
836,825.0023554841712
837,825.0040361785481
838,825.0085466332334
839,825.0158525263395
840,825.025909463603
841,825.0386614386751
842,825.0540386079462
843,825.0719547148987
844,825.0923045310336
845,825.1149616372917
846,825.139776781423
847,825.1665769685007
848,825.195165400769
849,825.2253223390501
850,825.2568068906521
851,825.2893597001573
852,825.3227065688283
853,825.3565630852474
854,825.3906403320174
855,825.4246516540659
856,825.4583203792416
857,825.4913882467175
858,825.523624072312
859,825.5548319183739
860,825.5848579112026
861,825.6135949750226
862,825.6409850461624
863,825.6670186128497
864,825.6917316157192
865,825.7151999096286
866,825.7375317077033
867,825.7588586691405
868,825.7793264384683
869,825.7990854353835
870,825.8182825784083
871,825.8370544688144
872,825.8555223647829
873,825.8737890164026
874,825.8919371438764
875,825.91002911994
876,825.9281073650036
877,825.9461951134613
878,825.964297469335
879,825.982402875572
880,826.0004851796982
881,826.0185064044576
882,826.0364201784366
883,826.0541756093309
884,826.0717212766572
885,826.0890090519925
886,826.1059976132057
887,826.1226557182287
888,826.1389654512312
889,826.1549257031098
890,826.1705560859575
891,826.1859012960853
892,826.2010356521474
893,826.216067257308
894,826.2311411187832
895,826.2464406320499
896,826.2621869791174
897,826.278636104793
898,826.2960730605095
899,826.3148037216041
900,826.3351441854301
901,826.3574084474789
902,826.3818951355887
903,826.4088741448793
904,826.438574003086
905,826.47117073536
906,826.5067788945935
907,826.5454452942506
908,826.5871458292434
909,826.6317855698912
910,826.6792020686897
911,826.7291715952286
912,826.7814178660333
913,826.8356227496141
914,826.8914383558277
915,826.9484998424665
916,827.0064382144909
917,827.0648923995697
918,827.1235199903862
