acceleration,velocity,displacement
0.021773762616960873,0.0,0.0
0.02181580213548261,1.089739118811087e-05,2.7243477970277177e-09
0.02187179988786127,2.1819291693946838e-05,1.0903518517542145e-08
0.02194104477612577,3.27725028599436e-05,2.4551467156014753e-08
0.02202278065935898,4.3763459218814783e-05,4.368545767570435e-08
0.02211621087212597,5.479820710168602e-05,6.832587425582955e-08
0.022220502834215887,6.588238552827149e-05,9.849602241331892e-08
0.022334792730006922,7.70212094193272e-05,1.342219211502186e-07
0.022458190232438904,8.821945515993866e-05,1.7553208729503506e-07
0.022589783242716075,9.94814485287274e-05,2.2245731321720158e-07
0.022728642613750693,0.0001108110549928441,2.7503043909759445e-07
0.022873826823971134,0.00012221167235227455,3.332861209338741e-07
0.02302438656900992,0.00013368622570051982,3.972605954470727e-07
0.023179369241454997,0.00014523716465313606,4.669914430354867e-07
0.023337823272474863,0.00015686646278161853,5.425173498941753e-07
0.02349880231264186,0.00016857561917789772,6.238778703840544e-07
0.02366136923176242,0.0001803656620639988,7.111131906945285e-07
0.023824599919506542,0.00019223715435181605,8.042638947984823e-07
0.02398758687113067,0.00020419020104947536,9.033707336488051e-07
0.024149442545215415,0.00021622445840356188,1.0084743985120645e-06
0.024309302481941377,0.00022833914466035106,1.1196152992780428e-06
0.02446632817114144,0.00024053305232362178,1.236833348524036e-06
0.024619709660668794,0.00025280456178157436,1.360167752050335e-06
0.02476866789794095,0.00026515165617122677,1.4896568065385352e-06
0.024912456799768078,0.000277571937345654,1.6253377049177554e-06
0.025050365046669798,0.0002900626428072635,1.7672463499559848e-06
0.025181717598842572,0.00030262066346864154,1.915417176524961e-06
0.025305876932117926,0.0003152425621013817,2.069882982917467e-06
0.0254222439939655,0.00032792459233290256,2.230674771526038e-06
0.025530258881370702,0.0003406627180517366,2.397821599122198e-06
0.02562940124438423,0.0003534526330831753,2.5713504369059257e-06
0.025719190421707325,0.00036628978099969824,2.751286040426644e-06
0.025799185317302548,0.00037916937493445073,2.9376508294101813e-06
0.02586898402955002,0.0003920864172711639,3.130464777461585e-06
0.025928223246765872,0.00040503571909024285,3.3297453115519366e-06
0.02597657742541746,0.00041801191925828866,3.5355072211390694e-06
0.02601375777007843,0.00043100950305716265,3.747762576717932e-06
0.026039511037121706,0.00044402282025896267,3.966520657546964e-06
0.02605361818675437,0.00045704610256493166,4.191787888252937e-06
0.02605589290928831,0.00047007348033894234,4.423567783978906e-06
0.02604618005038958,0.0004830989985788618,4.661860903708357e-06
0.026024353956945696,0.0004961166320806956,4.906664811373246e-06
0.02599031676104057,0.0005091202997601922,5.157974044333468e-06
0.025943996615616374,0.0005221038781043565,5.4157800887996055e-06
0.025885345891937462,0.0005350612137312449,5.680071361758506e-06
0.025814339346419843,0.0005479861350408343,5.950833198951526e-06
0.025730972263385776,0.0005608724629432857,6.2280478484475555e-06
0.025635258581153023,0.0005737140206544205,6.511694469346982e-06
0.025527229010732035,0.0005865046425523918,6.801749135148685e-06
0.025406929157657826,0.0005992381820944892,7.098184841310406e-06
0.02527441765783148,0.0006119085187983616,7.4009715165336184e-06
0.0251297643387995,0.0006245095642975193,7.710076037307588e-06
0.02497304841944291,0.0006370352674870799,8.025462245253739e-06
0.024804356763212524,0.0006494796187827438,8.347090966821195e-06
0.02462378220210874,0.0006618366535240741,8.6749200348979e-06
0.024431421950194973,0.00067410045456215,9.008904311919456e-06
0.024227376126274864,0.0006862651540812675,9.34899571408031e-06
0.024011746405076993,0.0006983249347141054,9.695143236279154e-06
0.023784634814945697,0.0007102740300191111,1.0047292977462458e-05
0.023546142697282266,0.0007221067243971681,1.0405388166066528e-05
0.023296369839294364,0.0007338173525313123,1.0769369185298648e-05
0.023035413787974617,0.0007454002984381296,1.1139173598041008e-05
0.02276336935078576,0.0007568499942228197,1.1514736171206245e-05
0.022480328286807707,0.0007681609186322181,1.1895988899420005e-05
0.022186379189768846,0.0007793275955013622,1.22828610279534e-05
0.021881607560771447,0.0007903445921889973,1.2675279074875991e-05
0.02156609606347968,0.0008012065180950601,1.3073166852447005e-05
0.021239924949922353,0.0008119080233484106,1.3476445487807872e-05
0.02090317264227328,0.0008224437977464596,1.388503344308159e-05
0.020555916455690125,0.0008328085700209505,1.4298846535023442e-05
0.020198233448860584,0.0008429971074970881,1.4717797954402952e-05
0.019830201390383797,0.0008530042162068993,1.514179828532895e-05
0.01945189982874638,0.0008628247415116818,1.5570755524758595e-05
0.01906341125087547,0.0008724535692815873,1.6004575102456913e-05
0.01866482230974677,0.0008818856276717428,1.6443159901695246e-05
0.01825622509716295,0.0008911158895234702,1.6886410280994048e-05
0.017837718434776096,0.0009001393754064549,1.733422409722653e-05
0.01740940915538906,0.0009089511573039962,1.7786496730404143e-05
0.016971413348308283,0.0009175463629299205,1.8243121110462623e-05
0.01652385754755431,0.0009259201806538862,1.8703987746358576e-05
0.016066879848680108,0.0009340678650029447,1.9168984757772783e-05
0.01560063094650146,0.0009419847427017402,1.9637997909698954e-05
0.015125275090483323,0.0009496662192109863,2.0110910650177135e-05
0.014640990956838898,0.0009571077857228169,2.0587604151410585e-05
0.014147972436994602,0.0009643050265712753,2.106795735448411e-05
0.013646429341864998,0.0009712536270159902,2.1551847017880928e-05
0.013136588021087536,0.0009779493813567284,2.2039147769974107e-05
0.01261869189583937,0.0009843882013359602,2.252973216564728e-05
0.012093001903352447,0.0009905661247857581,2.302347074717771e-05
0.011559796850679047,0.000996479324474266,2.3520232109492717e-05
0.01101937367478491,0.001002124117105632,2.401988296988769e-05
0.010472047605725999,0.0010074969724257596,2.452228824227054e-05
0.009918152228957769,0.0010125945223844305,2.5027311115973088e-05
0.009358039441653226,0.0010174135703020833,2.553481313914472e-05
0.008792079296935828,0.0010219510999867306,2.604465430671692e-05
0.008220659729757803,0.001026204284743404,2.6556693152899456e-05
0.007644186159073503,0.0010301704962156117,2.707078684813921e-05
0.007063080962861353,0.0010338473129960955,2.7586791300442136e-05
0.006477782825582811,0.0010372325289432064,2.8104561260926963e-05
0.005888745961045749,0.0010403241611398636,2.862395043344773e-05
0.005296439216100912,0.0010431204574341503,2.9144811588091234e-05
0.00470134506237331,0.0010456199035037688,2.9666996678325714e-05
0.004103958484887446,0.001047821229390584,3.0190356961549302e-05
0.0035047857776435874,0.0010497234154562168,3.0714743122761004e-05
0.002904343255392617,0.001051325697714476,3.1240005401053674e-05
0.002303155887988148,0.001052627572500321,3.176599371860737e-05
0.0017017558606233414,0.001053628800437474,3.2292557811841824e-05
0.001100681061722834,0.0010543294096680604,3.2819547364368205e-05
0.000500473500264277,0.0010547296983085572,3.334681214136236e-05
-9.832234493901817e-05,0.0010548302360973885,3.387420212496385e-05
-0.0006951612395115693,0.0010546318652012757,3.4401567650288514e-05
-0.0012894989639613398,0.0010541357001504076,3.4928759541626434e-05
-0.0018807941298840444,0.0010533431268769462,3.545562924838327e-05
-0.002468510030013501,0.0010522558008369718,3.598202898031175e-05
-0.0030521165103457263,0.001050875644201882,3.650781184157146e-05
-0.003631091853727664,0.0010492048421108637,3.7032831963149645e-05
-0.00420492466607728,0.0010472458379809123,3.755694463317259e-05
-0.004773115757884745,0.001045001327874922,3.808000642463655e-05
-0.005335180014401467,0.0010424742539318504,3.860187532008824e-05
-0.005890648247485166,0.0010396677968663789,3.9122410832787795e-05
-0.006439069021467347,0.0010365853675491407,3.964147412389167e-05
-0.006980010444674093,0.0010332305976826052,4.015892811519961e-05
-0.007513061917119181,0.0010296073295921568,4.06746375970183e-05
-0.008037835823346148,0.0010257196051570404,4.11884693307056e-05
-0.008553969158082955,0.001021571653911683,4.170029214547278e-05
-0.009061125071677912,0.0010171678803542429,4.2209977029039265e-05
-0.00955899432214391,0.0010125128505057875,4.271739721175427e-05
-0.01004729662055427,0.001007611277770113,4.322242824382324e-05
-0.010525781856103077,0.0010024680081509485,4.3724948065303506e-05
-0.010994231186143006,0.000997088004890387,4.422483706856384e-05
-0.011452457976111401,0.0009914763325998234,4.472197815293639e-05
-0.011900308575397122,0.0009856381409619462,4.521625677132683e-05
-0.012337662917582258,0.0009795786480887012,4.570756096858949e-05
-0.012764434935475183,0.0009733031236254368,4.6195781411518025e-05
-0.013180572782171844,0.000966816871696025,4.668081141034839e-05
-0.013586058849749224,0.0009601252137880448,4.716254693171941e-05
-0.01398090957782912,0.0009532334716811502,4.764088660308671e-05
-0.014365175046007353,0.0009461469505251911,4.8115731708638296e-05
-0.014738938347210745,0.0009388709221768866,4.8586986176813814e-05
-0.015102314743300184,0.0009314106089042589,4.90545565595841e-05
-0.015455450609055659,0.0009237711675661699,4.951835200370171e-05
-0.01579852217548425,0.000915957674370035,4.997828421418576e-05
-0.016131734087989628,0.0009079751103041665,5.043426741035431e-05
-0.01645531779922059,0.0008998283473323639,5.0886218274763444e-05
-0.016769529819290408,0.0008915221354277361,5.133405589545347e-05
-0.017074649846714533,0.0008830610905112349,5.177770170193821e-05
-0.017370978801372665,0.0008744496833492131,5.221707939540332e-05
-0.017658836777015935,0.0008656922294546159,5.265211487360428e-05
-0.01793856092715207,0.000856792880028574,5.3082736150975076e-05
-0.018210503295968877,0.0008477556139727938,5.350887327447542e-05
-0.018475028605532594,0.0008385842309974184,5.393045823571797e-05
-0.018732512011195364,0.0008292823458432364,5.4347424879928136e-05
-0.018983336837970533,0.0008198533836309449,5.475970881229668e-05
-0.019227892310483413,0.0008103005763438314,5.5167247302290376e-05
-0.01946657128780014,0.0008006269604442605,5.55699791864874e-05
-0.019699768012430816,0.0007908353756192028,5.5967844770503266e-05
-0.019927875880862603,0.0007809284646458795,5.636078573056954e-05
-0.020151285241727452,0.0007709086743652319,5.6748745015322315e-05
-0.020370381227320683,0.0007607782577479698,5.7131666748350615e-05
-0.0205855416243916,0.0007505392770350418,5.750949613204637e-05
-0.02079713479028121,0.0007401936079313735,5.788217935328797e-05
-0.021005517620194723,0.0007297429448287545,5.8249663491478004e-05
-0.021211033571103616,0.00071918880703093,5.861189642944292e-05
-0.02141401074771814,0.0007085325459512245,5.896882676768846e-05
-0.021614760056006172,0.0006977753532502935,5.932040374248884e-05
-0.02181357342930117,0.0006869182698789666,5.966657714827115e-05
-0.02201072213107993,0.0006759621959888714,6.000729726473811e-05
-0.022206455137552854,0.0006649079016717132,6.034251478915325e-05
-0.0224009976030611,0.0006537560384865597,6.067218077419282e-05
-0.02259454941300634,0.0006425071517325428,6.0996246571747595e-05
-0.022787283833054523,0.0006311616934210276,6.131466378303599e-05
-0.022979346268241496,0.0006197200358957037,6.162738421536517e-05
-0.023170853149358205,0.0006081824860413037,6.193435984584943e-05
-0.02336189096554104,0.0005965493000125789,6.22355427923629e-05
-0.023552515461395102,0.0005848206984058449,6.25308852919675e-05
-0.023742751015048483,0.000572996881786734,6.282033968701564e-05
-0.023932590210604718,0.0005610780464803207,6.310385841908241e-05
-0.024121993615440616,0.0005490644005238094,6.338139403083344e-05
-0.02431088977009104,0.0005369561796774265,6.365289917588375e-05
-0.024499175396040025,0.0005247536633858937,6.391832663664958e-05
-0.024686715824345177,0.0005124571905807975,6.417762935014125e-05
-0.024873345645679563,0.0005000671752132912,6.443076044158978e-05
-0.02505886958034323,0.00048758412140678556,6.46776732657448e-05
-0.025243063564042264,0.00047500863812068917,6.491832145562666e-05
-0.025425676042171462,0.00046234145321913573,6.515265897846162e-05
-0.02560642946268243,0.00044958342684292226,6.538064019847713e-05
-0.02578502195656096,0.0004367355639881114,6.56022199461849e-05
-0.02596112919459071,0.0004237990262003235,6.581735359373201e-05
-0.026134406407448848,0.00041077514229981364,6.602599713585704e-05
-0.026304490552427836,0.00039766541805984446,6.622810727594696e-05
-0.026471002604940414,0.0003844715447705024,6.642364151665455e-05
-0.026633549948499514,0.00037119540663214245,6.661255825450521e-05
-0.026791728833884105,0.00035783908693654654,6.679481687789738e-05
-0.02694512687709262,0.0003444048730088024,6.697037786788372e-05
-0.027093325566415756,0.0003308952598979253,6.713920290111039e-05
-0.02723590275161598,0.00031731295281841736,6.730125495428948e-05
-0.0273724350921132,0.00030366086835748507,6.745649840958345e-05
-0.02750250044566517,0.00028994213447304046,6.760489916029108e-05
-0.027625680183402265,0.0002761600893157736,6.774642471623828e-05
-0.027741561420278095,0.0002623182789148535,6.788104430829593e-05
-0.02784973915176683,0.00024842045377184227,6.80087289914676e-05
-0.02794981828851226,0.0002344705644117725,6.81294517460135e-05
-0.028041415581590536,0.0002204727559442468,6.824318757610251e-05
-0.028124161432391125,0.00020643136169075138,6.834991360551126e-05
-0.028197701582558958,0.00019235089593701385,6.84496091699182e-05
-0.028261698681409684,0.00017823604587102168,6.854225590537021e-05
-0.028315833730674873,0.00016409166276800053,6.862783783252996e-05
-0.028359807408448914,0.0001499227524832196,6.870634143634277e-05
-0.028393341274448036,0.00013573446531249536,6.877775574079169e-05
-0.028416178857436993,0.0001215320852795241,6.88420723784397e-05
-0.028428086624741104,0.00010732101890897958,6.889928565448682e-05
-0.028428854833901666,9.310678354431889e-05,6.894939260510014e-05
-0.028418298267115727,7.889499526906454e-05,6.899239304980349e-05
-0.028396256848526324,6.469135649015403e-05,6.902828963774329e-05
-0.028362596142947647,5.050164324228554e-05,6.90570878876764e-05
-0.028317207732875622,3.633169227332972e-05,6.90787962215553e-05
-0.02826000946959527,2.2187387972711998e-05,6.909342599161682e-05
-0.02819094559473476,8.07464920662949e-06,6.910099150091165e-05
-0.02810998673092472,-6.000583874785382e-06,6.910151001724461e-05
-0.028017129743937896,-2.0032362993501035e-05,6.909500178052754e-05
-0.02791239748310609,-3.4014744800262036e-05,6.908149000357909e-05
-0.02779583841098783,-4.794180377378552e-05,6.906100086643558e-05
-0.027667526135990158,-6.180764491053002e-05,6.90335635042645e-05
-0.02752755886204987,-7.560641616004003e-05,6.899920998899686e-05
-0.027376058768010237,-8.933232056755505e-05,6.895797530481496e-05
-0.027213171327354863,-0.00010297962809139632,6.890989731765022e-05
-0.02703906457736279,-0.00011654268706757574,6.885501673886048e-05
-0.02685392834512273,-0.0001300159352981971,6.879337708326903e-05
-0.02665797343526036,-0.0001433939107432929,6.872502462175866e-05
-0.026451430781360908,-0.0001566712617974482,6.865000832862346e-05
-0.026234550560400242,-0.0001698427571328885,6.856837982389088e-05
-0.026007601267886326,-0.00018290329508996014,6.848019331083518e-05
-0.025770868751595226,-0.0001958479125948305,6.838550550891397e-05
-0.025524655204557475,-0.00020867179358386868,6.82843755823693e-05
-0.025269278122070325,-0.00022137027691552564,6.817686506474445e-05
-0.025005069230858087,-0.00023393886375375775,6.806303777957713e-05
-0.024732373399688787,-0.00024637322441139445,6.794295975753584e-05
-0.024451547540014603,-0.0002586692046463203,6.781669915027141e-05
-0.02416295950346949,-0.0002708228314071913,6.768432614125803e-05
-0.02386698698075539,-0.00028283031802824754,6.754591285389917e-05
-0.02356401640381962,-0.0002946880688743913,6.74015332571735e-05
-0.02325444185024265,-0.00030639268343790686,6.725126306909542e-05
-0.02293866394665022,-0.0003179409598871301,6.709517965826416e-05
-0.022617088767549615,-0.00032932989806568004,6.693336194377595e-05
-0.02229012672761178,-0.0003405567019394704,6.676589029377467e-05
-0.021958191467488453,-0.0003516187814882455,6.659284642291775e-05
-0.021621698734599976,-0.0003625137540387676,6.6414313289036e-05
-0.02128106526058331,-0.0003732394450375634,6.623037498926691e-05
-0.02093670763704384,-0.0003837938882619702,6.604111665594203e-05
-0.02058904119175655,-0.0003941753254691703,6.584662435250925e-05
-0.020238478868506538,-0.0004043822054842361,6.56469849697709e-05
-0.019885430114949143,-0.0004144131827301,6.54422861227173e-05
-0.01953029978369162,-0.0004242671152047602,6.523261604823359e-05
-0.019173487052736263,-0.00043394306191386716,6.501806350395393e-05
-0.01881538437243141,-0.00044344027977015905,6.479871766853293e-05
-0.018456376447026912,-0.00045275821997502365,6.457466804359663e-05
-0.018096839258594472,-0.000461896523901429,6.434600435762752e-05
-0.017737139139451404,-0.0004708550185009405,6.411281647202694e-05
-0.01737763189650316,-0.00047963371125992913,6.387519428958672e-05
-0.017018661988064628,-0.0004882327847310711,6.363322766558897e-05
-0.016660561751339852,-0.0004966525906659222,6.338700632173972e-05
-0.016303650677131312,-0.0005048936437730399,6.313661976312998e-05
-0.015948234727876234,-0.0005129566151242918,6.288215719840564e-05
-0.015594605696351588,-0.0005208423252303488,6.262370746331699e-05
-0.015243040604968179,-0.0005285517368056788,6.236135894780798e-05
-0.01489380114856989,-0.0005360859472440633,6.209519952679555e-05
-0.014547133186149247,-0.0005434461808277431,6.18253164947776e-05
-0.014203266288104942,-0.0005506337806963067,6.155179650439659e-05
-0.013862413345637242,-0.0005576502006047423,6.127472550907133e-05
-0.013524770248213344,-0.0005644969965032049,6.099418870979434e-05
-0.013190515635116987,-0.0005711758179740375,6.071027050617503e-05
-0.012859810728475798,-0.0005776883995649357,6.0423054451790286e-05
-0.01253279925657129,-0.0005840365520611976,6.013262321388375e-05
-0.012209607475739888,-0.0005902221537442754,5.983905853743238e-05
-0.011890344295995434,-0.0005962471416872092,5.954244121357451e-05
-0.011575101510668711,-0.0006021135031388752,5.924285105236799e-05
-0.011263954125934781,-0.0006078232670480261,5.8940366859821264e-05
-0.010956960783547142,-0.0006133784957753966,5.863506641911541e-05
-0.0106541642696363,-0.0006187812770386924,5.832702647591189e-05
-0.010355592102988915,-0.0006240337161318488,5.8016322727619254e-05
-0.010061257196563787,-0.0006291379284567369,5.7703029816472106e-05
-0.009771158585351877,-0.0006340960324022159,5.738722132625737e-05
-0.009485282212728095,-0.0006389101426017359,5.706896978250638e-05
-0.0092036017669096,-0.0006435823635966453,5.674834665595678e-05
-0.008926079559182554,-0.0006481147839281683,5.6425422369075576e-05
-0.008652667435405489,-0.0006525094706768153,5.610026630542433e-05
-0.00838330771161052,-0.0006567684644635693,5.577294682163923e-05
-0.00811793412350895,-0.0006608937749223492,5.5443531261792754e-05
-0.007856472778873828,-0.0006648873766479449,5.511208597390018e-05
-0.00759884310204866,-0.0006687512056181756,5.477867632833365e-05
-0.007344958761288862,-0.0006724871560840099,5.444336673790811e-05
-0.007094728570933901,-0.0006760970779170656,5.410622067940784e-05
-0.0068480573607103724,-0.0006795827743999766,5.3767300716328577e-05
-0.00660484680396831,-0.0006829460004411463,5.34266685226183e-05
-0.006364996196535616,-0.0006861884611912722,5.308438490721019e-05
-0.006128403179045482,-0.0006893118110351675,5.274050983915358e-05
-0.005894964398371402,-0.0006923176529295217,5.239510247316241e-05
-0.005664576107415497,-0.0006952075380559684,5.2048221175416036e-05
-0.005437134706365919,-0.0006979829657594137,5.169992354946219e-05
-0.005212537231742662,-0.0007006453837439409,5.135026646208635e-05
-0.004990681801179844,-0.0007031961885021715,5.0999306069024824e-05
-0.0047714680216846906,-0.0007056367259578876,5.064709784040981e-05
-0.004554797367410527,-0.0007079682923051614,5.029369658584405e-05
