frame_number,force
0,828.3164493951792
1,828.3199911797602
2,828.3247089306508
3,828.3305427386056
4,828.3374288995591
5,828.3453002952984
6,828.3540867818292
7,828.3637155836069
8,828.3741116915267
9,828.3851982622381
10,828.3968970160904
11,828.4091286308958
12,828.4218131287741
13,828.4348702535674
14,828.4482198366168
15,828.4617821489927
16,828.4754782384763
17,828.4892302497582
18,828.502961726532
19,828.5165978943802
20,828.5300659234853
21,828.5432951702603
22,828.5562173971011
23,828.5687669696589
24,828.5808810312209
25,828.5924996538798
26,828.6035659662525
27,828.614026257608
28,828.6238300584097
29,828.632930197426
30,828.641282835729
31,828.6488474781171
32,828.6555869627197
33,828.6614674297541
34,828.6664582705987
35,828.6705320585581
36,828.6736644629259
37,828.6758341481966
38,828.6770226605014
39,828.6772143034478
40,828.6763960054489
41,828.6745571803638
42,828.6716895829251
43,828.6677871600948
44,828.6628458992028
45,828.6568636735041
46,828.6498400857078
47,828.6417763101023
48,828.6326749340575
49,828.6225397997911
50,828.6113758473151
51,828.5991889595259
52,828.5859858105297
53,828.5717737184794
54,828.5565605043722
55,828.5403543583891
56,828.5231637154325
57,828.5049971414898
58,828.4858632323401
59,828.4657705258884
60,828.4447274291005
61,828.4227421602063
62,828.3998227066336
63,828.3759767989868
64,828.3512119011931
65,828.3255352166291
66,828.2989537096203
67,828.2714741413145
68,828.2431031186961
69,828.2138471554848
70,828.1837127437927
71,828.1527064355414
72,828.1208349326059
73,828.0881051844219
74,828.0545244914101
75,828.0201006122066
76,827.9848418724303
77,827.9487572726306
78,827.9118565932079
79,827.8741504945183
80,827.8356506109649
81,827.7963696384251
82,827.756321414741
83,827.7155209931931
84,827.673984708927
85,827.6317302382886
86,827.5887766509932
87,827.5451444550152
88,827.5008556340382
89,827.4559336772587
90,827.4104036012993
91,827.3642919639559
92,827.3176268694472
93,827.2704379647345
94,827.2227564263986
95,827.1746149375455
96,827.1260476542893
97,827.0770901615242
98,827.027779417948
99,826.9781536905892
100,826.928252479295
101,826.8781164317849
102,826.827787250019
103,826.7773075887268
104,826.726720946875
105,826.6760715526138
106,826.6254042419779
107,826.574764331493
108,826.5241974848374
109,826.47374957377
110,826.4234665337052
111,826.3733942145547
112,826.3235782277137
113,826.2740637901969
114,826.2248955669135
115,826.1761175119768
116,826.1277727097928
117,826.079903216545
118,826.0325499026333
119,825.9857522966581
120,825.9395484315929
121,825.8939746938504
122,825.8490656760413
123,825.8048540343542
124,825.761370351596
125,825.7186430069905
126,825.6766980538451
127,825.6355591062029
128,825.5952472356323
129,825.555780879393
130,825.5171757612476
131,825.4794448260963
132,825.4425981894066
133,825.4066431022476
134,825.3715839326657
135,825.3374221641095
136,825.3041564115586
137,825.2717824558603
138,825.2402932965242
139,825.2096792228616
140,825.1799279029534
141,825.1510244895253
142,825.1229517414204
143,825.0956901589999
144,825.0692181315605
145,825.0435120948008
146,825.0185466965419
147,824.9942949692268
148,824.9707285080322
149,824.9478176536109
150,824.9255316785179
151,824.9038389763152
152,824.8827072522794
153,824.862103714651
154,824.8419952654729
155,824.8223486902342
156,824.8031308457007
157,824.7843088454166
158,824.7658502423969
159,824.7477232085112
160,824.7298967100463
161,824.7123406789622
162,824.6950261793753
163,824.677925568814
164,824.6610126537821
165,824.6442628392078
166,824.6276532714327
167,824.6111629744765
168,824.5947729793264
169,824.5784664458505
170,824.5622287766013
171,824.5460477213596
172,824.5299134709556
173,824.5138187387719
174,824.4977588283848
175,824.4817316859632
176,824.4657379362883
177,824.4497809015166
178,824.4338666020319
179,824.4180037389389
180,824.4022036579522
181,824.3864802946313
182,824.3708501010824
183,824.3553319544833
184,824.339947048041
185,824.3247187652196
186,824.3096725381613
187,824.2948356912566
188,824.2802372709531
189,824.2659078632115
190,824.251879400449
191,824.2381849601855
192,824.2248585578624
193,824.2119349363916
194,824.1994493549381
195,824.1874373792091
196,824.1759346751967
197,824.1649768079344
198,824.1545990464579
199,824.1448361758917
200,824.135722317435
201,824.1272907569446
202,824.1195737827334
203,824.1126025330899
204,824.1064068539026
205,824.1010151666068
206,824.0964543464661
207,824.0927496110318
208,824.0899244186006
209,824.0880003766006
210,824.0869971599103
211,824.0869324391082
212,824.0878218185965
213,824.0896787845953
214,824.0925146631257
215,824.0963385882467
216,824.1011574808998
217,824.1069760386684
218,824.1137967365646
219,824.1216198386436
220,824.1304434198736
221,824.1402633973357
222,824.1510735696003
223,824.1628656630903
224,824.1756293843687
225,824.1893524774496
226,824.2040207853715
227,824.2196183154049
228,824.2361273074848
229,824.2535283057032
230,824.2718002329167
231,824.2909204686653
232,824.3108649305788
233,824.3316081592168
234,824.3531234059393
235,824.3753827231237
236,824.3983570559443
237,824.422016334992
238,824.4463295691592
239,824.4712649384071
240,824.4967898862566
241,824.5228712120919
242,824.5494751635473
243,824.5765675292788
244,824.6041137322883
245,824.6320789237922
246,824.6604280775139
247,824.6891260842576
248,824.7181378466252
249,824.7474283736946
250,824.7769628753925
251,824.806706856191
252,824.8366262076897
253,824.866687299568
254,824.8968570683026
255,824.9271031029709
256,824.9573937274847
257,824.987698078737
258,825.0179861803757
259,825.0482290121553
260,825.0783985750209
261,825.1084679522132
262,825.1384113667235
263,825.1682042353216
264,825.1978232191649
265,825.2272462707421
266,825.2564526766953
267,825.2854230959634
268,825.31413959269
269,825.3425856633964
270,825.3707462579137
271,825.3986077934494
272,825.4261581610493
273,825.4533867237518
274,825.4802843060044
275,825.5068431743168
276,825.533057009499
277,825.5589208710456
278,825.584431154271
279,825.6095855407466
280,825.6343829425695
281,825.6588234410406
282,825.6829082204156
283,825.7066394974341
284,825.7300204473302
285,825.7530551270387
286,825.7757483963725
287,825.7981058380271
288,825.820133677344
289,825.841838702736
290,825.8632281875607
291,825.8843098141126
292,825.9050916003857
293,825.9255818302954
294,825.9457889880607
295,825.9657216973491
296,825.9853886655511
297,826.0047986332492
298,826.0239603286168
299,826.0428824262174
300,826.0615735095315
301,826.0800420365617
302,826.0982963080055
303,826.1163444376853
304,826.1341943250902
305,826.1518536299868
306,826.1693297491682
307,826.1866297956038
308,826.2037605804544
309,826.2207285985406
310,826.2375400178153
311,826.2542006732206
312,826.270716065095
313,826.2870913620502
314,826.3033314079785
315,826.3194407325888
316,826.3354235646588
317,826.3512838471156
318,826.367025253154
319,826.38265120285
320,826.3981648800769
321,826.4135692498684
322,826.4288670765237
323,826.4440609426065
324,826.4591532686082
325,826.4741463326699
326,826.489042289541
327,826.5038431879195
328,826.5185509853824
329,826.5331675601997
330,826.5476947194427
331,826.56213420298
332,826.576487683261
333,826.590756761151
334,826.604942958375
335,826.6190477071733
336,826.6330723375523
337,826.6470180621
338,826.660885957985
339,826.6746769456527
340,826.6883917639283
341,826.7020309416869
342,826.7155947668388
343,826.7290832539414
344,826.7424961121079
345,826.7558327149716
346,826.769092074323
347,826.7822728187311
348,826.7953731780311
349,826.8083909741096
350,826.821323618089
351,826.8341681138681
352,826.846921067908
353,826.8595787050081
354,826.8721368895407
355,826.884591151276
356,826.8969367146585
357,826.909168530322
358,826.921281307754
359,826.9332695482516
360,826.9451275775685
361,826.9568495779195
362,826.9684296192652
363,826.9798616900041
364,826.991139727294
365,827.0022576472627
366,827.0132093753579
367,827.0239888771238
368,827.0345901897808
369,827.0450074550866
370,827.0552349540155
371,827.0652671437434
372,827.0750986973163
373,827.0847245462386
374,827.0941399260862
375,827.1033404250505
376,827.112322035034
377,827.1210812045816
378,827.1296148926734
379,827.1379206223447
380,827.1459965332306
381,827.1538414323833
382,827.161454842954
383,827.1688370505005
384,827.1759891467358
385,827.1829130704622
386,827.1896116453083
387,827.1960886137233
388,827.2023486665362
389,827.2083974672906
390,827.214241670531
391,827.2198889332358
392,827.2253479185977
393,827.2306282913672
394,827.2357407040669
395,827.2406967735653
396,827.2455090477087
397,827.2501909618364
398,827.2547567850621
399,827.2592215562343
400,827.2636010096312
401,827.2679114906992
402,827.272169862456
403,827.2763934034069
404,827.2805996978669
405,827.2848065194732
406,827.2890317085888
407,827.2932930443575
408,827.2976081124261
409,827.3019941696534
410,827.3064680073511
411,827.3110458146394
412,827.3157430433456
413,827.3205742755645
414,827.3255530946351
415,827.330691959984
416,827.3360020861235
417,827.3414933260532
418,827.3471740593416
419,827.3530510852216
420,827.3591295211563
421,827.365412707491
422,827.3719021189327
423,827.3785972836444
424,827.3854957107342
425,827.3925928268172
426,827.3998819222132
427,827.4073541073142
428,827.4149982798143
429,827.4228011037311
430,827.4307470012661
431,827.4388181584713
432,827.4469945454389
433,827.4552539514241
434,827.4635720350191
435,827.4719223892794
436,827.4802766215334
437,827.4886044474193
438,827.4968737984508
439,827.505050942161
440,827.5131006136908
441,827.5209861576461
442,827.528669679101
443,827.5361122026999
444,827.5432738388587
445,827.5501139560704
446,827.5565913583132
447,827.5626644665597
448,827.568291503407
449,827.5734306799133
450,827.5780403838493
451,827.58207936873
452,827.585506943094
453,827.5882831595113
454,827.5903690027565
455,827.5917265765387
456,827.5923192881544
457,827.5921120303631
458,827.5910713596783
459,827.5891656701148
460,827.5863653612641
461,827.5826429994349
462,827.5779734705179
463,827.5723341232946
464,827.5657049020964
465,827.5580684679692
466,827.5494103077178
467,827.539718830363
468,827.5289854506423
469,827.517204659279
470,827.5043740798575
471,827.490494512326
472,827.4755699633753
473,827.4596076641931
474,827.4426180762543
475,827.4246148858031
476,827.4056149874796
477,827.3856384572489
478,827.3647085145157
479,827.3428514731175
480,827.3200966807416
481,827.2964764461428
482,827.2720259534043
483,827.2467831624799
484,827.2207886954662
485,827.1940857083841
486,827.1667197486217
487,827.1387385985041
488,827.11019210558
489,827.0811320001452
490,827.051611700381
491,827.0216861054912
492,826.9914113774435
493,826.9608447122852
494,826.9300441023727
495,826.8990680911735
496,826.867975522512
497,826.8368252862351
498,826.8056760623392
499,826.7745860657109
500,826.7436127937862
501,826.7128127795376
502,826.6822413521678
503,826.6519524077121
504,826.6219981914298
505,826.5924290935104
506,826.5632934592977
507,826.5346374150333
508,826.5065047099773
509,826.4789365756938
510,826.4519716033185
511,826.4256456397368
512,826.3999917036957
513,826.3750399228541
514,826.3508174925812
515,826.3273486569593
516,826.3046547119541
517,826.2827540301673
518,826.2616621060773
519,826.2413916202847
520,826.221952521045
521,826.2033521213098
522,826.1855952095879
523,826.1686841730456
524,826.1526191312412
525,826.137398078694
526,826.12301703425
527,826.1094701950337
528,826.0967500927052
529,826.0848477497523
530,826.0737528337015
531,826.0634538074239
532,826.0539380741523
533,826.0451921163035
534,826.0372016275968
535,826.0299516382004
536,826.0234266327616
537,826.0176106612139
538,826.0124874422092
539,826.0080404589122
540,826.0042530467678
541,826.0011084728075
542,825.9985900061523
543,825.996680979578
544,825.9953648422292
545,825.9946252037033
546,825.9944458697702
547,825.9948108700263
548,825.9957044778594
549,825.9971112232049
550,825.9990158986787
551,826.0014035597932
552,826.0042595200898
553,826.0075693420903
554,826.011318824959
555,826.0154939897103
556,826.0200810627446
557,826.0250664584767
558,826.0304367617582
559,826.0361787106373
560,826.0422791798107
561,826.0487251649948
562,826.0555037683934
563,826.0626021854083
564,826.0700076926255
565,826.0777076369795
566,826.0856894258847
567,826.0939405180859
568,826.1024484150404
569,826.111200652795
570,826.1201847945157
571,826.1293884239485
572,826.1387991400677
573,826.1484045530486
574,826.1581922815632
575,826.168149951304
576,826.1782651946158
577,826.1885256511638
578,826.1989189696716
579,826.2094328108162
580,826.2200548513159
581,826.2307727891273
582,826.2415743496053
583,826.2524472925353
584,826.2633794200427
585,826.2743585854425
586,826.2853727030304
587,826.2964097586957
588,826.3074578211057
589,826.3185050531447
590,826.3295397232657
591,826.3405502163442
592,826.3515250435493
593,826.3624528507137
594,826.3733224247695
595,826.3841226980147
596,826.394842750263
597,826.4054718092711
598,826.4159992501262
599,826.426414594446
600,826.4367075103062
601,826.4468678137978
602,826.4568854730807
603,826.4667506156943
604,826.4764535396732
605,826.4859847286837
606,826.4953348710582
607,826.5044948823346
608,826.5134559307025
609,826.5222094646164
610,826.5307472417941
611,826.5390613588748
612,826.5471442810222
613,826.5549888706543
614,826.5625884143143
615,826.5699366466523
616,826.5770277706598
617,826.5838564736108
618,826.5904179385587
619,826.5967078516823
620,826.6027224061891
621,826.608458303764
622,826.6139127546124
623,826.6190834770356
624,826.6239686972463
625,826.6285671498937
626,826.632878079588
627,826.6369012435431
628,826.6406369152515
629,826.6440858888626
630,826.6472494837938
631,826.6501295491017
632,826.652728467232
633,826.6550491568413
634,826.657095074434
635,826.6588702146058
636,826.660379108788
637,826.6616268225246
638,826.6626189514158
639,826.6633616158575
640,826.6638614545788
641,826.6641256168305
642,826.6641617530528
643,826.6639780039488
644,826.6635829880041
645,826.6629857874726
646,826.662195932722
647,826.6612233846673
648,826.6600785149124
649,826.6587720831811
650,826.6573152116275
651,826.6557193556229
652,826.6539962705633
653,826.6521579741451
654,826.6502167035321
655,826.6481848669931
656,826.6460749898749
657,826.6438996551203
658,826.6416714388362
659,826.6394028416249
660,826.637106216479
661,826.634793693976
662,826.6324771053071
663,826.6301679034007
664,826.6278770822308
665,826.6256150944436
666,826.6233917676685
667,826.6212162202066
668,826.6190967770405
669,826.6170408872663
670,826.6150550441278
671,826.6131447088461
672,826.6113142393779
673,826.6095668250787
674,826.6079044281199
675,826.6063277324267
676,826.6048361008515
677,826.6034275412031
678,826.6020986815797
679,826.6008447552198
680,826.5996595948536
681,826.5985356363448
682,826.597463931358
683,826.5964341689447
684,826.5954347062368
685,826.5944526087175
686,826.5934737006352
687,826.5924826259718
688,826.591462920009
689,826.5903970910872
690,826.5892667117823
691,826.5880525185805
692,826.5867345192247
693,826.5852921071288
694,826.583704182429
695,826.581949279266
696,826.5800056987865
697,826.5778516471734
698,826.5754653778713
699,826.5728253371179
700,826.5699103119243
701,826.56669957964
702,826.5631730581247
703,826.559311455371
704,826.5550964173514
705,826.5505106729371
706,826.5455381748776
707,826.5401642359377
708,826.5343756593351
709,826.5281608625901
710,826.5215099937907
711,826.5144150391549
712,826.5068699208043
713,826.4988705838264
714,826.49041507187
715,826.4815035906116
716,826.4721385584677
717,826.4623246439425
718,826.4520687890047
719,826.4413802179099
720,826.4302704309317
721,826.4187531825335
722,826.4068444435572
723,826.3945623470286
724,826.3819271172284
725,826.3689609818315
726,826.3556880671798
727,826.3421342770972
728,826.3283271559922
729,826.3142957373165
730,826.300070378733
731,826.2856825856237
732,826.2711648248752
733,826.2565503312029
734,826.2418729084656
735,826.2271667284025
736,826.2124661289705
737,826.1978054141204
738,826.1832186565592
739,826.1687395048502
740,826.1544009960918
741,826.1402353752936
742,826.1262739223537
743,826.1125467872378
744,826.0990828336594
745,826.0859094913866
746,826.0730526173198
747,826.0605363655826
748,826.0483830668928
749,826.0366131173957
750,826.0252448770023
751,826.0142945771872
752,826.0037762381959
753,825.9937015957329
754,825.9840800374171
755,825.9749185494878
756,825.9662216743353
757,825.9579914793813
758,825.9502275376532
759,825.9429269201703
760,825.9360842000712
761,825.9296914683221
762,825.9237383608768
763,825.9182120972217
764,825.9130975302642
765,825.908377207483
766,825.9040314432042
767,825.9000384018751
768,825.8963741923205
769,825.893012973098
770,825.8899270691419
771,825.8870870998302
772,825.884462118434
773,825.8820197626482
774,825.8797264156316
775,825.8775473767699
776,825.8754470412522
777,825.8733890875459
778,825.8713366719747
779,825.8692526297732
780,825.8670996820875
781,825.8648406483225
782,825.8624386630339
783,825.8598573963461
784,825.8570612766977
785,825.854015714626
786,825.8506873262023
787,825.8470441545483
788,825.8430558876083
789,825.8386940701262
790,825.8339323076798
791,825.8287464606706
792,825.8231148262735
793,825.8170183065145
794,825.8104405608022
795,825.8033681414263
796,825.7957906107611
797,825.7877006392075
798,825.7790940831553
799,825.7699700424172
800,825.7603308966836
801,825.7501823206323
802,825.7395332774337
803,825.7283959905174
804,825.716785893658
805,825.7047215597012
806,825.6922246086162
807,825.6793195960381
808,825.6660338839301
809,825.6523974953191
810,825.6384429551732
811,825.6242051194725
812,825.6097209943995
813,825.5950295473808
814,825.5801715114867
815,825.5651891844761
816,825.5501262236086
817,825.5350274372104
818,825.5199385739043
819,825.504906110353
820,825.4899770383554
821,825.4751986521848
822,825.460618337194
823,825.4462833608643
824,825.4322406675107
825,825.4185366777925
826,825.4052170941035
827,825.3923267129476
828,825.3799092455239
829,825.3680071478052
830,825.3566614613413
831,825.3459116658685
832,825.335795544684
833,825.3263490636285
834,825.317606264367
835,825.3095991724446
836,825.3023577203309
837,825.295909685344
838,825.290280642052
839,825.2854939286061
840,825.2815706265295
841,825.2785295536493
842,825.2763872699799
843,825.2751580963921
844,825.274854145843
845,825.2754853668089
846,825.2770595984065
847,825.279582636538
848,825.2830583102902
849,825.2874885677187
850,825.2928735700333
851,825.29921179314
852,825.3065001355005
853,825.3147340313113
854,825.3239075679685
855,825.3340136067068
856,825.3450439052197
857,825.3569892409473
858,825.3698395335304
859,825.3835839647106
860,825.398211093878
861,825.4137089676311
862,825.4300652220595
863,825.4472671767788
864,825.4653019200052
865,825.4841563841795
866,825.5038174119369
867,825.5242718125288
868,825.5455064090247
869,825.567508076691
870,825.5902637729209
871,825.6137605590238
872,825.6379856140755
873,825.6629262408691
874,825.6885698638074
875,825.7149040184547
876,825.7419163324848
877,825.7695944979876
878,825.797926235414
879,825.8268992497054
880,825.8565011792783
881,825.8867195385292
882,825.9175416544321
883,825.9489545976978
884,825.9809451089105
885,826.0134995201371
886,826.0466036726954
887,826.080242831999
888,826.1144016005665
889,826.1490638303566
890,826.1842125355574
891,826.2198298067866
892,826.2558967274028
893,826.2923932923587
894,826.329298329912
895,826.3665894265714
896,826.4042428557655
897,826.4422335108101
898,826.4805348428301
899,826.519118804455
900,826.557955800348
901,826.597014645843
902,826.6362625350743
903,826.6756650199713
904,826.715186001398
905,826.7547877335697
906,826.7944308426967
907,826.834074360581
908,826.8736757736543
909,826.9131910876474
910,826.9525749077465
911,826.991780533777
912,827.0307600697107
913,827.0694645466027
914,827.1078440579112
915,827.1458479059739
916,827.1834247582839
917,827.2205228121193
