frame_number,force
0,710.795288000177
1,710.7581501052316
2,710.7214690394893
3,710.6856946647906
4,710.6512624445021
5,710.6185852705487
6,710.5880445732951
7,710.5599810664352
8,710.5346857386759
9,710.5123918294934
10,710.4932685019453
11,710.477416780031
12,710.4648681171386
13,710.4555857688671
14,710.4494689532085
15,710.4463595687059
16,710.4460510640916
17,710.4482989897257
18,710.4528327736516
19,710.459368236272
20,710.4676202471084
21,710.4773148108646
22,710.4881998472581
23,710.5000540305913
24,710.5126932347882
25,710.5259743306426
26,710.5397962837447
27,710.5540986874045
28,710.5688579969352
29,710.5840818021044
30,710.5998015359979
31,710.6160641119602
32,710.6329230590497
33,710.6504297016119
34,710.6686247913733
35,710.6875308549527
36,710.7071454708647
37,710.7274357341342
38,710.7483342115802
39,710.7697366568548
40,710.7915016335106
41,710.813452033157
42,710.8353783346435
43,710.8570433751314
44,710.8781883973667
45,710.8985401613874
46,710.917818929138
47,710.935747130497
48,710.9520584858724
49,710.9665072879664
50,710.978877429031
51,710.9889906071793
52,710.9967130252151
53,711.0019599146552
54,711.0046974174227
55,711.0049416897631
56,711.0027554792631
57,710.9982427766294
58,710.991542349576
59,710.9828209654727
60,710.9722669664883
61,710.9600846920841
62,710.9464900700419
63,710.9317074586542
64,710.9159675303124
65,710.8995057579768
66,710.8825609955123
67,710.8653737215757
68,710.8481836833766
69,710.8312268723973
70,710.814731936482
71,710.7989162486842
72,710.7839819111005
73,710.770111972768
74,710.7574670714583
75,710.7461825756696
76,710.73636616149
77,710.7280956933386
78,710.7214173402448
79,710.7163440317003
80,710.7128545693223
81,710.7108938829904
82,710.7103749734832
83,710.7111829600452
84,710.7131813781663
85,710.7162205602891
86,710.720147662918
87,710.724817686122
88,710.7301046832144
89,710.735912339103
90,710.7421832246051
91,710.7489062472945
92,710.7561220339742
93,710.7639261622221
94,710.7724703145836
95,710.7819615428624
96,710.7926598612496
97,710.8048743354622
98,710.8189577460719
99,710.8352998143766
100,710.854318918003
101,710.8764522264119
102,710.9021442430197
103,710.9318338049646
104,710.9659396877198
105,711.0048451768986
106,711.0488823047349
107,711.0983167503839
108,711.1533344695076
109,711.214030868763
110,711.2804029004412
111,711.3523440479584
112,711.4296419248074
113,711.5119780970607
114,711.5989297531492
115,711.6899730337437
116,711.78448817489
117,711.8817669483004
118,711.9810230214799
119,712.0814057363833
120,712.1820174722105
121,712.2819343220426
122,712.3802293765907
123,712.4759975509884
124,712.5683806638588
125,712.6565914123489
126,712.7399349888508
127,712.8178273077085
128,712.8898090734751
129,712.9555551951686
130,713.014879345639
131,713.0677337486983
132,713.1142044963051
133,713.1545028691131
134,713.1889532956482
135,713.2179787316587
136,713.2420843605773
137,713.2618406126792
138,713.2778665218202
139,713.290814263721
140,713.3013552961661
141,713.310167994822
142,713.3179263029432
143,713.3252888231515
144,713.3328879165039
145,713.3413186065853
146,713.3511273165801
147,713.3628006740785
148,713.3767548371477
149,713.3933259979419
150,713.4127627793436
151,713.4352211048486
152,713.4607619093206
153,713.4893518790304
154,713.5208672339919
155,713.5551003333605
156,713.591768625694
157,713.6305252497655
158,713.6709704450869
159,713.7126628760954
160,713.7551300745074
161,713.7978774912007
162,713.8403960292429
163,713.8821682418388
164,713.9226735402887
165,713.961392821536
166,713.9978129707824
167,714.0314317097497
168,714.061763201097
169,714.0883447017854
170,714.1107444215795
171,714.1285705778595
172,714.141481408877
173,714.1491956162367
174,714.1515024143542
175,714.1482701585013
176,714.1394524960036
177,714.1250912171078
178,714.1053154483191
179,714.0803373273292
180,714.0504446013064
181,714.0159906952674
182,713.9773828580178
183,713.9350690691989
184,713.8895244098159
185,713.841237504565
186,713.7906974727122
187,713.7383816760516
188,713.684744519013
189,713.6302076180556
190,713.5751516878828
191,713.5199103996194
192,713.4647662871412
193,713.4099486118456
194,713.3556330084126
195,713.30194272489
196,713.2489513116018
197,713.1966866828827
198,713.1451365300325
199,713.0942550270576
200,713.0439706133288
201,712.9941944270462
202,712.9448287963758
203,712.8957751271845
204,712.8469405917198
205,712.7982432345174
206,712.7496153990787
207,712.7010055932317
208,712.6523789569166
209,712.6037164223598
210,712.5550125810355
211,712.5062722557758
212,712.4575058293623
213,712.4087235197899
214,712.3599290003448
215,712.3111129441328
216,712.2622471303739
217,712.2132796662006
218,712.164131697794
219,712.1146957829814
220,712.0648359501267
221,712.0143893842644
222,711.9631696013952
223,711.9109708826637
224,711.8575737123717
225,711.8027510348364
226,711.746275242114
227,711.6879258161651
228,711.6274974347914
229,711.564808170641
230,711.4997072707355
231,711.4320819838608
232,711.3618630403727
233,711.2890286341574
234,711.2136069653287
235,711.1356774565178
236,711.0553706987013
237,710.9728671501341
238,710.8883946466874
239,710.802224818425
240,710.7146685241562
241,710.6260704712162
242,710.5368032863406
243,710.4472613417673
244,710.3578545370694
245,710.2690020540182
246,710.1811259807387
247,710.094644715729
248,710.0099661853354
249,709.9274810678378
250,709.8475563237041
251,709.770529324324
252,709.6967027807295
253,709.6263405865633
254,709.5596646544186
255,709.4968528200229
256,709.4380378645534
257,709.3833076314205
258,709.3327061041975
259,709.2862352168785
260,709.2438571283591
261,709.2054967134522
262,709.1710440934543
263,709.1403571566593
264,709.1132641911834
265,709.0895668948563
266,709.0690440444824
267,709.0514559742211
268,709.0365497950647
269,709.0240650722993
270,709.0137395293285
271,709.005314311506
272,708.9985384296549
273,708.9931721336654
274,708.9889890567995
275,708.9857770581469
276,708.9833378779894
277,708.9814859870899
278,708.9800471944377
279,708.9788575631645
280,708.9777630125074
281,708.9766197841103
282,708.9752958156986
283,708.973672977448
284,708.9716500123959
285,708.9691458923033
286,708.9661032635323
287,708.9624917484934
288,708.9583109703757
289,708.9535931714278
290,708.948405224502
291,708.9428497810495
292,708.9370652860061
293,708.9312246103838
294,708.9255321223433
295,708.920219149173
296,708.9155379213083
297,708.911754167037
298,708.9091385497555
299,708.9079571724805
300,708.9084614695462
301,708.9108779652989
302,708.9153985389804
303,708.92217189778
304,708.9312968786402
305,708.942818010909
306,708.9567235549911
307,708.9729460321322
308,708.9913650711235
309,709.0118122159678
310,709.0340772024798
311,709.0579151731237
312,709.083054365628
313,709.1092039228179
314,709.136061564553
315,709.1633209426734
316,709.1906786085209
317,709.2178406390768
318,709.2445289944501
319,709.2704875621073
320,709.2954876687296
321,709.3193327615312
322,709.3418620496465
323,709.3629531046562
324,709.3825236315727
325,709.4005327237121
326,709.416981867294
327,709.4319158283874
328,709.445423438743
329,709.4576382383976
330,709.468738891958
331,709.4789492309825
332,709.4885376893433
333,709.4978157975819
334,709.5071352868617
335,709.5168832744314
336,709.5274750571679
337,709.5393442760226
338,709.5529305740621
339,709.5686652485603
340,709.5869557281425
341,709.6081699425841
342,709.6326217018931
343,709.6605579974266
344,709.6921487738218
345,709.727479397799
346,709.7665458990341
347,709.8092530545129
348,709.8554154179357
349,709.9047613708832
350,709.9569401707981
351,710.0115318037713
352,710.0680592534861
353,710.1260026580671
354,710.1848148204704
355,710.2439376166303
356,710.3028188694118
357,710.3609291715225
358,710.4177780333576
359,710.4729286844228
360,710.5260108372628
361,710.5767306771429
362,710.6248773353514
363,710.6703252792315
364,710.7130324475455
365,710.7530344619645
366,710.7904356859398
367,710.8253981449756
368,710.8581293125675
369,710.888869570871
370,710.9178799250818
371,710.9454304063064
372,710.9717895559675
373,710.9972153663973
374,711.0219479585777
375,711.0462040942565
376,711.0701734348837
377,711.0940163602066
378,711.1178631349308
379,711.1418141958297
380,711.165941298655
381,711.1902892658451
382,711.2148781856012
383,711.2397061164307
384,711.264752506096
385,711.2899824867569
386,711.3153519462275
387,711.3408129287673
388,711.3663186454709
389,711.3918272690606
390,711.4173037700396
391,711.442719305393
392,711.468048085912
393,711.4932621856924
394,711.5183252853747
395,711.5431866514311
396,711.5677765922352
397,711.5920042233536
398,711.6157578347052
399,711.6389077317576
400,711.6613112051352
401,711.6828191621122
402,711.7032838315466
403,711.7225668834681
404,711.7405473816574
405,711.7571291778917
406,711.7722475176658
407,711.78587466536
408,711.7980242919951
409,711.8087542772168
410,711.8181675274153
411,711.8264104466632
412,711.833668843703
413,711.8401613204537
414,711.8461305028789
415,711.8518327215148
416,711.8575268522186
417,711.8634630306934
418,711.8698719311769
419,711.8769552394161
420,711.8848777836428
421,711.8937615118922
422,711.9036812215201
423,711.9146617690219
424,711.9266764581142
425,711.9396464123331
426,711.9534409479726
427,711.9678792019395
428,711.9827334387331
429,711.9977344680425
430,712.0125794131342
431,712.0269417501369
432,712.0404832335032
433,712.0528671342893
434,712.0637721335632
435,712.0729061768951
436,712.0800195986565
437,712.0849168805065
438,712.0874664905193
439,712.0876083198117
440,712.0853582986797
441,712.0808098699969
442,712.0741321422648
443,712.0655647174663
444,712.0554093439466
445,712.04401866553
446,712.0317824661881
447,712.0191119795264
448,712.0064230088228
449,711.9941187209181
450,711.982573010331
451,711.9721152888089
452,711.9630174429711
453,711.9554835205663
454,711.9496425010449
455,711.9455443585399
456,711.9431595517123
457,711.9423819886678
458,711.943035335491
459,711.9448822904291
460,711.9476362154002
461,711.9509743475476
462,711.9545517156386
463,711.9580148890601
464,711.9610148341504
465,711.963218420466
466,711.9643183862971
467,711.9640417112785
468,711.9621563438325
469,711.9584761985024
470,711.9528643759273
471,711.9452346675
472,711.9355515049822
473,711.9238285315641
474,711.9101259159481
475,711.8945464713881
476,711.8772306190173
477,711.8583502539014
478,711.8381016429058
479,711.8166976021952
480,711.7943593182874
481,711.7713082363151
482,711.747758423768
483,711.7239097164488
484,711.6999417671261
485,711.6760089129498
486,711.6522356774758
487,711.6287128091959
488,711.6054939846166
489,711.5825935175926
490,711.559985495161
491,711.5376047123106
492,711.5153496828806
493,711.4930878942041
494,711.4706633263029
495,711.447906059823
496,711.4246435827931
497,711.4007132243974
498,711.3759750191483
499,711.350324240448
500,711.3237028457106
501,711.2961091421919
502,711.2676050848222
503,711.2383207349966
504,711.2084555492818
505,711.1782763415662
506,711.1481119699374
507,711.1183450003022
508,711.0894007197228
509,711.0617338962982
510,711.0358136908493
511,711.0121072010513
512,710.9910622514215
513,710.9730901611131
514,710.9585492725678
515,710.9477300206247
516,710.9408423102407
517,710.9380059499215
518,710.9392447960889
519,710.9444850405233
520,710.9535577124495
521,710.966205056263
522,710.9820901306504
523,711.0008088221442
524,711.0219034139855
525,711.0448768277823
526,711.0692066852921
527,711.0943584994113
528,711.1197976144008
529,711.1449998803217
530,711.1694613253555
531,711.1927072021934
532,711.2143007489994
533,711.2338518966229
534,711.2510260383723
535,711.2655528800032
536,711.277235289656
537,711.2859579252664
538,711.2916951938607
539,711.2945178463898
540,711.2945973884703
541,711.2922076059194
542,711.2877227888199
543,711.2816124936312
544,711.274432817783
545,711.2668142523853
546,711.2594463341856
547,711.253059577345
548,711.2484054847477
549,711.2462356788566
550,711.2472811987569
551,711.2522327732398
552,711.2617225712874
553,711.2763077444812
554,711.2964560667025
555,711.3225340725633
556,711.3547981799389
557,711.3933892298551
558,711.4383306158007
559,711.489529770258
560,711.5467824189017
561,711.6097788812506
562,711.6781118294151
563,711.7512851908815
564,711.8287241124655
565,711.9097859800745
566,711.9937724208897
567,712.0799420801361
568,712.1675238530374
569,712.2557302150241
570,712.3437703206197
571,712.4308625963373
572,712.5162466170382
573,712.599194130585
574,712.6790191731213
575,712.7550872516737
576,712.8268235019492
577,712.8937195694348
578,712.9553388353875
579,713.0113196386169
580,713.0613763280228
581,713.105298235851
582,713.1429469318102
583,713.1742523816229
584,713.1992088252841
585,713.2178712062592
586,713.2303527916652
587,713.2368243151225
588,713.2375146660387
589,713.232712893435
590,713.222771091109
591,713.2081075781877
592,713.1892096635356
593,713.1666351587004
594,713.1410117155037
595,713.1130331113807
596,713.0834518605432
597,713.0530679540079
598,713.0227140085633
599,712.9932375142289
600,712.9654811150093
601,712.9402618833992
602,712.9183504110307
603,712.9004503958363
604,712.8871793653722
605,712.8790511953969
606,712.8764610806799
607,712.8796735576022
608,712.8888140466353
609,712.9038641823964
610,712.9246609996102
611,712.9508999132513
612,712.982141359743
613,713.017820906509
614,713.0572625763626
615,713.0996950769146
616,713.1442705460244
617,713.1900852833111
618,713.236201774864
619,713.2816712489638
620,713.3255560691828
621,713.3669513883326
622,713.4050055675779
623,713.4389389312474
624,713.4680605113592
625,713.491782492608
626,713.5096320698183
627,713.521260444072
628,713.526448784013
629,713.5251111307057
630,713.5172943256623
631,713.5031750406712
632,713.4830539255187
633,713.4573468436612
634,713.426573200657
635,713.3913415337139
636,713.3523328271704
637,713.3102823422497
638,713.2659609038611
639,713.2201564441251
640,713.173656242241
641,713.1272299584637
642,713.0816134167505
643,713.0374931358289
644,712.9954917199574
645,712.9561543269753
646,712.9199365305548
647,712.887193962537
648,712.8581741287837
649,712.8330107834656
650,712.8117212870266
651,712.794207410575
652,712.7802599447987
653,712.7695671848319
654,712.761727034221
655,712.7562622654721
656,712.7526383992191
657,712.7502836116313
658,712.748609999253
659,712.7470354587759
660,712.7450053894845
661,712.7420133728433
662,712.7376199589698
663,712.7314687618848
664,712.7232992238078
665,712.7129555782221
666,712.700391683741
667,712.6856715466496
668,712.6689655726592
669,712.6505429156014
670,712.6307606020486
671,712.6100502325817
672,712.5889029829854
673,712.5678534901581
674,712.5474630985755
675,712.5283028687285
676,712.5109367067752
677,712.4959049549681
678,712.4837087519828
679,712.4747954136627
680,712.4695450242798
681,712.4682584143488
682,712.4711467513387
683,712.4783230405301
684,712.4897958524459
685,712.5054655354653
686,712.525123097438
687,712.5484519301583
688,712.5750325938855
689,712.6043508457578
690,712.6358088668754
691,712.6687392731976
692,712.7024212028389
693,712.7360977187129
694,712.7689938895824
695,712.8003350303919
696,712.8293646101192
697,712.8553613381811
698,712.8776549861072
699,712.8956405656407
700,712.9087905391352
701,712.9166648164303
702,712.9189184028822
703,712.9153066370482
704,712.9056879420682
705,712.8900239551166
706,712.8683768778241
707,712.8409039428402
708,712.8078489967786
709,712.7695313355094
710,712.7263321087074
711,712.6786788620619
712,712.6270290666764
713,712.5718536686612
714,712.5136216865195
715,712.452786739573
716,712.389776211283
717,712.3249835672844
718,712.2587641320895
719,712.1914343622914
720,712.1232743470473
721,712.054532973394
722,711.9854350026569
723,711.9161892481737
724,711.8469970695332
725,711.7780604702498
726,711.7095892514957
727,711.641806942545
728,711.5749554716269
729,711.5092986210766
730,711.4451242425145
731,711.3827451082728
732,711.3224982172147
733,711.2647423707932
734,711.2098538959468
735,711.1582204919846
736,711.1102332575241
737,711.0662769945021
738,711.0267189548118
739,710.9918963468135
740,710.9621031120471
741,710.9375766245066
742,710.9184850221566
743,710.9049158875189
744,710.8968669765903
745,710.8942396458173
746,710.8968355215229
747,710.9043567513795
748,710.9164098614135
749,710.9325129063965
750,710.9521053823657
751,710.9745603185227
752,710.9991980231607
753,711.0253010314884
754,711.0521298460659
755,711.0789391021544
756,711.1049938703464
757,711.1295858865259
758,711.1520494770448
759,711.1717767962083
760,711.1882318058535
761,711.2009623193841
762,711.2096094438039
763,711.2139138761645
764,711.2137187538037
765,711.2089690891692
766,711.1997081087382
767,711.1860709308954
768,711.1682759788276
769,711.1466144823482
770,711.1214384966349
771,711.0931480368728
772,711.0621780742648
773,711.0289861532395
774,710.994041261232
775,710.9578143760247
776,710.9207708986612
777,710.8833649866267
778,710.8460356312952
779,710.8092041593388
780,710.7732726995384
781,710.738623110838
782,710.7056159498015
783,710.6745892119301
784,710.6458567280808
785,710.6197061966777
786,710.59639686606
787,710.5761568217674
788,710.5591797164462
789,710.5456207257371
790,710.5355916003799
791,710.5291548822165
792,710.5263176086037
793,710.5270251110225
794,710.5311557446652
795,710.5385174805965
796,710.5488472271148
797,710.5618135367099
798,710.5770230082936
799,710.5940302503253
800,710.6123508352067
801,710.6314763710494
802,710.6508906881305
803,710.6700861350643
804,710.6885790576595
805,710.705923715499
806,710.7217241871567
807,710.735644102537
808,710.7474141341813
809,710.756837054563
810,710.7637900340933
811,710.7682239267484
812,710.7701595456354
813,710.7696812006
814,710.7669279645082
815,710.7620832713878
816,710.7553635367314
817,710.747006504764
818,710.7372599668569
819,710.7263713801531
820,710.7145787712442
821,710.702103175864
822,710.6891427734497
823,710.675868802274
824,710.662423245286
825,710.6489181770173
826,710.6354366117209
827,710.6220346894488
828,710.6087450208003
829,710.5955809617834
830,710.5825415553464
831,710.569616896947
832,710.5567937425061
833,710.544061227116
834,710.5314165420424
835,710.5188702983335
836,710.5064511513893
837,710.494209199646
838,710.4822177714799
839,710.4705734257227
840,710.4593942122963
841,710.4488164202278
842,710.4389901781968
843,710.4300743528239
844,710.4222311933736
845,710.4156211181293
846,710.4103979548396
847,710.4067048299265
848,710.4046707459106
849,710.4044077339237
850,710.4060083818573
851,710.4095435666705
852,710.415060358006
853,710.4225802343016
854,710.432097861171
855,710.4435806805975
856,710.4569694833963
857,710.4721800567504
858,710.4891059514136
859,710.5076223670762
860,710.527591068769
861,710.5488661493278
862,710.5713003728329
863,710.5947517262066
864,710.6190896453626
865,710.6442002552706
866,710.6699899712555
867,710.6963869562387
868,710.7233401593281
869,710.7508159358524
870,710.7787925579829
871,710.8072532474324
872,710.8361786194222
873,710.8655395040682
874,710.8952909583041
875,710.9253680023194
876,710.955683380905
877,710.9861275008819
878,711.0165705123816
879,711.0468662229899
880,711.0768572660158
881,711.1063808012362
882,711.1352740064431
883,711.1633786944892
884,711.190544578859
885,711.2166309975004
886,711.2415072105748
887,711.2650516166942
888,711.2871503234456
889,711.3076954764085
890,711.326583677195
891,711.3437147669684
892,711.3589912121633
893,711.3723182804084
894,711.3836051343287
895,711.3927669016349
896,711.3997277058079
897,711.4044245734088
898,711.4068120630214
899,711.4068673634308
900,711.4045955175703
901,711.4000344310515
902,711.3932594300137
903,711.3843872336008
904,711.373579215409
905,711.3610437916683
906,711.3470377930694
907,711.3318667594168
908,711.3158841318221
909,711.299489224667
910,711.2831237114322
911,711.2672663048519
912,711.2524254014986
913,711.2391296013326
914,711.227916114288
915,711.2193171651284
916,711.2138447097117
917,711.2119741049655
