frame_number,force
0,710.7952880008726
1,710.7714604052735
2,710.7478012041549
3,710.7244773465047
4,710.7016528862849
5,710.6794875309191
6,710.6581351998498
7,710.6377426158481
8,710.6184479599473
9,710.6003796243701
10,710.5836550961208
11,710.5683799979896
12,710.5546473058475
13,710.5425367534331
14,710.5321144282391
15,710.5234325537457
16,710.5165294461029
17,710.5114296301242
18,710.5081440988353
19,710.5066706988696
20,710.5069946193523
21,710.5090889571667
22,710.5129153300137
23,710.518424511522
24,710.5255570682615
25,710.5342439849313
26,710.5444072705193
27,710.5559605443012
28,710.5688096048563
29,710.5828529875505
30,710.5979825179587
31,710.614083871833
32,710.6310371548952
33,710.6487175148936
34,710.666995793723
35,710.6857392224824
36,710.7048121607127
37,710.7240768825727
38,710.7433944142676
39,710.7626254259104
40,710.7816311769341
41,710.8002745087415
42,710.8184208735593
43,710.8359393860052
44,710.8527038837942
45,710.868593984993
46,710.8834961301419
47,710.897304597837
48,710.9099224815619
49,710.9212626134735
50,710.9312484173314
51,710.9398146680617
52,710.9469081318891
53,710.9524880622039
54,710.9565265337096
55,710.9590086093041
56,710.9599323478901
57,710.9593086738573
58,710.9571611365653
59,710.9535255887139
60,710.9484498081671
61,710.9419930825532
62,710.9342257704917
63,710.9252288455663
64,710.9150934195295
65,710.9039202336872
66,710.8918191051653
67,710.8789083175263
68,710.8653139508813
69,710.8511691532362
70,710.8366133605624
71,710.8217914768502
72,710.806853027166
73,710.7919512965132
74,710.7772424646789
75,710.7628847424322
76,710.7490375093465
77,710.735860451022
78,710.723512695372
79,710.7121519532948
80,710.7019336761017
81,710.693010247855
82,710.6855302325476
83,710.6796376919287
84,710.6754715806336
85,710.6731652148925
86,710.6728458022551
87,710.6746340127786
88,710.6786435675623
89,710.6849808203951
90,710.6937443132459
91,710.7050242941931
92,710.7189021943171
93,710.7354500668982
94,710.7547299981644
95,710.7767935032354
96,710.8016809224231
97,710.8294208316349
98,710.8600294778089
99,710.8935102473012
100,710.9298531729381
101,710.9690344852183
102,711.011016214539
103,711.0557458527563
104,711.1031560846959
105,711.1531646063619
106,711.2056740566032
107,711.2605720976788
108,711.3177316806875
109,711.3770115214776
110,711.4382567957172
111,711.5013000460285
112,711.5659622836033
113,711.6320542608502
114,711.6993778901194
115,711.7677277881122
116,711.8368929354469
117,711.9066584505963
118,711.9768074808766
119,712.0471232079988
120,712.1173909537276
121,712.1874003560899
122,712.2569475718097
123,712.3258374489508
124,712.393885606865
125,712.460920359517
126,712.5267844232736
127,712.5913363596992
128,712.6544517150361
129,712.7160238297803
130,712.7759643044459
131,712.8342031200918
132,712.8906884225976
133,712.9453859884903
134,712.9982783986278
135,713.0493639539407
136,713.0986553743015
137,713.146178327495
138,713.1919698383816
139,713.2360766245275
140,713.2785533919816
141,713.319461108442
142,713.3588652593849
143,713.3968340903535
144,713.4334368435578
145,713.4687420047113
146,713.5028155833536
147,713.5357194560282
148,713.5675098078639
149,713.5982357133955
150,713.6279378975686
151,713.6566477111049
152,713.6843863447924
153,713.7111642985935
154,713.7369811128103
155,713.7618253578663
156,713.7856748676575
157,713.8084971912901
158,713.8302502303285
159,713.8508830241943
160,713.8703366473342
161,713.8885451892737
162,713.9054367995886
163,713.9209347886818
164,713.9349587792817
165,713.9474259046208
166,713.9582520499904
167,713.9673531343848
168,713.9746464267471
169,713.9800518875015
170,713.9834935219077
171,713.9849007269672
172,713.9842096069252
173,713.9813642238652
174,713.9763177415392
175,713.9690334153757
176,713.9594853826626
177,713.9476592168896
178,713.9335522282792
179,713.9171735116477
180,713.8985437552855
181,713.87769483034
182,713.8546691844123
183,713.8295190677175
184,713.8023056227125
185,713.7730978666459
186,713.7419715922048
187,713.7090082077373
188,713.6742935384954
189,713.6379166133217
190,713.599968462862
191,713.5605409526238
192,713.5197256682708
193,713.4776128648147
194,713.4342904880884
195,713.3898432760675
196,713.3443519483227
197,713.2978924934056
198,713.2505355648291
199,713.2023459939522
200,713.1533824215303
201,713.1036970412717
202,713.0533354417405
203,713.002336529266
204,712.9507325153629
205,712.8985489579732
206,712.8458048542277
207,712.7925127883531
208,712.7386791385861
209,712.6843043431771
210,712.6293832217737
211,712.573905346762
212,712.5178554598497
213,712.461213932862
214,712.403957277847
215,712.3460587168897
216,712.2874888232336
217,712.2282162417965
218,712.1682084905074
219,712.1074328365949
220,712.0458572366402
221,711.9834513261706
222,711.9201874418059
223,711.8560416560379
224,711.7909948040237
225,711.7250334845882
226,711.6581510214708
227,711.5903483719505
228,711.5216349669392
229,711.4520294615082
230,711.381560371109
231,711.310266569298
232,711.2381976287769
233,711.1654139973108
234,711.0919870086784
235,711.0179987321839
236,710.9435416638873
237,710.8687182631685
238,710.7936403409486
239,710.7184283086218
240,710.6432102987293
241,710.5681211716058
242,710.493301426772
243,710.4188960402023
244,710.3450532459772
245,710.2719232753326
246,710.199657062557
247,710.1284049280288
248,710.0583152530303
249,709.9895331663579
250,709.9221992661313
251,709.8564483995345
252,709.7924085195285
253,709.7301996338306
254,709.6699328593239
255,709.6117095938199
256,709.5556208150714
257,709.5017465131152
258,709.4501552569079
259,709.4009038915267
260,709.3540373593925
261,709.3095886381719
262,709.267578788938
263,709.2280171110468
264,709.1909014046477
265,709.156218345259
266,709.1239439742249
267,709.0940443032548
268,709.0664760228709
269,709.0411872964298
270,709.018118615653
271,708.9972036918724
272,708.9783703597445
273,708.9615414744028
274,708.946635786028
275,708.9335687788621
276,708.9222534683076
277,708.9126011591947
278,708.9045221750625
279,708.8979265684593
280,708.8927248171882
281,708.8888285055198
282,708.8861509857421
283,708.8846080134608
284,708.8841183472623
285,708.8846043000419
286,708.8859922291731
287,708.8882129569024
288,708.891202116933
289,708.8949004243046
290,708.8992538642949
291,708.9042137950732
292,708.9097369592561
293,708.9157854009349
294,708.9223262877471
295,708.9293316425137
296,708.9367779940256
297,708.9446459593863
298,708.9529197711463
299,708.9615867634677
300,708.9706368345259
301,708.9800619073765
302,708.9898554163827
303,709.0000118477617
304,709.0105263592666
305,709.0213944967545
306,709.032612017089
307,709.0441748190603
308,709.0560789765855
309,709.0683208612936
310,709.080897336034
311,709.0938059986438
312,709.1070454567522
313,709.1206156174968
314,709.1345179786208
315,709.1487559096869
316,709.1633349155411
317,709.1782628779738
318,709.1935502724517
319,709.209210352995
320,709.2252592926827
321,709.2417162650848
322,709.2586034555715
323,709.2759459992993
324,709.2937718507667
325,709.3121115942688
326,709.3309982040101
327,709.3504667591928
328,709.3705541165652
329,709.391298542029
330,709.4127393025824
331,709.4349162187063
332,709.4578691753239
333,709.4816375868684
334,709.5062598087633
335,709.5317724854956
336,709.5582098276983
337,709.5856028188787
338,709.6139783646639
339,709.643358410077
340,709.6737590611974
341,709.7051897550149
342,709.7376525221853
343,709.7711413795327
344,709.8056418756903
345,709.841130801094
346,709.8775760671016
347,709.9149367575039
348,709.9531633552966
349,709.992198145319
350,710.0319757885266
351,710.0724240566653
352,710.1134647082176
353,710.155014480648
354,710.1969861728371
355,710.239289793495
356,710.2818337515869
357,710.3245260615547
358,710.3672755323194
359,710.4099929074945
360,710.4525919238292
361,710.4949902537952
362,710.5371102986769
363,710.578879805257
364,710.620232293539
365,710.6611073010296
366,710.701450465158
367,710.7412134748038
368,710.7803539227268
369,710.8188350852175
370,710.8566256485817
371,710.8936993982308
372,710.9300348857106
373,710.9656150892614
374,711.0004270810919
375,711.0344617089635
376,711.0677132939375
377,711.1001793431564
378,711.1318602759823
379,711.1627591614256
380,711.1928814637166
381,711.2222347928565
382,711.250828660542
383,711.2786742485167
384,711.305784201328
385,711.3321724534707
386,711.3578540915561
387,711.3828452398849
388,711.4071629480006
389,711.4308250546981
390,711.4538500052137
391,711.476256606437
392,711.498063718562
393,711.5192898993647
394,711.539953034776
395,711.5600699995474
396,711.5796563893431
397,711.5987263513865
398,711.6172925221831
399,711.6353660663387
400,711.6529568029441
401,711.6700734018048
402,711.6867236276305
403,711.7029146079516
404,711.7186531032487
405,711.7339457644085
406,711.7487993682928
407,711.7632210237484
408,711.7772183384468
409,711.7907995341208
410,711.8039734963626
411,711.8167497466038
412,711.8291383291333
413,711.841149615134
414,711.8527940366067
415,711.8640817715423
416,711.8750224052584
417,711.8856245929093
418,711.8958957473035
419,711.9058417739673
420,711.9154668695163
421,711.9247733897737
422,711.9337617841513
423,711.9424305864202
424,711.950776450592
425,711.9587942239378
426,711.9664770559206
427,711.9738165495899
428,711.9808029674592
429,711.9874255039036
430,711.9936726294598
431,711.9995325014713
432,712.0049934251964
433,712.0100443432204
434,712.0146753283933
435,712.0188780546191
436,712.0226462203659
437,712.02597590219
438,712.0288658189673
439,712.0313174905903
440,712.0333352778102
441,712.0349262938934
442,712.036100184393
443,712.0368687779113
444,712.0372456166284
445,712.0372453800599
446,712.0368832203178
447,712.0361740332822
448,712.0351316963012
449,712.0337683071178
450,712.0320934597779
451,712.0301135916567
452,712.0278314315656
453,712.025245572213
454,712.0223501827196
455,712.0191348711547
456,712.0155847037482
457,712.0116803836382
458,712.0073985850033
459,712.0027124291381
460,711.9975920803023
461,711.992005432569
462,711.9859188547666
463,711.9792979599861
464,711.9721083704939
465,711.9643164574743
466,711.9558900436915
467,711.9467990615948
468,711.9370161592458
469,711.9265172453129
470,711.9152819657603
471,711.9032941087797
472,711.890541938159
473,711.8770184562268
474,711.8627215961128
475,711.8476543415559
476,711.8318247722855
477,711.8152460342347
478,711.7979362368372
479,711.7799182842795
480,711.7612196520998
481,711.741872123094
482,711.7219114964748
483,711.7013772812528
484,711.680312378899
485,711.6587627537833
486,711.6367770868128
487,711.6144064109109
488,711.5917037349191
489,711.56872366999
490,711.5455220754171
491,711.5221557394088
492,711.4986821072677
493,711.4751590658905
494,711.4516447887154
495,711.4281976387551
496,711.4048761202998
497,711.3817388639188
498,711.3588446253881
499,711.3362522772283
500,711.3140207718884
501,711.2922090581143
502,711.270875935714
503,711.2500798380978
504,711.2298785368296
505,711.21032876839
506,711.1914857903524
507,711.1734028808271
508,711.1561307988542
509,711.1397172238147
510,711.124206191656
511,711.1096375475852
512,711.0960464385491
513,711.0834628718516
514,711.0719113668866
515,711.0614107256212
516,711.051973945749
517,711.0436082983447
518,711.0363155873067
519,711.0300925988781
520,711.0249317359023
521,711.0208218162045
522,711.017749002576
523,711.0156978255884
524,711.0146522578102
525,711.0145967965352
526,711.0155175127086
527,711.0174030290615
528,711.0202454011312
529,711.0240408876369
530,711.0287906068359
531,711.0345010802804
532,711.0411846654476
533,711.0488598765396
534,711.0575515906066
535,711.0672911347887
536,711.0781162493166
537,711.0900709184112
538,711.103205056068
539,711.117574027681
540,711.1332379867731
541,711.1502610125755
542,711.1687100462422
543,711.1886536343859
544,711.2101604952237
545,711.233297927492
546,711.2581300890577
547,711.2847161821213
548,711.3131085935527
549,711.3433510474663
550,711.3754768273831
551,711.4095071168693
552,711.445449496246
553,711.4832966253858
554,711.523025140689
555,711.5645947956134
556,711.6079478746731
557,711.6530089064462
558,711.6996846894125
559,711.7478646276608
560,711.7974213581847
561,711.8482116437498
562,711.900077506541
563,711.952847583874
564,712.0063386919521
565,712.0603575832931
566,712.1147028783402
567,712.1691671446729
568,712.2235390912094
569,712.277605841617
570,712.3311552505608
571,712.3839782271617
572,712.4358710315049
573,712.4866375123288
574,712.5360912568157
575,712.584057625162
576,712.6303756412814
577,712.674899706983
578,712.7175011044695
579,712.7580692551529
580,712.7965127115111
581,712.8327598701364
582,712.8667594062995
583,712.8984804424996
584,712.9279124733239
585,712.9550650729183
586,712.979967408362
587,713.0026675752375
588,713.0232317646512
589,713.0417432655853
590,713.0583013027829
591,713.0730197081244
592,713.0860254218925
593,713.0974568185152
594,713.1074618504405
595,713.1161960070903
596,713.1238200957935
597,713.1304978669067
598,713.1363935219504
599,713.1416691574552
600,713.1464822050306
601,713.1509829280558
602,713.155312029271
603,713.1595984168464
604,713.1639571728427
605,713.1684877659854
606,713.1732725476176
607,713.1783755644916
608,713.183841714108
609,713.1896962578654
610,713.1959446967836
611,713.2025730063865
612,713.2095482212022
613,713.2168193537208
614,713.2243186271762
615,713.2319629964429
616,713.2396559257901
617,713.2472893849431
618,713.2547460172634
619,713.2619014298411
620,713.2686265564137
621,713.2747900472802
622,713.2802606428842
623,713.2849094902242
624,713.2886123647963
625,713.2912517638422
626,713.2927188382778
627,713.292915133081
628,713.2917541115654
629,713.2891624466371
630,713.2850810682827
631,713.279465959365
632,713.2722886926141
633,713.2635367030979
634,713.2532132945457
635,713.2413373862674
636,713.227943020125
637,713.2130786604455
638,713.1968063271888
639,713.1792005997193
640,713.1603475178651
641,713.1403433965726
642,713.1192935664751
643,713.0973110547694
644,713.0745152247604
645,713.0510303959093
646,713.0269844691388
647,713.0025075837635
648,712.9777308317035
649,712.95278505318
650,712.9277997381414
651,712.9029020575177
652,712.8782160433657
653,712.8538619257424
654,712.8299556215584
655,712.8066083623168
656,712.7839264438707
657,712.7620110784987
658,712.740958326017
659,712.7208590775796
660,712.7017990637368
661,712.6838588563539
662,712.667113833247
663,712.651634077152
664,712.6374841865581
665,712.624722982399
666,712.6134031003005
667,712.6035704640132
668,712.5952636442784
669,712.5885131195764
670,712.583340466847
671,712.5797575154149
672,712.5777654956257
673,712.5773542097442
674,712.5785012495479
675,712.5811712828772
676,712.5853154300964
677,712.5908707506168
678,712.5977598581995
679,712.6058906810919
680,712.6151563800553
681,712.6254354356712
682,712.6365919165864
683,712.6484759411212
684,712.6609243434866
685,712.6737615519261
686,712.6868006814799
687,712.699844841604
688,712.712688658202
689,712.7251200063934
690,712.736921940531
691,712.747874793531
692,712.7577584059162
693,712.7663544416421
694,712.7734487507213
695,712.7788337416815
696,712.7823107271265
697,712.7836922053859
698,712.7828040427376
699,712.7794875231455
700,712.7736012349059
701,712.7650227671538
702,712.7536501941265
703,712.7394033290487
704,712.7222247307092
705,712.7020804456752
706,712.6789604704438
707,712.652878921815
708,712.6238739096493
709,712.5920071131557
710,712.557363070387
711,712.5200482015423
712,712.4801895985468
713,712.437933621864
714,712.3934443474477
715,712.3469019038499
716,712.2985007352717
717,712.2484478217955
718,712.1969608822358
719,712.1442665773521
720,712.0905987219053
721,712.0361965050536
722,711.9813027128813
723,711.9261619455499
724,711.8710188228342
725,711.8161161744773
726,711.7616932174814
727,711.7079837314333
728,711.6552142509106
729,711.6036022962529
730,711.5533546610003
731,711.5046657700726
732,711.4577161197625
733,711.4126708093322
734,711.3696781746864
735,711.3288685364533
736,711.2903530757638
737,711.2542228505281
738,711.2205479653028
739,711.1893769108315
740,711.1607360936125
741,711.1346295782971
742,711.1110390652102
743,711.0899241230381
744,711.071222693617
745,711.0548518815928
746,711.0407090357148
747,711.0286731192392
748,711.0186063539868
749,711.0103561091785
750,711.0037569969187
751,710.9986331328932
752,710.9948005215145
753,710.9920695262642
754,710.9902473867909
755,710.9891407454419
756,710.9885581486858
757,710.9883124919453
758,710.9882233763905
759,710.9881193422524
760,710.9878399383207
761,710.987237585419
762,710.9861791940938
763,710.9845475032394
764,710.9822421171597
765,710.9791802325145
766,710.9752970592211
767,710.9705459461879
768,710.9648982243549
769,710.9583427809771
770,710.9508853844326
771,710.9425477873638
772,710.9333666435032
773,710.9233922764005
774,710.9126873360567
775,710.9013253743667
776,710.889389364527
777,710.876970184339
778,710.8641650785697
779,710.8510761106728
780,710.8378086098767
781,710.8244696181845
782,710.8111663444073
783,710.7980046371381
784,710.7850874927535
785,710.7725136168278
786,710.7603760571636
787,710.7487609230603
788,710.7377461997175
789,710.7274006628911
790,710.7177828998086
791,710.7089404468837
792,710.700909061241
793,710.6937121503296
794,710.6873603894563
795,710.6818515580218
796,710.6771706208353
797,710.6732900716445
798,710.670170542259
799,710.6677616637633
800,710.6660031498959
801,710.664826060938
802,710.6641542008894
803,710.6639055997063
804,710.663994034331
805,710.6643305480053
806,710.6648249372304
807,710.6653871855766
808,710.6659288270098
809,710.6663642176738
810,710.6666116912779
811,710.6665945765624
812,710.6662420650096
813,710.6654899272587
814,710.6642810845111
815,710.6625660471235
816,710.6603032368532
817,710.6574592110188
818,710.6540088060785
819,710.6499352154725
820,710.6452300128786
821,710.6398931286199
822,710.6339327848893
823,710.627365393951
824,710.6202154211128
825,710.612515211678
826,710.6043047800849
827,710.5956315599535
828,710.5865501137617
829,710.577121799672
830,710.5674143922479
831,710.5575016548556
832,710.5474628639024
833,710.5373822870067
834,710.5273486166865
835,710.5174543572573
836,710.507795157524
837,710.4984690798536
838,710.4895757997026
839,710.4812157368632
840,710.4734891271902
841,710.4664950496502
842,710.4603304281263
843,710.4550890299914
844,710.4508604833995
845,710.4477293332028
846,710.4457741523117
847,710.445066721001
848,710.4456712810202
849,710.4476438657791
850,710.4510317044972
851,710.4558726986642
852,710.4621949733561
853,710.4700165113102
854,710.4793448807849
855,710.490177067601
856,710.5024994185776
857,710.516287700235
858,710.5315072744379
859,710.5481133904874
860,710.5660515896889
861,710.5852582145372
862,710.6056610113953
863,710.6271798113672
864,710.6497272681124
865,710.6732096265661
866,710.6975274963584
867,710.7225766083181
868,710.7482485398875
869,710.7744314042359
870,710.8010105080049
871,710.8278689932334
872,710.854888487448
873,710.8819497882158
874,710.9089336029809
875,710.9357213552535
876,710.96219606006
877,710.9882432662818
878,711.0137520571116
879,711.0386160902654
880,711.062734650407
881,711.0860136813743
882,711.1083667651525
883,711.1297160172505
884,711.1499928747156
885,711.1691387630289
886,711.1871056388675
887,711.2038564139251
888,711.2193652686032
889,711.2336178639205
890,711.2466114581791
891,711.258354933869
892,711.2688687398075
893,711.2781847527987
894,711.2863460620617
895,711.2934066784155
896,711.2994311688254
897,711.3044942157994
898,711.3086800999339
899,711.3120821018601
900,711.3148018180163
901,711.3169483860061
902,711.3186376201422
903,711.3199910623815
904,711.3211349552936
905,711.3221991435023
906,711.3233159116243
907,711.3246187703239
908,711.326241203966
909,711.3283153906794
910,711.3309709009023
911,711.334333378729
912,711.3385232132897
913,711.3436542117844
914,711.3498322886267
915,711.3571541876687
916,711.3657062602417
917,711.375563331605
