frame_number,force
0,710.795288001494
1,710.7714604059158
2,710.7478012048113
3,710.7244773471681
4,710.7016528869484
5,710.6794875315754
6,710.6581352004915
7,710.6377426164678
8,710.6184479605373
9,710.600379624923
10,710.5836550966287
11,710.5683799984452
12,710.5546473062439
13,710.5425367537641
14,710.5321144284993
15,710.5234325539301
16,710.5165294462071
17,710.5114296301442
18,710.508144098768
19,710.5066706987121
20,710.5069946191028
21,710.5090889568239
22,710.5129153295773
23,710.5184245109923
24,710.52555706764
25,710.5342439842201
26,710.5444072697215
27,710.5559605434211
28,710.5688096038984
29,710.5828529865206
30,710.5979825168629
31,710.6140838706781
32,710.6310371536887
33,710.6487175136438
34,710.6669957924385
35,710.6857392211718
36,710.7048121593846
37,710.724076881236
38,710.7433944129315
39,710.7626254245843
40,710.7816311756271
41,710.8002745074625
42,710.8184208723161
43,710.8359393848048
44,710.8527038826425
45,710.8685939838946
46,710.8834961290997
47,710.8973045968523
48,710.9099224806343
49,710.921262612601
50,710.9312484165113
51,710.9398146672896
52,710.9469081311597
53,710.9524880615104
54,710.9565265330446
55,710.959008608659
56,710.9599323472562
57,710.9593086732258
58,710.9571611359278
59,710.9535255880627
60,710.9484498074959
61,710.9419930818568
62,710.9342257697659
63,710.9252288448077
64,710.9150934187362
65,710.9039202328576
66,710.8918191042974
67,710.8789083166187
68,710.8653139499324
69,710.8511691522453
70,710.8366133595291
71,710.821791475775
72,710.8068530260501
73,710.7919512953586
74,710.7772424634876
75,710.7628847412064
76,710.7490375080885
77,710.7358604497341
78,710.7235126940575
79,710.7121519519569
80,710.7019336747446
81,710.6930102464829
82,710.6855302311651
83,710.6796376905398
84,710.675471579242
85,710.6731652135014
86,710.6728458008677
87,710.6746340113978
88,710.678643566191
89,710.6849808190365
90,710.6937443119026
91,710.705024292867
92,710.7189021930091
93,710.7354500656079
94,710.754729996891
95,710.776793501978
96,710.8016809211805
97,710.8294208304062
98,710.8600294765935
99,710.8935102460989
100,710.9298531717495
101,710.9690344840449
102,711.0110162133825
103,711.0557458516187
104,711.1031560835784
105,711.1531646052655
106,711.205674055529
107,711.2605720966278
108,711.317731679661
109,711.377011520477
110,711.4382567947437
111,711.5013000450832
112,711.5659622826875
113,711.632054259965
114,711.6993778892662
115,711.7677277872923
116,711.836892934662
117,711.906658449848
118,711.9768074801665
119,712.0471232073282
120,712.117390953098
121,712.187400355503
122,712.2569475712672
123,712.3258374484542
124,712.3938856064156
125,712.4609203591159
126,712.5267844229218
127,712.591336359397
128,712.6544517147842
129,712.7160238295793
130,712.7759643042966
131,712.8342031199951
132,712.890688422554
133,712.9453859885007
134,712.9982783986927
135,713.0493639540607
136,713.0986553744771
137,713.1461783277256
138,713.1919698386661
139,713.2360766248642
140,713.2785533923677
141,713.3194611088743
142,713.3588652598597
143,713.3968340908677
144,713.4334368441083
145,713.4687420052952
146,713.502815583968
147,713.53571945667
148,713.5675098085301
149,713.598235714083
150,713.6279378982738
151,713.6566477118242
152,713.6843863455217
153,713.7111642993283
154,713.7369811135458
155,713.7618253585975
156,713.7856748683794
157,713.8084971919976
158,713.8302502310167
159,713.8508830248588
160,713.8703366479707
161,713.8885451898786
162,713.9054368001588
163,713.9209347892139
164,713.9349587797719
165,713.9474259050651
166,713.9582520503845
167,713.9673531347241
168,713.974646427027
169,713.9800518877174
170,713.983493522055
171,713.984900727042
172,713.984209606924
173,713.9813642237846
174,713.9763177413768
175,713.9690334151301
176,713.9594853823332
177,713.9476592164771
178,713.9335522277847
179,713.9171735110737
180,713.8985437546352
181,713.8776948296174
182,713.8546691836221
183,713.8295190668647
184,713.8023056218021
185,713.773097865683
186,713.7419715911947
187,713.7090082066854
188,713.6742935374073
189,713.6379166122032
190,713.5999684617192
191,713.5605409514635
192,713.5197256671
193,713.477612863641
194,713.4342904869192
195,713.3898432749097
196,713.3443519471829
197,713.2978924922897
198,713.2505355637429
199,713.2023459929014
200,713.1533824205208
201,713.1036970403094
202,713.0533354408308
203,713.0023365284136
204,712.9507325145713
205,712.8985489572445
206,712.8458048535631
207,712.7925127877522
208,712.7386791380475
209,712.6843043426985
210,712.6293832213522
211,712.5739053463942
212,712.5178554595311
213,712.4612139325875
214,712.4039572776109
215,712.3460587166869
216,712.2874888230592
217,712.2282162416457
218,712.1682084903753
219,712.107432836477
220,712.0458572365324
221,711.9834513260693
222,711.920187441708
223,711.8560416559404
224,711.7909948039239
225,711.7250334844834
226,711.6581510213593
227,711.5903483718312
228,711.5216349668112
229,711.4520294613716
230,711.3815603709643
231,711.310266569146
232,711.2381976286182
233,711.1654139971457
234,711.0919870085073
235,711.0179987320075
236,710.9435416637068
237,710.8687182629847
238,710.7936403407617
239,710.7184283084315
240,710.6432102985347
241,710.5681211714053
242,710.493301426564
243,710.4188960399856
244,710.3450532457509
245,710.271923275096
246,710.199657062309
247,710.1284049277681
248,710.0583152527552
249,709.9895331660663
250,709.922199265821
251,709.8564483992029
252,709.792408519173
253,709.7301996334487
254,709.6699328589128
255,709.6117095933764
256,709.5556208145922
257,709.5017465125973
258,709.4501552563488
259,709.400903890925
260,709.3540373587475
261,709.3095886374842
262,709.2675787882083
263,709.2280171102765
264,709.1909014038382
265,709.156218344412
266,709.1239439733421
267,709.0940443023387
268,709.0664760219238
269,709.0411872954543
270,709.0181186146519
271,708.9972036908495
272,708.9783703587038
273,708.9615414733488
274,708.9466357849652
275,708.9335687777957
276,708.9222534672435
277,708.9126011581392
278,708.9045221740226
279,708.8979265674423
280,708.8927248162014
281,708.8888285045705
282,708.8861509848372
283,708.8846080126062
284,708.8841183464633
285,708.8846042993032
286,708.8859922284984
287,708.8882129562945
288,708.8912021163937
289,708.8949004238352
290,708.8992538638958
291,708.9042137947444
292,708.9097369589969
293,708.9157854007443
294,708.9223262876234
295,708.9293316424541
296,708.9367779940269
297,708.9446459594448
298,708.9529197712579
299,708.9615867636282
300,708.9706368347307
301,708.9800619076203
302,708.98985541666
303,709.0000118480667
304,709.0105263595938
305,709.0213944970982
306,709.0326120174434
307,709.0441748194198
308,709.0560789769444
309,709.068320861646
310,709.0808973363742
311,709.0938059989659
312,709.1070454570504
313,709.1206156177656
314,709.1345179788543
315,709.1487559098791
316,709.1633349156864
317,709.178262878067
318,709.1935502724887
319,709.2092103529726
320,709.2252592925996
321,709.2417162649414
322,709.258603455369
323,709.2759459990398
324,709.2937718504525
325,709.3121115939026
326,709.3309982035952
327,709.3504667587329
328,709.3705541160643
329,709.3912985414916
330,709.4127393020129
331,709.4349162181097
332,709.4578691747058
333,709.4816375862347
334,709.5062598081196
335,709.5317724848471
336,709.5582098270495
337,709.5856028182332
338,709.6139783640247
339,709.6433584094465
340,709.6737590605777
341,709.7051897544076
342,709.7376525215913
343,709.7711413789524
344,709.8056418751238
345,709.8411308005408
346,709.877576066561
347,709.9149367569753
348,709.9531633547791
349,709.9921981448122
350,710.0319757880304
351,710.072424056181
352,710.1134647077469
353,710.1550144801928
354,710.1969861723996
355,710.2392897930773
356,710.2818337511911
357,710.3245260611832
358,710.3672755319745
359,710.4099929071789
360,710.4525919235455
361,710.4949902535461
362,710.537110298465
363,710.5788798050844
364,710.6202322934074
365,710.6611073009402
366,710.7014504651116
367,710.7412134748002
368,710.7803539227654
369,710.818835085297
370,710.8566256487003
371,710.8936993983855
372,710.9300348858977
373,710.9656150894771
374,711.0004270813321
375,711.0344617092244
376,711.0677132942155
377,711.1001793434482
378,711.1318602762846
379,711.1627591617353
380,711.19288146403
381,711.2222347931696
382,711.2508286608507
383,711.2786742488171
384,711.3057842016157
385,711.332172453741
386,711.3578540918044
387,711.3828452401061
388,711.4071629481901
389,711.4308250548519
390,711.4538500053285
391,711.4762566065103
392,711.4980637185918
393,711.5192898993495
394,711.5399530347142
395,711.5600699994378
396,711.5796563891842
397,711.5987263511771
398,711.6172925219224
399,711.6353660660262
400,711.6529568025798
401,711.6700734013898
402,711.6867236271675
403,711.7029146074436
404,711.7186531026991
405,711.7339457638205
406,711.74879936767
407,711.7632210230943
408,711.7772183377643
409,711.7907995334127
410,711.8039734956315
411,711.8167497458523
412,711.8291383283644
413,711.8411496143505
414,711.8527940358116
415,711.864081770738
416,711.8750224044467
417,711.8856245920911
418,711.8958957464796
419,711.9058417731385
420,711.9154668686836
421,711.9247733889378
422,711.9337617833129
423,711.9424305855796
424,711.9507764497492
425,711.9587942230932
426,711.9664770550746
427,711.9738165487438
428,711.9808029666149
429,711.9874255030633
430,711.9936726286259
431,711.9995325006461
432,712.0049934243817
433,712.0100443424183
434,712.0146753276056
435,712.0188780538475
436,712.0226462196122
437,712.0259759014559
438,712.0288658182549
439,712.0313174899011
440,712.0333352771455
441,712.0349262932538
442,712.0361001837787
443,712.0368687773214
444,712.0372456160615
445,712.0372453795136
446,712.0368832197895
447,712.0361740327683
448,712.0351316957968
449,712.0337683066177
450,712.0320934592758
451,712.0301135911461
452,712.0278314310402
453,712.0252455716665
454,712.0223501821458
455,712.0191348705475
456,712.0155847031017
457,712.0116803829471
458,712.0073985842632
459,712.0027124283457
460,711.9975920794557
461,711.9920054316674
462,711.9859188538101
463,711.9792979589757
464,711.9721083694319
465,711.9643164563643
466,711.9558900425379
467,711.9467990604036
468,711.937016158024
469,711.9265172440686
470,711.9152819645019
471,711.9032941075159
472,711.8905419368981
473,711.8770184549771
474,711.8627215948825
475,711.847654340353
476,711.8318247711181
477,711.815246033111
478,711.7979362357644
479,711.7799182832644
480,711.7612196511484
481,711.741872122211
482,711.7219114956639
483,711.7013772805166
484,711.680312378239
485,711.6587627532
486,711.6367770863054
487,711.6144064104776
488,711.5917037345569
489,711.5687236696954
490,711.5455220751862
491,711.5221557392377
492,711.4986821071517
493,711.4751590658244
494,711.4516447886938
495,711.4281976387723
496,711.40487612035
497,711.3817388639957
498,711.3588446254852
499,711.3362522773393
500,711.3140207720073
501,711.2922090582347
502,711.2708759358296
503,711.2500798382029
504,711.2298785369187
505,711.2103287684581
506,711.1914857903945
507,711.1734028808385
508,711.1561307988306
509,711.1397172237522
510,711.1242061915508
511,711.1096375474347
512,711.096046438351
513,711.0834628716044
514,711.0719113665906
515,711.0614107252776
516,711.05197394536
517,711.0436082979135
518,711.0363155868368
519,711.0300925983739
520,711.0249317353686
521,711.0208218156462
522,711.0177490019983
523,711.0156978249962
524,711.0146522572089
525,711.0145967959304
526,711.015517512106
527,711.0174030284669
528,711.0202454005502
529,711.0240408870753
530,711.0287906062999
531,711.0345010797768
532,711.0411846649829
533,711.04885987612
534,711.057551590238
535,711.0672911344759
536,711.0781162490638
537,711.0900709182217
538,711.1032050559443
539,711.117574027625
540,711.1332379867864
541,711.1502610126597
542,711.1687100463985
543,711.1886536346149
544,711.2101604955252
545,711.2332979278652
546,711.2581300895008
547,711.2847161826323
548,711.3131085941295
549,711.3433510481068
550,711.3754768280846
551,711.409507117629
552,711.4454494970608
553,711.4832966262528
554,711.5230251416053
555,711.5645947965761
556,711.6079478756786
557,711.6530089074903
558,711.6996846904897
559,711.7478646287644
560,711.7974213593076
561,711.8482116448843
562,711.9000775076797
563,711.9528475850095
564,712.0063386930775
565,712.0603575844016
566,712.114702879425
567,712.1691671457277
568,712.2235390922281
569,712.2776058425934
570,712.3311552514892
571,712.3839782280362
572,712.4358710323191
573,712.4866375130761
574,712.536091257489
575,712.5840576257547
576,712.6303756417869
577,712.6748997073956
578,712.7175011047846
579,712.7580692553664
580,712.7965127116199
581,712.832759870138
582,712.8667594061923
583,712.898480442283
584,712.9279124729983
585,712.9550650724851
586,712.9799674078237
587,713.0026675745972
588,713.0232317639126
589,713.0417432647527
590,713.0583013018609
591,713.073019707118
592,713.0860254208069
593,713.0974568173557
594,713.1074618492127
595,713.1161960057997
596,713.1238200944457
597,713.1304978655074
598,713.1363935205056
599,713.1416691559712
600,713.146482203513
601,713.1509829265096
602,713.1553120277008
603,713.159598415256
604,713.1639571712359
605,713.1684877643653
606,713.1732725459874
607,713.1783755628552
608,713.1838417124698
609,713.1896962562305
610,713.1959446951573
611,713.2025730047739
612,713.2095482196075
613,713.2168193521479
614,713.2243186256283
615,713.2319629949224
616,713.2396559242986
617,713.2472893834813
618,713.2547460158313
619,713.2619014284383
620,713.2686265550395
621,713.2747900459347
622,713.2802606415669
623,713.2849094889345
624,713.2886123635332
625,713.2912517626046
626,713.2927188370651
627,713.2929151318929
628,713.291754110402
629,713.2891624454992
630,713.2850810671717
631,713.2794659582833
632,713.2722886915643
633,713.2635367020824
634,713.2532132935672
635,713.2413373853287
636,713.227943019229
637,713.2130786595943
638,713.196806326384
639,713.1792005989618
640,713.1603475171554
641,713.1403433959106
642,713.1192935658604
643,713.0973110542011
644,713.0745152242379
645,713.0510303954326
646,713.0269844687085
647,713.0025075833809
648,712.9777308313703
649,712.9527850528981
650,712.9277997379123
651,712.9029020573425
652,712.8782160432447
653,712.8538619256761
654,712.8299556215472
655,712.806608362361
656,712.7839264439704
657,712.7620110786537
658,712.7409583262265
659,712.7208590778425
660,712.7017990640511
661,712.6838588567169
662,712.6671138336552
663,712.6516340776014
664,712.637484187044
665,712.6247229829164
666,712.6134031008442
667,712.6035704645773
668,712.5952636448566
669,712.5885131201617
670,712.5833404674321
671,712.5797575159926
672,712.5777654961885
673,712.577354210285
674,712.5785012500603
675,712.5811712833556
676,712.5853154305356
677,712.5908707510117
678,712.5977598585453
679,712.6058906813832
680,712.6151563802869
681,712.6254354358379
682,712.6365919166839
683,712.648475941146
684,712.6609243434362
685,712.6737615517989
686,712.6868006812748
687,712.6998448413206
688,712.7126886578405
689,712.725120005955
690,712.736921940017
691,712.7478747929437
692,712.7577584052582
693,712.7663544409162
694,712.7734487499305
695,712.7788337408293
696,712.7823107262171
697,712.7836922044244
698,712.7828040417295
699,712.7794875220967
700,712.773601233822
701,712.7650227660396
702,712.7536501929862
703,712.7394033278865
704,712.722224729529
705,712.7020804444812
706,712.6789604692411
707,712.652878920609
708,712.623873908446
709,712.5920071119607
710,712.5573630692062
711,712.5200482003812
712,712.4801895974111
713,712.4379336207596
714,712.3934443463805
715,712.3469019028256
716,712.2985007342952
717,712.2484478208714
718,712.1969608813682
719,712.1442665765445
720,712.0905987211605
721,712.0361965043743
722,711.9813027122697
723,711.9261619450076
724,711.8710188223622
725,711.8161161740755
726,711.7616932171491
727,711.707983731169
728,711.6552142507122
729,711.6036022961184
730,711.553354660928
731,711.5046657700606
732,711.4577161198081
733,711.4126708094319
734,711.3696781748357
735,711.3288685366468
736,711.2903530759959
737,711.2542228507929
738,711.2205479655945
739,711.1893769111443
740,711.1607360939412
741,711.1346295786365
742,711.1110390655555
743,711.0899241233843
744,711.0712226939592
745,711.0548518819263
746,711.0407090360353
747,711.0286731195429
748,711.0186063542707
749,711.0103561094398
750,711.0037569971553
751,710.9986331331037
752,710.9948005216984
753,710.9920695264216
754,710.9902473869223
755,710.9891407455484
756,710.9885581487689
757,710.9883124920069
758,710.9882233764332
759,710.9881193422797
760,710.9878399383365
761,710.9872375854275
762,710.9861791940987
763,710.9845475032445
764,710.9822421171687
765,710.9791802325307
766,710.9752970592472
767,710.9705459462259
768,710.9648982244063
769,710.9583427810426
770,710.9508853845119
771,710.9425477874557
772,710.9333666436057
773,710.9233922765111
774,710.912687336173
775,710.9013253744866
776,710.8893893646491
777,710.876970184462
778,710.8641650786928
779,710.8510761107956
780,710.8378086099988
781,710.8244696183054
782,710.8111663445264
783,710.7980046372548
784,710.7850874928673
785,710.7725136169383
786,710.7603760572704
787,710.7487609231632
788,710.7377461998165
789,710.7274006629862
790,710.7177828999
791,710.7089404469716
792,710.7009090613252
793,710.6937121504106
794,710.6873603895353
795,710.6818515581001
796,710.6771706209147
797,710.673290071726
798,710.6701705423428
799,710.6677616638481
800,710.6660031499796
801,710.6648260610175
802,710.6641542009614
803,710.6639055997674
804,710.6639940343777
805,710.664330548034
806,710.6648249372382
807,710.6653871855617
808,710.6659288269706
809,710.6663642176087
810,710.6666116911854
811,710.6665945764413
812,710.6662420648593
813,710.6654899270789
814,710.6642810843022
815,710.6625660468868
816,710.6603032365907
817,710.6574592107332
818,710.6540088057732
819,710.6499352151515
820,710.6452300125467
821,710.6398931282821
822,710.633932784551
823,710.6273653936169
824,710.6202154207871
825,710.6125152113644
826,710.6043047797867
827,710.5956315596733
828,710.5865501135011
829,710.5771217994313
830,710.5674143920271
831,710.5575016546543
832,710.5474628637197
833,710.5373822868418
834,710.5273486165385
835,710.5174543571256
836,710.5077951574078
837,710.4984690797518
838,710.4895757996136
839,710.4812157367855
840,710.4734891271225
841,710.4664950495917
842,710.4603304280764
843,710.4550890299499
844,710.4508604833667
845,710.4477293331789
846,710.4457741522972
847,710.4450667209953
848,710.4456712810222
849,710.4476438657877
850,710.4510317045103
851,710.4558726986795
852,710.4621949733709
853,710.4700165113214
854,710.4793448807898
855,710.4901770675968
856,710.5024994185617
857,710.5162877002051
858,710.5315072743919
859,710.5481133904229
860,710.5660515896044
861,710.5852582144319
862,710.6056610112687
863,710.6271798112192
864,710.6497272679428
865,710.6732096263747
866,710.6975274961454
867,710.7225766080841
868,710.7482485396332
869,710.7744314039627
870,710.8010105077143
871,710.8278689929269
872,710.8548884871268
873,710.8819497878811
874,710.9089336026335
875,710.9357213548943
876,710.9621960596904
877,710.988243265903
878,711.0137520567246
879,711.0386160898705
880,711.0627346500039
881,711.0860136809617
882,711.1083667647289
883,711.1297160168136
884,711.1499928742621
885,711.169138762555
886,711.1871056383693
887,711.2038564133987
888,711.2193652680451
889,711.2336178633274
890,711.2466114575483
891,711.2583549331985
892,711.268868739096
893,711.278184752045
894,711.2863460612654
895,711.293406677576
896,711.2994311679428
897,711.3044942148745
898,711.3086800989682
899,711.3120821008563
900,711.3148018169775
901,711.3169483849362
902,711.3186376190457
903,711.3199910612639
904,711.321134954161
905,711.3221991423619
906,711.3233159104834
907,711.3246187691906
908,711.3262412028491
909,711.328315389589
910,711.3309708998481
911,711.3343333777207
912,711.3385232123366
913,711.3436542108951
914,711.3498322878092
915,711.3571541869301
916,711.3657062595876
917,711.37556333104
