acceleration,velocity,displacement
0.0001817596234017638,0.0,0.0
-0.0003787242474531298,-4.92411560128415e-08,-1.2310289003210375e-11
-0.0009370139902991276,-3.7817571545090585e-07,-1.1916450686914722e-10
-0.0014909344271410952,-9.851628198109616e-07,-4.5999914068461413e-10
-0.0020383478580106025,-1.8674833910988861e-06,-1.173160693412076e-09
-0.0025771717793171374,-3.021363300430821e-06,-2.3953723662945028e-09
-0.0031053954642217014,-4.442005111315531e-06,-4.261214469231091e-09
-0.003621095144097348,-6.1236277633952935e-06,-6.902622687908798e-09
-0.004122447590446728,-8.059513447031313e-06,-1.0448407990515449e-08
-0.004607741946914281,-1.0242060831371566e-05,-1.502380156011617e-08
-0.005075389711510327,-1.2662843745977718e-05,-2.075002770445349e-08
-0.005523932829315768,-1.5312674381184242e-05,-2.7743907236243978e-08
-0.005952049920924423,-1.818167006874429e-05,-3.611749334872611e-08
-0.006358560724633973,-2.1259322730133888e-05,-4.597774154844566e-08
-0.0067424288580474525,-2.4534570125804246e-05,-5.7426214762430194e-08
-0.0071027630105499956,-2.7995868092953606e-05,-7.055882431711966e-08
-0.007438816675528609,-3.1631263014473254e-05,-8.546560709397638e-08
-0.007749986531240807,-3.542846381616561e-05,-1.022305388016361e-07
-0.008035809586445175,-3.9374912845587104e-05,-1.209313829670743e-07
-0.008295959221895854,-4.345785504767236e-05,-1.4163957494038917e-07
-0.008530240276151423,-4.7664404922184185e-05,-1.644201399328533e-07
-0.008738583331471811,-5.1981610824089994e-05,-1.8933164386942185e-07
-0.0089210383413238,-5.6396516242288894e-05,-2.1642617563601656e-07
-0.009077767708788695,-6.089621775481702e-05,-2.45749359135293e-07
-0.009209038894560977,-6.546791940565444e-05,-2.773403934254109e-07
-0.00931521662404951,-7.009898328530705e-05,-3.1123211909815124e-07
-0.009396754777621582,-7.477697613572483e-05,-3.474511089534092e-07
-0.009454188071505647,-7.948971184800663e-05,-3.860177809493421e-07
-0.009488123651636437,-8.422528977879215e-05,-4.269465313560418e-07
-0.00949923271955113,-8.897212887158905e-05,-4.702458860186371e-07
-0.009488242291417238,-9.371899762433114e-05,-5.159186676426172e-07
-0.009455927170491988,-9.845503998980845e-05,-5.639621770461521e-07
-0.009403102201720213,-0.0001031697973328615,-6.143683863768196e-07
-0.009330614874542778,-0.00010785322660192726,-6.671241423605169e-07
-0.009239338336513487,-0.00011249571490469133,-7.222113777371715e-07
-0.009130164870906152,-0.00011708809070654624,-7.796073291399809e-07
-0.009003999878407313,-0.00012162163189387461,-8.392847597900861e-07
-0.0088617563843315,-0.0001260880709595593,-9.012121855034446e-07
-0.008704350064280462,-0.0001304795975717123,-9.653541026362626e-07
-0.008532694746836917,-0.00013478885877449165,-1.0316712167228136e-06
-0.00834769832443549,-0.00013900895704230975,-1.100120670677014e-06
-0.008150258991420477,-0.00014313344637127375,-1.1706562715304099e-06
-0.007941261730831926,-0.00014715632655183685,-1.2432287147611874e-06
-0.007721574987639111,-0.0001510720357314546,-1.3177858053320102e-06
-0.007492047496693008,-0.00015487544135253764,-1.3942726746030084e-06
-0.007253505272938366,-0.0001585618295449455,-1.4726319923273792e-06
-0.007006748807313666,-0.0001621268930650085,-1.5528041729798677e-06
-0.006752550536018392,-0.00016556671790084152,-1.6347275757213303e-06
-0.006491652662671821,-0.00016887776870051408,-1.7183386973716692e-06
-0.006224765412282203,-0.0001720568732192526,-1.803572357851611e-06
-0.0059525657800012935,-0.00017510120601732347,-1.890361877660755e-06
-0.005675696809087451,-0.00017800827166459567,-1.978639247081235e-06
-0.005394767402955868,-0.0001807758877176065,-2.0683352869267854e-06
-0.00511035265525413,-0.000183402167732159,-2.1593798007892268e-06
-0.004822994667238596,-0.00018588550456278218,-2.251701718862962e-06
-0.004533203803037596,-0.00018822455418035123,-2.3452292335487453e-06
-0.004241460307008619,-0.00019041822020786277,-2.4398899271457986e-06
-0.003948216180177043,-0.00019246563932965918,-2.535610892030179e-06
-0.0036538971949985856,-0.0001943661676734531,-2.6323188437809572e-06
-0.0033589049245688453,-0.00019611936820334495,-2.7299402277501568e-06
-0.0030636186727692077,-0.00019772499910267947,-2.8284013195766627e-06
-0.002768397210366647,-0.00019918300307346343,-2.9276283201206983e-06
-0.002473580242336575,-0.00020049349743663924,-3.027547445248224e-06
-0.0021794895505812435,-0.0002016567648848687,-3.1280850108286013e-06
-0.0018864297736788445,-0.00020267324471593372,-3.229167513228802e-06
-0.0015946888029169128,-0.00020354352436008266,-3.330721705497806e-06
-0.001304537793524515,-0.00020426833100919303,-3.432674669340125e-06
-0.0010162308099304566,-0.00020484852316005677,-3.5349538828824375e-06
-0.0007300041381188544,-0.0002052850818970691,-3.6374872841467187e-06
-0.0004460753014806693,-0.00020557910175696899,-3.7402033300602285e-06
-0.000164641815541328,-0.00020573178103622448,-3.8430310507585265e-06
0.00011412027299214514,-0.00020574441142186178,-3.945900098873048e-06
0.00039005798771139273,-0.0002056183668566859,-4.048740793442685e-06
0.0006630430516868925,-0.00020535509159683632,-4.1514841580560654e-06
0.0009329734079108283,-0.00020495608748193688,-4.2540619528257586e-06
0.0011997744976136333,-0.00020442290050555576,-4.356406699822632e-06
0.0014634001859101155,-0.0002037571068346748,-4.4584517016576895e-06
0.0017238332504993232,-0.00020296029847557246,-4.560131052985251e-06
0.001981085368815849,-0.00020203406882074367,-4.66137964480933e-06
0.0022351965550376825,-0.00020097999833978029,-4.762133161599461e-06
0.0024862340170107994,-0.00019979964069676817,-4.862328071358598e-06
0.0027342904258705627,-0.00019849450958604783,-4.961901608929302e-06
0.0029794816146428106,-0.00019706606657591947,-5.060791752969794e-06
0.0032219437422775937,-0.00019551571023668937,-5.158937197172946e-06
0.003461829975320405,-0.00019384476680728987,-5.256277316433941e-06
0.0036993067543458287,-0.00019205448262487332,-5.352752128791982e-06
0.003934549730402615,-0.00019014601850368622,-5.448302254074122e-06
0.004167739473659901,-0.00018812044620267058,-5.5428688702507114e-06
0.00439905706226517,-0.0001859787470686893,-5.636393668568552e-06
0.004628679648813944,-0.00018372181289091953,-5.728818808558454e-06
0.0048567760812062485,-0.0001813504489584145,-5.820086874020787e-06
0.005083502639797371,-0.0001788653792781636,-5.910140831079932e-06
0.005308998954800039,-0.00017626725387951425,-5.998923989369351e-06
0.005533384181017529,-0.00017355665809555985,-6.086379967363119e-06
0.005756753514636594,-0.00017073412367164632,-6.172452662804921e-06
0.005979175130335838,-0.0001678001415104032,-6.257086229100433e-06
0.006200687601499608,-0.00016475517582744434,-6.3402250584348954e-06
0.006421297852541853,-0.00016159967946393397,-6.42181377225774e-06
0.006640979685347406,-0.00015833411007946165,-6.501797219643589e-06
0.006859672917410838,-0.0001549589469287721,-6.580120483895647e-06
0.0070772831591952015,-0.0001514747079096206,-6.656728897605245e-06
0.00729368224252277,-0.0001478819665591911,-6.731568066222448e-06
0.007508709297234106,-0.0001441813686742519,-6.804583900030809e-06
0.007722172459368684,-0.00014037364823510118,-6.875722654258147e-06
0.007933851173362991,-0.00013645964232691826,-6.944930976898652e-06
0.008143499023015045,-0.00013244030477782375,-7.012155963674837e-06
0.0083508470009265,-0.00012831671827183837,-7.077345219437253e-06
0.008555607109459231,-0.00012409010474424194,-7.140446925191273e-06
0.008757476175732325,-0.00011976183392294405,-7.201409909858069e-06
0.00895613975856609,-0.00011533342993936945,-7.260183725823648e-06
0.00915127603148653,-0.0001108065759918563,-7.3167187273064544e-06
0.009342559544281552,-0.00010618311709791427,-7.370966150578897e-06
0.009529664790574502,-0.00010146506101420026,-7.4228781951069255e-06
0.009712269533168056,-9.665457743326463e-05,-7.472408104718792e-06
0.009890057857441592,-9.175399558561222e-05,-7.519510247973511e-06
0.010062722937111747,-8.676580038697388e-05,-7.5641401969666575e-06
0.01022996951397811,-8.169262727420142e-05,-7.606254803881951e-06
0.010391516115941525,-7.65372558667215e-05,-7.645812274667182e-06
0.010547097054093704,-7.13026025742127e-05,-7.682772239277416e-06
0.010696464239580773,-6.599171225079408e-05,-7.717095817983668e-06
0.010839388850162454,-6.0607748978358274e-05,-7.748745683290957e-06
0.010975662867345555,-5.515398604898127e-05,-7.777686117047792e-06
0.011105100497429764,-4.963379520778744e-05,-7.803883062361984e-06
0.011227539474829308,-4.405063521472267e-05,-7.827304169967611e-06
0.011342842222808541,-3.840803979031321e-05,-7.84791883871887e-06
0.01145089682555915,-3.270960502822129e-05,-7.865698249923505e-06
0.011551617758857807,-2.6958976382117052e-05,-7.88061539527609e-06
0.011644946338402297,-2.1159835357802027e-05,-7.892645098211069e-06
0.011730850865521876,-1.5315886056820985e-05,-7.901764028564725e-06
0.011809326464026021,-9.43084172443401e-06,-7.90795071051004e-06
0.0118803946053808,-3.508411457082305e-06,-7.911185523805419e-06
0.011944102319485441,2.447712774134255e-06,-7.911450698476155e-06
0.012000521090614195,8.433868626659165e-06,-7.908730303125958e-06
0.012049745439114235,1.4446435259091272e-05,-7.90301022715452e-06
0.012091891185501594,2.048184441524523e-05,-7.894278157235937e-06
0.012127093391244747,2.6536590559431813e-05,-7.882523548492267e-06
0.012155503981386243,3.260723990258956e-05,-7.867737590876762e-06
0.012177289076187578,3.8690438166983013e-05,-7.84991317135937e-06
0.012192626076898246,4.478291695525447e-05,-7.82904483257881e-06
0.012201700557252155,5.088149861379207e-05,-7.805128728686548e-06
0.012204703015667135,5.698309950702189e-05,-7.778162579156344e-06
0.01220182554860168,6.30847316480891e-05,-7.748145621367565e-06
0.012193258504934008,6.918350266147302e-05,-7.715078562790174e-06
0.012179187168713405,7.527661407988487e-05,-7.678963533604835e-06
0.012159788499766901,8.136135799700495e-05,-7.639804040585613e-06
0.012135227948844718,8.743511210915786e-05,-7.597604923059072e-06
0.012105656361407204,9.349533318672083e-05,-7.5523723117351026e-06
0.012071206990825034,9.95395490247789e-05,-7.504113591182228e-06
0.012031992652925939,0.00010556534893571665,-7.452837366692104e-06
0.01198810306415634,0.00011157037286498722,-7.3985534362419285e-06
0.01193960241454251,0.00011755229923466194,-7.3412727682170164e-06
0.011886527241439843,0.00012350883164865753,-7.281007485496186e-06
0.011828884696289139,0.00012943768463308976,-7.217770856425749e-06
0.011766651325019858,0.000135336568638417,-7.151577293107872e-06
0.011699772494416576,0.00014120317459327613,-7.082442357299949e-06
0.011628162582332242,0.00014703515836246334,-7.0103827740610146e-06
0.011551706015270165,0.00015283012551186394,-6.9354164530924325e-06
0.011470259194463307,0.0001585856168142973,-6.857562517510892e-06
0.011383653309300036,0.00016429909494023815,-6.776841339572258e-06
0.01129169799706577,0.0001699679327668296,-6.693274582645491e-06
0.01119418577059259,0.0001755894037087442,-6.606885248526598e-06
0.011090897103753026,0.0001811606744273306,-6.517697728992579e-06
0.01098160604400587,0.00018667880021427033,-6.425737860332179e-06
0.010866086210799753,0.00019214072327797174,-6.3310329794591185e-06
0.010744117031634082,0.0001975432740885802,-6.233611980117481e-06
0.010615490059842395,0.00020288317586144932,-6.1335053676299735e-06
0.010480015215372349,0.000208157052180253,-6.030745310619548e-06
0.010337526799651565,0.00021336143768400898,-5.9253656881534825e-06
0.010187889156980231,0.00021849279167316694,-5.817402130814189e-06
0.010031001880258966,0.00022354751443247675,-5.7068920542877775e-06
0.009866804483091657,0.0002285219660233144,-5.59387468417383e-06
0.009695280482551829,0.00023341248726472527,-5.4783910708518195e-06
0.009516460854907264,0.00023821542259909004,-5.360484093385865e-06
0.009330426836737137,0.00024292714452200112,-5.240198451605593e-06
0.00913731204522593,0.0002475440792424919,-5.117580645664469e-06
0.008937303887616413,0.0002520627332257025,-4.992678942547421e-06
0.008730644228606036,0.0002564797202547581,-4.865543329177306e-06
0.008517629292894397,0.00026079178863513324,-4.736225451954834e-06
0.008298608796600524,0.000264995848157507,-4.604778542756674e-06
0.008073984318936286,0.0002690889964363912,-4.4712573316081995e-06
0.007844206941966242,0.0002730685442516168,-4.335717946436198e-06
0.007609774204102186,0.0002769320395381339,-4.19821780048876e-06
0.007371226428389936,0.00028067728969625696,-4.058815468180162e-06
0.00712914248968509,0.00028430238192577573,-3.9175705502746535e-06
0.006884135072003753,0.00028780570131619796,-3.77454352946416e-06
0.006636845448967397,0.00029118594644644076,-3.6297956175235003e-06
0.006387937810795678,0.0002944421422613815,-3.4833885953465447e-06
0.006138093164626516,0.00029757365000523706,-3.33538464727989e-06
0.0058880028446761995,0.00030058017400756275,-3.18584619127669e-06
0.005638361681071804,0.0003034617651389998,-3.0348357064900495e-06
0.005389860894024174,0.00030621882078277375,-2.882415560009606e-06
0.00514318080330226,0.00030885208120710536,-2.728647834512136e-06
0.004898983462962118,0.0003113626222736715,-2.5735941586419417e-06
0.0046579053394588356,0.0003137518444742767,-2.4173155419549548e-06
0.004420550149450158,0.00031602145834650397,-2.2598722162497597e-06
0.0041874819688108925,0.0003181734663760692,-2.1013234850691163e-06
0.003959218717313095,0.0003202101415476002,-1.9417275830881988e-06
0.003736226110415225,0.0003221340027545323,-1.7811415470126657e-06
0.003518912154610939,0.00032394778732078885,-1.6196210994938354e-06
0.003307622254885023,0.00032565442092316284,-1.4572205474328475e-06
0.0031026350016043645,0.0003272569852372852,-1.2939926958927356e-06
0.0029041586975898375,0.00032875868366208377,-1.1299887786678932e-06
0.002712328670576935,0.0003301628055041255,-9.65258406376341e-07
0.002527205403781306,0.00033147268902271505,-7.998495327446308e-07
0.0023487735187025013,0.000332691683753336,-6.338084395506181e-07
0.002176941652514071,0.0003338231125461401,-4.6717974047574907e-07
0.002011543269133398,0.000334870233776552,-3.0000640389507605e-07
0.0018523384194639966,0.00033583620419870135,-1.323297944012627e-07
0.0016990164325828931,0.0003367240429117131,3.5810267376340884e-08
0.0015511994927178033,0.00033753659689303824,2.0437542732752873e-07
0.0014084470435317049,0.0003382765085271006,3.733287036825634e-07
0.0012702609550164553,0.00033894618552673765,5.42634377196023e-07
0.001136091378212059,0.0003395477736100448,7.122578669802186e-07
0.0010053431922779866,0.0003400831322526673,8.821655934458966e-07
0.0008773829219971003,0.0003405538137812361,1.0523248299543724e-06
0.000751545985603415,0.0003409610460081362,1.2227035449017154e-06
0.0006271441350104673,0.00034130571853828966,1.3932702360383218e-06
0.0005034729733674471,0.0003415883728153841,1.5639937588767403e-06
0.00037981947017063554,0.00034180919592626864,1.7348431510621534e-06
0.00025546943218728865,0.0003419680181518581,1.905787454581685e-06
0.00012971491834543674,0.0003420643142394913,2.0767955376795224e-06
1.8615982108421985e-06,0.0003420972083686304,2.247835918331553e-06
-0.0001287639551984953,0.0003420654827793835,2.4188765911185564e-06
-0.0002628070673791633,0.00034196759002373906,2.589884859319337e-06
-0.00040087790643313114,0.00034180166878028595,2.760827174020343e-06
-0.0005435446254380211,0.00034156556314731817,2.9316689820022444e-06
-0.0006913267616444996,0.00034125684530054756,3.102374584114211e-06
-0.0008446889576376964,0.00034087284137072703,3.2729070057820295e-06
-0.001004035084198866,0.0003404106603602679,3.443227881214778e-06
-0.001169702859280737,0.000339867225874398,3.6132973527734448e-06
-0.0013419590634686032,0.00033923931039371065,3.783073986840472e-06
-0.0015209954486276366,0.0003385235717656866,3.952514707380321e-06
-0.0017069254282003235,0.0003377165915464796,4.121574748208362e-06
-0.0018997816304541907,0.000336814914781816,4.2902076247904365e-06
-0.0020995143926853615,0.0003358150907760311,4.458365126179898e-06
-0.002305991273085916,0.0003347137143595883,4.6259973274638035e-06
-0.0025189976525738953,0.00033350746712817336,4.793052622835744e-06
-0.0027382384853872977,0.00033219315809368305,4.959477779141208e-06
-0.0029633412291847085,0.00033076776316504005,5.1252180094558885e-06
-0.003193859943037991,0.0003292284628719844,5.290217065965144e-06
-0.003429280495294939,0.00032757267776240115,5.45441735112374e-06
-0.003669026786581305,0.0003257981009419321,5.617760045799823e-06
-0.003912467871048067,0.00032390272727752476,5.780185252854687e-06
-0.004158925847353428,0.0003218848788479244,5.941632154386049e-06
-0.004407684385338095,0.0003197432262897515,6.1020391806704685e-06
-0.00465799775022236,0.0003174768057558614,6.261344188681872e-06
-0.00490910017870702,0.0003150850312736291,6.419484647939244e-06
-0.005160215451860495,0.0003125677023659872,6.576397831349148e-06
-0.005410566506137038,0.0003099250068764878,6.732021008659767e-06
-0.0056593849295739915,0.00030715751901756,6.886291640133279e-06
-0.005905920198287736,0.00030426619273559455,7.039147568071567e-06
-0.006149448512713745,0.00030125235055784415,7.190527203894927e-06
-0.006389281099000191,0.00029811766815491565,7.340369708573118e-06
-0.006624771857783882,0.0002948641549157196,7.488615164340777e-06
-0.006855324269198872,0.0002914941308839739,7.6352047357907e-06
-0.007080397486904045,0.0002880102004449482,7.780080818622929e-06
-0.007299511565215186,0.00028441522318191836,7.923187174529646e-06
-0.0075122517668866065,0.00028071228234889293,8.064469050912349e-06
-0.007718271911954207,0.00027690465142918275,8.203873284356867e-06
-0.007917296761860778,0.000272995759260729,8.341348387029346e-06
-0.008109123478484283,0.00026898915420064273,8.476844615394688e-06
-0.008293622232181986,0.0002648884677729762,8.610314020888093e-06
-0.008470736045995034,0.00026069737820343195,8.741710482382194e-06
-0.008640479964423034,0.00025641957420082743,8.870989720483259e-06
-0.008802939636722159,0.0002520587193005411,8.998109293858602e-06
-0.00895826940640741,0.0002476184170397587,9.123028577943677e-06
-0.009106689992316787,0.00024310217719007764,9.245708726501137e-06
-0.009248485827003074,0.00023851338323524767,9.366112616607467e-06
-0.00938400208663917,0.00023385526125683712,9.48420477773049e-06
-0.009513641408288712,0.00022913085038310516,9.599951305640474e-06
-0.009637860251947437,0.00022434297496804612,9.713319761978262e-06
-0.009757164833733494,0.0002194942186966259,9.82427906039443e-06
-0.009872106542812096,0.0002145869008524895,9.932799340281708e-06
-0.009983276765475191,0.0002096230550254177,1.0038851829251185e-05
-0.010091301073982723,0.0002046044105655532,1.0142408695648928e-05
-0.010196832783054144,0.000199532377101294,1.024344289256564e-05
-0.010300545918920845,0.00019440803242580024,1.0341927994947413e-05
-0.010403127675313302,0.0001892321140272417,1.0437838031560674e-05
-0.01050527044475626,0.0001840050144972243,1.0531147313691791e-05
-0.010607663513054102,0.0001787267810077717,1.062183026256804e-05
-0.010710984495037214,0.00017339711900574888,1.0709861237571419e-05
-0.010815890580754741,0.00016801540023680088,1.0795214367382056e-05
-0.010923009663499213,0.0001625806751757374,1.0877863386235191e-05
-0.011032931435247318,0.00015709168990105077,1.0957781477504389e-05
-0.01114619855168116,0.00015154690740431866,1.1034941126830731e-05
-0.011263297975924189,0.00014594453327241734,1.1109313986999915e-05
-0.011384652604261582,0.0001402825456273709,1.1180870756724862e-05
-0.011510613266368408,0.0001345587291597134,1.1249581075421633e-05
-0.011641451190086078,0.00012877071304559978,1.1315413435972961e-05
-0.0117773510327991,0.00012291601248987848,1.1378335117356831e-05
-0.01191840459706377,0.00011699207358241275,1.1438312138874904e-05
-0.01206460534912085,0.0001109963210958666,1.1495309237544474e-05
-0.012215843840205808,0.00010492620879853494,1.1549289870018074e-05
-0.012371904102870292,9.877927181276592e-05,1.1600216240170898e-05
-0.012532461067412069,9.255318052019533e-05,1.1648049353254139e-05
-0.012697079016410736,8.624579549923963e-05,1.1692749097258998e-05
