frame_number,force
0,615.4357300000208
1,615.4721682077825
2,615.5107729667786
3,615.5535926975272
4,615.6024614211
5,615.6589269100479
6,615.7241860056931
7,615.7990014769113
8,615.8835794212905
9,615.9774081543468
10,616.0790944445564
11,616.186255179628
12,616.2955121076036
13,616.4026075497796
14,616.5026374833442
15,616.5903926343037
16,616.6607935222008
17,616.7093881600783
18,616.7328566554934
19,616.7294533360924
20,616.6993205890786
21,616.644617611312
22,616.5694180683696
23,616.4793590845138
24,616.3810759372285
25,616.2815081072247
26,616.1871832154953
27,616.1035732831784
28,616.0345937588206
29,615.9822945462141
30,615.9467683954418
31,615.9262687287564
32,615.9174978930661
33,615.9160165940739
34,615.9167363210614
35,615.9144704948155
36,615.904519289271
37,615.8832424512201
38,615.8485442717192
39,615.8001782633156
40,615.7397944458139
41,615.6706975813228
42,615.5973435962749
43,615.5246531742625
44,615.4572487902412
45,615.3987215907739
46,615.3510220924986
47,615.3140578147749
48,615.2855672676593
49,615.2613061646391
50,615.2355248105553
51,615.2016589735032
52,615.1531285149839
53,615.0841410808692
54,614.9904134931902
55,614.8697403668441
56,614.7223630869356
57,614.5511212993943
58,614.3613850706442
59,614.160760237996
60,613.9585558984697
61,613.7650307983458
62,613.5904870226439
63,613.4443171454166
64,613.3341146630968
65,613.2649420672301
66,613.2388347508717
67,613.2545987844943
68,613.3079266682797
69,613.3918122480893
70,613.4972082252441
71,613.6138467429555
72,613.7311362750594
73,613.8390499669924
74,613.9289245364259
75,613.9940929653542
76,614.0302799992772
77,614.0357057211777
78,614.010886970428
79,613.9581991429375
80,613.881323609916
81,613.7847152625402
82,613.6731790386128
83,613.551581278134
84,613.4246775964403
85,613.2970234253079
86,613.1729377009028
87,613.0565007628195
88,612.95157055223
89,612.8617947639644
90,612.79059740082
91,612.7411350510276
92,612.7162311537879
93,612.7182857827597
94,612.7491370758567
95,612.80984711324
96,612.9004115153014
97,613.01943674202
98,613.1638680470397
99,613.3288624857491
100,613.5078798273422
101,613.6930201347594
102,613.8755837538683
103,614.0467809921415
104,614.1984898584358
105,614.3239547276852
106,614.4183239555739
107,614.4789368476614
108,614.5053115840404
109,614.4988664821269
110,614.4624908297353
111,614.400111398578
112,614.3163562941559
113,614.2163342866618
114,614.1054825418911
115,613.9894193358253
116,613.8737603368402
117,613.7638915770119
118,613.664721078981
119,613.5804442980613
120,613.5143532190116
121,613.4687009863846
122,613.4446131744811
123,613.4420220457754
124,613.4595992317638
125,613.49467963195
126,613.5432018835834
127,613.599727125375
128,613.6576166171541
129,613.7094255921967
130,613.7475047483421
131,613.7647278947653
132,613.7552256930974
133,613.7150123242291
134,613.6424283902634
135,613.538367980974
136,613.406292217615
137,613.2520442492549
138,613.0834788855649
139,612.9099272391998
140,612.7415431856048
141,612.5886040901984
142,612.4608357800951
143,612.3667994903016
144,612.3133444750192
145,612.3051232154495
146,612.3441860238694
147,612.429693591891
148,612.5577944928934
149,612.7217149551625
150,612.9121044769374
151,613.1176613543697
152,613.3260119044893
153,613.5247451124109
154,613.7024504655983
155,613.8496066978128
156,613.9592204110465
157,614.0271842361864
158,614.0523793876349
159,614.0365637428358
160,613.9840699469916
161,613.9013287833719
162,613.7962618043753
163,613.6776295635391
164,613.5544280628163
165,613.4353880469563
166,613.3285846859053
167,613.241132260311
168,613.1789168944983
169,613.1463176410248
170,613.1459016330675
171,613.1781434872478
172,613.2412696565116
173,613.3313274315732
174,613.4425243430184
175,613.5678076980073
176,613.6995903854372
177,613.8304956778801
178,613.9539989819666
179,614.0648908637265
180,614.1595523204905
181,614.2360766255297
182,614.2942638457187
183,614.3354745866574
184,614.3623102930014
185,614.3781174106202
186,614.3863713354491
187,614.3900438205186
188,614.3910740927612
189,614.3900477053343
190,614.3861418957345
191,614.3773359882325
192,614.3608347765098
193,614.3336273638944
194,614.293098007855
195,614.2376043797414
196,614.1669365329319
197,614.0825756165991
198,613.9876984293488
199,613.8869213827687
200,613.7858257559687
201,613.6903403127491
202,613.6060801962153
203,613.5377517290221
204,613.4887187080606
205,613.4607860694191
206,613.4542074933454
207,613.4678804278079
208,613.4996680499237
209,613.5467900177819
210,613.6062379623559
211,613.675172059508
212,613.751242205577
213,613.8327801696415
214,613.9188435055698
215,614.0091373264489
216,614.1038628881496
217,614.2035316408229
218,614.3087602989015
219,614.4200551275686
220,614.5376094976875
221,614.6611568555254
222,614.7899143524758
223,614.9226185307136
224,615.0576237076946
225,615.1930346310058
226,615.3268684060982
227,615.4572508631325
228,615.5826321716605
229,615.7019763834236
230,615.8148718851345
231,615.9215337681235
232,616.0227066142161
233,616.119501381844
234,616.2132011058467
235,616.3050572091777
236,616.3960909887336
237,616.4869204304201
238,616.577640588165
239,616.6677840294359
240,616.7563762528649
241,616.8420885780108
242,616.9234808344747
243,616.9993100640005
244,617.0688570284539
245,617.1322061458577
246,617.1904231171835
247,617.2456008117746
248,617.3007660046701
249,617.3596458681412
250,617.4262940736847
251,617.5045936890518
252,617.5976938408868
253,617.707477366124
254,617.8341728502852
255,617.9762107988688
256,618.1303800395606
257,618.29227118329
258,618.4569268099324
259,618.6195838057241
260,618.7763878600156
261,618.9249617971262
262,619.0647206471428
263,619.1968665099838
264,619.324063625065
265,619.4498589280291
266,619.5779493321158
267,619.7114067726609
268,619.8519745034246
269,619.999546582378
270,620.1519209254633
271,620.3048656001052
272,620.4524739061972
273,620.5877349565733
274,620.703228295424
275,620.7918547616746
276,620.8475236764713
277,620.865723590747
278,620.8439209036288
279,620.7817664336864
280,620.681134105702
281,620.5460427200436
282,620.3825044735357
283,620.1983116610537
284,620.0027420326809
285,619.806154191091
286,619.6194576131118
287,619.4534623109997
288,619.3181318562906
289,619.221790416676
290,619.1703783389174
291,619.1668901268046
292,619.2111208576847
293,619.2997756707972
294,619.4268979170924
295,619.5845000441344
296,619.7632623343976
297,619.9531893630601
298,620.1441669786172
299,620.3264275263231
300,620.4909798221877
301,620.6300650243269
302,620.7376583784738
303,620.8099738736499
304,620.845872298044
305,620.8470462166114
306,620.8178751334136
307,620.7649115505587
308,620.6960521148143
309,620.6195330384726
310,620.5429342254222
311,620.4723659556124
312,620.4119514881571
313,620.3636356197342
314,620.3272776930946
315,620.300949420432
316,620.2813538614544
317,620.2642990529257
318,620.2451815416065
319,620.2194516783167
320,620.1830425303322
321,620.1327448986899
322,620.0665042869078
323,619.9836186855472
324,619.8848369086405
325,619.7723755069724
326,619.6498680135614
327,619.522241819812
328,619.3955039446952
329,619.2764151278633
330,619.1720441005116
331,619.0892201902437
332,619.0339325097842
333,619.0107409217943
334,619.0222616257747
335,619.0687824707425
336,619.1480640975931
337,619.2553829249052
338,619.383848728546
339,619.5249796435289
340,619.6694597502341
341,619.8079627004761
342,619.9319183363858
343,620.0341335895097
344,620.1092332690681
345,620.1539247712377
346,620.1670952576688
347,620.1497365267574
348,620.1046936793139
349,620.0362607045324
350,619.9496768089462
351,619.8505847069857
352,619.7444988870129
353,619.6363223461603
354,619.5299582995224
355,619.4280764960437
356,619.3320851190305
357,619.242317982468
358,619.1583937986403
359,619.0796664760356
360,619.0056674568596
361,618.9364404870552
362,618.872695518898
363,618.8157629908271
364,618.7673846173536
365,618.7294011031992
366,618.7033943899174
367,618.690339339241
368,618.6903269506724
369,618.7024218493104
370,618.7246955892493
371,618.7544379547453
372,618.7885051348272
373,618.8237305453464
374,618.8573156530193
375,618.8871411844473
376,618.9119766280651
377,618.9315914378726
378,618.9467799636535
379,618.9593140251467
380,618.9718326262312
381,618.9876658687588
382,619.0105822680616
383,619.044460247316
384,619.0929130162481
385,619.158922838635
386,619.2445467188959
387,619.3507339853662
388,619.4772604379784
389,619.6227594191456
390,619.7848292310333
391,619.9602059571515
392,620.1449949110355
393,620.334949341166
394,620.5257731523405
395,620.7134082029514
396,620.8942582727407
397,621.0653136090297
398,621.2241668130108
399,621.3689361238111
400,621.4981283880603
401,621.610483516237
402,621.7048455934456
403,621.7800995520207
404,621.8351932247224
405,621.8692342513124
406,621.8816227709539
407,621.8721750065945
408,621.8412134042036
409,621.7896201880767
410,621.7188498239715
411,621.6308845495696
412,621.5281269822362
413,621.4132611128093
414,621.2891480326759
415,621.1588211638048
416,621.0255994795212
417,620.8932665367914
418,620.7662046088149
419,620.649362104907
420,620.5479793177573
421,620.4670802593356
422,620.4108208063813
423,620.3818355096097
424,620.380729716415
425,620.4058199595513
426,620.4531564534477
427,620.5168013028508
428,620.5893047514796
429,620.6623137646627
430,620.7272464540451
431,620.7759674488005
432,620.801411815141
433,620.7981306126475
434,620.7627511121764
435,620.6943395018862
436,620.5946297967191
437,620.4680607567179
438,620.3215549692761
439,620.1639905536153
440,620.0053686516638
441,619.8557579168141
442,619.7241617689831
443,619.6174792711415
444,619.5397202095529
445,619.4915956547053
446,619.4705367364835
447,619.4711142726081
448,619.4857754634196
449,619.5057964383658
450,619.5223482971444
451,619.5275610444859
452,619.5154501450647
453,619.4825759191505
454,619.4283517970742
455,619.3549838822678
456,619.2670798524595
457,619.1709971940182
458,619.0740186558146
459,618.9834550571937
460,618.9057765899896
461,618.8458606401917
462,618.806426845626
463,618.7877154189225
464,618.7874488329993
465,618.8010963970374
466,618.8224342380082
467,618.8443525861175
468,618.8598064593535
469,618.8627562892341
470,618.8489366940788
471,618.8163390542813
472,618.7653721474749
473,618.698731665244
474,618.6210386191639
475,618.538305519981
476,618.4572821640767
477,618.3847343339612
478,618.3267124521935
479,618.2878672403164
480,618.270877717548
481,618.2760794643744
482,618.3013897127108
483,618.3425822166885
484,618.3938736344536
485,618.4487004702136
486,618.5005438588742
487,618.5436935687461
488,618.5738854332062
489,618.5887645399594
490,618.5881239963181
491,618.5738714606723
492,618.549704312795
493,618.5205274463058
494,618.4917005798271
495,618.4682312790986
496,618.4540340417133
497,618.4513658322664
498,618.4605241704476
499,618.4798463035952
500,618.5059866756186
501,618.5344051194252
502,618.5599851550961
503,618.5777027847216
504,618.5832605401963
505,618.5735944694231
506,618.5471716225122
507,618.5040265489037
508,618.4455262475977
509,618.3738973174492
510,618.2915979597594
511,618.2006630513159
512,618.1021725685391
513,617.9959766665795
514,617.8807531546757
515,617.7543878767384
516,617.6145833982396
517,617.4595447895706
518,617.2885739389695
519,617.102426810255
520,616.9033549754466
521,616.6948533398662
522,616.4812291173256
523,616.2671426236941
524,616.0572324516265
525,615.8558600486116
526,615.6669466356382
527,615.4938604134041
528,615.3393321291995
529,615.2053982656435
530,615.0933748756497
531,615.003857543502
532,614.9367352362474
533,614.8912037679578
534,614.8657732990159
535,614.8582822503887
536,614.8659407650011
537,614.8854159859817
538,614.9129499049935
539,614.9444924238709
540,614.975842593956
541,615.0028028373043
542,615.0213512652975
543,615.027829966956
544,615.0191410217712
545,614.9929389573326
546,614.9478083081074
547,614.8834188653613
548,614.8006544446731
549,614.7017058997171
550,614.5901082606531
551,614.4706956068757
552,614.3494492654164
553,614.233222571427
554,614.129338700517
555,614.0450758751698
556,613.9870703353963
557,613.9606806585009
558,613.9693748385383
559,614.0142249329491
560,614.0936088647069
561,614.203207238793
562,614.3363367391288
563,614.4845887934016
564,614.638666796829
565,614.7892687359961
566,614.9278677730757
567,615.0472998646314
568,615.1421432060409
569,615.2089264815265
570,615.2462100151024
571,615.2545587259065
572,615.2364005193357
573,615.1957632710123
574,615.137904847654
575,615.0688709993724
576,614.9950244387442
577,614.9225907335122
578,614.8572614698207
579,614.8038769258542
580,614.766191638532
581,614.7467242202472
582,614.7467020404043
583,614.7661114704318
584,614.8038470108082
585,614.8579284210794
586,614.925741919852
587,615.0042699889116
588,615.0902969334281
589,615.1805941742595
590,615.2720879202126
591,615.3620007924509
592,615.4479553122328
593,615.5280354434003
594,615.600813929638
595,615.6653607391088
596,615.7212483511538
597,615.7685592782535
598,615.8078815248803
599,615.8402608859458
600,615.8670815497069
601,615.8898738578524
602,615.9100844893759
603,615.9288633958269
604,615.9469114344784
605,615.9644057448832
606,615.980999730812
607,615.9958907863715
608,616.0079515650255
609,616.0159171346497
610,616.0186097949418
611,616.0151716209742
612,616.0052691255338
613,615.989241285188
614,615.9681779358957
615,615.9439221846833
616,615.9189771209635
617,615.8962833833043
618,615.8788520773817
619,615.8692896757277
620,615.8693051391957
621,615.8793117573668
622,615.8982192200814
623,615.9234675781233
624,615.9513034372441
625,615.9772541818088
626,615.9967216148118
627,616.0055953063954
628,616.0007887443211
629,615.9806308958167
630,615.9450839655937
631,615.8957827985452
632,615.8359030816648
633,615.7698803207089
634,615.7030184374403
635,615.6410299048966
636,615.589539316759
637,615.5535746641933
638,615.5370739549945
639,615.5424509682318
640,615.5702874756854
641,615.6192282197611
642,615.6861281151808
643,615.7664464076767
644,615.8548279061586
645,615.9457758915543
646,616.0343096415631
647,616.1165110397471
648,616.1898919346245
649,616.2535435665301
650,616.308056017931
651,616.3552246836935
652,616.3975928918278
653,616.4379052408362
654,616.4785594071354
655,616.5211485366283
656,616.5661798963615
657,616.6130274684144
658,616.6601245058926
659,616.7053449614591
660,616.7464842312966
661,616.7817381762724
662,616.810090831062
663,616.8315527063947
664,616.8472332596339
665,616.859259827546
666,616.8705587412389
667,616.8845099146782
668,616.9045001152699
669,616.9334340961246
670,616.9732913014211
671,617.0248137415789
672,617.08737729085
673,617.1590560306635
674,617.236859553518
675,617.3171104568686
676,617.3959225205562
677,617.4697294495999
678,617.5358004258854
679,617.5926703012997
680,617.6404160088299
681,617.6807253748194
682,617.716724372255
683,617.7525558652601
684,617.7927452696553
685,617.8414435524438
686,617.9016839772577
687,617.974798422943
688,618.0600986034932
689,618.1548516336642
690,618.2545066459373
691,618.3530962560276
692,618.4437512604038
693,618.5193029637761
694,618.5729659101613
695,618.5990763289669
696,618.5938263656949
697,618.5559105107055
698,618.4869962441336
699,618.3919336860178
700,618.2786248297775
701,618.1574978564862
702,618.0405923785751
703,617.9403477285405
704,617.8682635563788
705,617.8336355320781
706,617.8425492541527
707,617.8972569305922
708,617.9959869232853
709,618.1331684990804
710,618.3000076520915
711,618.4853242159268
712,618.6765486705187
713,618.8607768891571
714,619.0257936664129
715,619.1609991529074
716,619.2581984853412
717,619.3122312185812
718,619.3214117610323
719,619.2877278364167
720,619.2167263077833
721,619.1170315085865
722,618.999491664377
723,618.876015265698
724,618.7582279145861
725,618.6561417103203
726,618.577058532634
727,618.5248958445698
728,618.5000317973602
729,618.499657797407
730,618.5185441412474
731,618.5500785985405
732,618.5874174742282
733,618.6245832540673
734,618.6573485585737
735,618.6837676758327
736,618.7042689041053
737,618.7213077879102
738,618.7386787190314
739,618.7606504832686
740,618.7911036066085
741,618.8328064782551
742,618.8869031327259
743,618.9526347501177
744,619.0272941032856
745,619.1064048878376
746,619.1841091753317
747,619.2537314734476
748,619.3084704030628
749,619.3421524898498
750,619.3499685468908
751,619.3291024426366
752,619.2791595898609
753,619.2023163387904
754,619.1031448100339
755,618.9881153896516
756,618.8648328463753
757,618.7411147732508
758,618.6240611805852
759,618.5192716424233
760,618.4303320201429
761,618.3586357477253
762,618.3035504184883
763,618.262889961532
764,618.2335994518589
765,618.2125170343625
766,618.1970633378307
767,618.1857248280477
768,618.1782421350148
769,618.1754878776254
770,618.1791031217801
771,618.1910198956924
772,618.213002957006
773,618.2463027245907
774,618.2914490972438
775,618.3481630329595
776,618.4153436505484
777,618.4911054600367
778,618.5728666716208
779,618.657499743926
780,618.7415520297579
781,618.8215370794004
782,618.8942781261295
783,618.9572527089455
784,619.0088655616473
785,619.0485888401925
786,619.0769474825167
787,619.095367653931
788,619.1059322984512
789,619.1111012316551
790,619.1134555120035
791,619.1155083295564
792,619.1195866245754
793,619.127753027152
794,619.1417308227439
795,619.1628083473561
796,619.1917123494009
797,619.2284521537364
798,619.2721582337975
799,619.3209607800766
800,619.3719544345828
801,619.4212730592284
802,619.4642771077771
803,619.4958512287512
804,619.5108044172891
805,619.5043387802255
806,619.4725206277284
807,619.4126832344745
808,619.3237181015454
809,619.2062407221682
810,619.0626275221978
811,618.8969241238597
812,618.7146395345608
813,618.5224616097305
814,618.3279299537741
815,618.1390701628211
816,617.9639580797469
817,617.8101907079641
818,617.6842925222916
819,617.5911352212327
820,617.533461535666
821,617.511585818679
822,617.5233152092741
823,617.564109088848
824,617.627477758205
825,617.7056048389959
826,617.7901443860262
827,617.8730948985409
828,617.9476172630981
829,618.0086700685764
830,618.0533846539878
831,618.0811700772078
832,618.0935907464526
833,618.0940681790936
834,618.0874274311036
835,618.0792861746622
836,618.0753161575497
837,618.0804754467372
838,618.0983485043276
839,618.1307015213824
840,618.1772916471384
841,618.2359168848325
842,618.3026822096356
843,618.3724628704132
844,618.4395304991169
845,618.498264766124
846,618.5438344670121
847,618.5727330842709
848,618.5830993398552
849,618.5748153101392
850,618.549423385853
851,618.5099269957961
852,618.4605358099401
853,618.4063841099897
854,618.3532113661307
855,618.3069827057584
856,618.2734514088615
857,618.2576914127619
858,618.2636295057382
859,618.2936030861298
860,618.3479851627673
861,618.4249429275603
862,618.5204032235489
863,618.6282779501151
864,618.74095733083
865,618.8500164418202
866,618.947023006722
867,619.0243135502395
868,619.0756322489934
869,619.0965809168699
870,619.0848754267948
871,619.0404239812214
872,618.9652394069761
873,618.8631903473232
874,618.7396038068274
875,618.6007556686491
876,618.4533110932155
877,618.3037847279735
878,618.1580735890402
879,618.0210848908529
880,617.8964617307704
881,617.7864150441833
882,617.6916868316698
883,617.611669248735
884,617.5446750474987
885,617.4883140487864
886,617.4399024984493
887,617.3968285334614
888,617.3568182734018
889,617.3180870828747
890,617.279398817393
891,617.2400658304615
892,617.199900510913
893,617.1591051652018
894,617.1180924779516
895,617.0772584140657
896,617.0367522400954
897,616.9962870101406
898,616.9550160244735
899,616.9114837701409
900,616.8636580486086
901,616.8090625134223
902,616.745033266483
903,616.6690971496379
904,616.5794233606952
905,616.4752717820913
906,616.3573682931294
907,616.2281533224012
908,616.091848968447
909,615.9542907746198
910,615.8225066770998
911,615.7040892454834
912,615.6064531791058
913,615.5360738511231
914,615.4977837919982
915,615.494193199095
916,615.5253050765068
917,615.588398232129
