frame_number,force
0,855.9204700097944
1,855.8725129021342
2,855.8246576060477
3,855.7770055929385
4,855.7296576709094
5,855.6827136934263
6,855.6362723104081
7,855.5904307674442
8,855.5452847540266
9,855.5009282978916
10,855.4574537000967
11,855.4149515038151
12,855.3735104885
13,855.3332176802097
14,855.2941583689523
15,855.2564161250104
16,855.2200728080458
17,855.1852085647084
18,855.1519018118976
19,855.1202292034205
20,855.0902655777979
21,855.0620838847648
22,855.0357550881631
23,855.0113480436702
24,854.9889293509316
25,854.9685631807001
26,854.9503110783065
27,854.9342317453438
28,854.920380801979
29,854.9088105326518
30,854.8995696177999
31,854.8927028536632
32,854.8882508615634
33,854.8862497877931
34,854.8867309954251
35,854.8897207496569
36,854.8952398985999
37,854.9033035518349
38,854.9139207596895
39,854.9270941969811
40,854.9428198558755
41,854.9610867535107
42,854.9818766610226
43,855.0051638612172
44,855.0309149421188
45,855.0590886332968
46,855.0896356915143
47,855.1224988415405
48,855.157612776524
49,855.1949042205007
50,855.2342920543639
51,855.2756875064729
52,855.3189944097032
53,855.3641095276497
54,855.4109229538195
55,855.4593185890525
56,855.5091747035319
57,855.5603645895959
58,855.6127573095184
59,855.6662185388344
60,855.7206115012935
61,855.7757979867076
62,855.8316394384805
63,855.8879980942838
64,855.944738161521
65,856.0017270085049
66,856.0588363520344
67,856.1159434218206
68,856.1729320820095
69,856.229693890301
70,856.2861290764381
71,856.3421474244104
72,856.3976690462792
73,856.4526250391735
74,856.5069580196366
75,856.5606225309398
76,856.6135853200252
77,856.6658254822848
78,856.717334474649
79,856.7681159999134
80,856.8181857670165
81,856.8675711325841
82,856.9163106287745
83,856.964453381951
84,857.0120584265197
85,857.0591939185545
86,857.1059362545219
87,857.1523691013649
88,857.1985823452945
89,857.2446709680435
90,857.2907338613886
91,857.3368725935653
92,857.383190144239
93,857.4297896270841
94,857.4767730199693
95,857.524239922206
96,857.5722863568992
97,857.621003634885
98,857.6704772952413
99,857.7207861356336
100,857.7720013434263
101,857.8241857354651
102,857.8773931111369
103,857.9316677204492
104,857.9870438470025
105,858.0435455049844
106,858.1011862493605
107,858.1599690985548
108,858.2198865685576
109,858.2809208164656
110,858.3430438900439
111,858.4062180780364
112,858.4703963540808
113,858.5355229058921
114,858.6015337412463
115,858.6683573628577
116,858.7359155047773
117,858.8041239230874
118,858.87289323381
119,858.9421297913974
120,859.0117366013611
121,859.0816142596758
122,859.1516619094823
123,859.2217782030868
124,859.2918622553166
125,859.3618145733975
126,859.4315379485607
127,859.5009382957328
128,859.5699254303207
129,859.6384137747748
130,859.7063229908307
131,859.773578535155
132,859.8401121369858
133,859.9058621972201
134,859.9707741094231
135,860.0348005037883
136,860.0979014148563
137,860.1600443734073
138,860.2212044231684
139,860.2813640638142
140,860.3405131225946
141,860.3986485574883
142,860.4557741952053
143,860.5119004078374
144,860.5670437324877
145,860.6212264389658
146,860.6744760517228
147,860.726824833346
148,860.7783092375855
149,860.8289693400019
150,860.8788482542176
151,860.9279915415894
152,860.9764466218312
153,861.0242621916831
154,861.0714876578973
155,861.1181725893799
156,861.16436619177
157,861.2101168069291
158,861.2554714401884
159,861.3004753192283
160,861.345171489119
161,861.3896004474495
162,861.4337998215512
163,861.4778040875013
164,861.5216443289504
165,861.5653480332672
166,861.6089389226831
167,861.6524368186164
168,861.6958575380518
169,861.7392128219387
170,861.7825102969913
171,861.8257534731734
172,861.868941778502
173,861.9120706305695
174,861.9551315416028
175,861.9981122523923
176,862.0409968906913
177,862.0837661510069
178,862.1263974938173
179,862.1688653623304
180,862.2111414140364
181,862.2531947631296
182,862.2949922289345
183,862.3364985848834
184,862.3776768023315
185,862.4184882839207
186,862.4588930829168
187,862.4988501078217
188,862.5383173144205
189,862.5772518889088
190,862.6156104257034
191,862.6533491029498
192,862.6904238583847
193,862.7267905680644
194,862.762405230172
195,862.797224155612
196,862.831204166552
197,862.8643028036109
198,862.8964785417836
199,862.9276910141534
200,862.9579012410609
201,862.9870718613126
202,863.0151673618481
203,863.0421543028568
204,863.0680015360304
205,863.0926804140477
206,863.1161649894983
207,863.1384322010259
208,863.1594620434881
209,863.1792377180876
210,863.1977457586812
211,863.2149761318123
212,863.2309223095378
213,863.2455813150277
214,863.2589537409143
215,863.2710437396906
216,863.2818589847564
217,863.2914106008448
218,863.299713063866
219,863.3067840720761
220,863.3126443919584
221,863.3173176826602
222,863.3208303024592
223,863.3232111001665
224,863.3244911939482
225,863.3247037396975
226,863.3238836907151
227,863.3220675500819
228,863.319293117019
229,863.3155992287619
230,863.311025499801
231,863.3056120605926
232,863.2993992980287
233,863.2924275997894
234,863.2847371039113
235,863.2763674539096
236,863.2673575592758
237,863.2577453611157
238,863.2475676025764
239,863.2368596035336
240,863.2256550393132
241,863.2139857241361
242,863.2018814009002
243,863.1893695390582
244,863.1764751416857
245,863.1632205621507
246,863.1496253308728
247,863.1357059936569
248,863.1214759646019
249,863.1069453980351
250,863.0921210849026
251,863.0770063793661
252,863.0616011608834
253,863.0459018356312
254,863.0299013788853
255,863.0135894177475
256,862.99695235232
257,862.9799735129694
258,862.962633350928
259,862.9449096588178
260,862.9267778169835
261,862.9082110612073
262,862.8891807675989
263,862.8696567509098
264,862.8496075728334
265,862.8290008569832
266,862.8078036073603
267,862.7859825271694
268,862.7635043348919
269,862.740336074909
270,862.7164454208897
271,862.6918009711809
272,862.6663725358771
273,862.6401314149894
274,862.6130506668949
275,862.5851053667068
276,862.5562728552119
277,862.5265329798418
278,862.4958683291791
279,862.4642644617663
280,862.431710128917
281,862.3981974902784
282,862.3637223202436
283,862.3282842030064
284,862.2918867143018
285,862.2545375887136
286,862.2162488725209
287,862.1770370627706
288,862.1369232334121
289,862.0959331491165
290,862.0540973669533
291,862.0114513251671
292,861.9680354167745
293,861.9238950436232
294,861.8790806442742
295,861.833647687375
296,861.7876566219944
297,861.7411727777678
298,861.6942662097828
299,861.6470114849395
300,861.5994874078548
301,861.5517766854688
302,861.5039655306158
303,861.4561432059874
304,861.4084015111616
305,861.3608342166784
306,861.3135364504485
307,861.2666040429624
308,861.220132838739
309,861.174217982196
310,861.1289531867851
311,861.0844299973281
312,861.0407370573071
313,860.9979593947376
314,860.9561777411883
315,860.9154678983303
316,860.8759001654583
317,860.8375388398948
318,860.800441799943
319,860.764660177076
320,860.730238120666
321,860.697212655513
322,860.6656136306008
323,860.6354637569148
324,860.6067787317838
325,860.5795674460612
326,860.5538322686272
327,860.5295694008508
328,860.5067692922985
329,860.4854171080158
330,860.4654932366171
331,860.4469738271277
332,860.4298313417997
333,860.4140351126335
334,860.3995518908582
335,860.3863463803154
336,860.3743817469948
337,860.3636200979055
338,860.3540229231737
339,860.3455514955937
340,860.3381672216475
341,860.3318319375254
342,860.3265081435727
343,860.322159171449
344,860.3187492803435
345,860.3162436814245
346,860.3146084922807
347,860.313810624823
348,860.3138176114043
349,860.3145973754919
350,860.316117954945
351,860.3183471873577
352,860.3212523680583
353,860.3247998924717
354,860.3289548953529
355,860.3336808991852
356,860.3389394825468
357,860.3446899769731
358,860.3508891985604
359,860.3574912188011
360,860.3644471780593
361,860.3717051443999
362,860.3792100196692
363,860.3869034937102
364,860.3947240470195
365,860.4026070022344
366,860.4104846248422
367,860.4182862727923
368,860.4259385933829
369,860.4333657644852
370,860.4404897762897
371,860.4472307495448
372,860.4535072866227
373,860.4592368522899
374,860.4643361813158
375,860.4687217096953
376,860.4723100255644
377,860.4750183355793
378,860.4767649431212
379,860.4774697358955
380,860.4770546817189
381,860.4754443322298
382,860.472566334588
383,860.468351950161
384,860.4627365762285
385,860.4556602626399
386,860.4470682119395
387,860.4369112501671
388,860.4251462566486
389,860.411736543972
390,860.3966521829025
391,860.3798702700768
392,860.3613751382362
393,860.3411585096472
394,860.3192195939555
395,860.295565132628
396,860.2702093930949
397,860.2431741157195
398,860.2144884154555
399,860.1841886384244
400,860.1523181730494
401,860.118927216299
402,860.0840724972463
403,860.047816961302
404,860.0102294185463
405,859.9713841591212
406,859.9313605383372
407,859.8902425339455
408,859.8481182777176
409,859.8050795634692
410,859.7612213344173
411,859.7166411539539
412,859.671438664817
413,859.6257150419615
414,859.5795724444063
415,859.5331134711256
416,859.4864406257545
417,859.4396557947696
418,859.3928597440829
419,859.3461516392966
420,859.2996285946042
421,859.2533852543501
422,859.2075134099074
423,859.1621016532774
424,859.1172350679465
425,859.0729949570197
426,859.0294586082198
427,858.9866990947794
428,858.9447851106167
429,858.9037808374414
430,858.8637458405058
431,858.8247349887868
432,858.7867983948695
433,858.7499813699651
434,858.7143243903026
435,858.6798630724896
436,858.6466281573411
437,858.6146455038078
438,858.5839360962884
439,858.5545160692697
440,858.5263967527645
441,858.4995847404202
442,858.4740819798428
443,858.4498858824516
444,858.4269894487214
445,858.4053814044529
446,858.3850463448798
447,858.3659648852588
448,858.348113817739
449,858.3314662741428
450,858.3159918935208
451,858.3016569931827
452,858.2884247429095
453,858.2762553436291
454,858.2651062129847
455,858.2549321806005
456,858.2456856959844
457,858.237317052189
458,858.2297746281765
459,858.2230051518486
460,858.2169539842704
461,858.2115654246999
462,858.2067830361083
463,858.2025499915682
464,858.1988094424161
465,858.1955049088498
466,858.1925806923532
467,858.1899823070003
468,858.1876569235662
469,858.1855538172744
470,858.1836248080165
471,858.18182468179
472,858.1801115838188
473,858.1784473764094
474,858.1767979567763
475,858.17513353119
476,858.1734288423555
477,858.1716633478336
478,858.169821348816
479,858.1678920703558
480,858.1658696959033
481,858.163753360465
482,858.1615471076732
483,858.1592598166143
484,858.1569051045485
485,858.1545012113108
486,858.1520708696384
487,858.1496411629925
488,858.1472433694936
489,858.1449127883625
490,858.1426885440051
491,858.1406133620543
492,858.1387333107708
493,858.1370975005099
494,858.1357577343138
495,858.1347681045991
496,858.1341845339132
497,858.134064260785
498,858.1344652742043
499,858.1354457025514
500,858.1370631653065
501,858.1393740983433
502,858.1424330653521
503,858.146292068826
504,858.1509998746344
505,858.156601364745
506,858.1631369326032
507,858.1706419344129
508,858.1791462072918
509,858.1886736626692
510,858.1992419607742
511,858.2108622695969
512,858.2235391094081
513,858.2372702821359
514,858.2520468836832
515,858.2678533961342
516,858.2846678552828
517,858.3024620872334
518,858.3212020068542
519,858.3408479711914
520,858.3613551821458
521,858.3826741334749
522,858.4047510967264
523,858.4275286394383
524,858.4509461678304
525,858.4749404857434
526,858.4994463615129
527,858.5243970945436
528,858.5497250736422
529,858.5753623198531
530,858.6012410076341
531,858.6272939596196
532,858.6534551117046
533,858.6796599464856
534,858.705845893958
535,858.7319526987329
536,858.7579227528428
537,858.783701392793
538,858.8092371596006
539,858.8344820216001
540,858.8593915613386
541,858.8839251289935
542,858.9080459651394
543,858.9317212957695
544,858.9549224026094
545,858.9776246716931
546,858.9998076225204
547,859.0214549188988
548,859.0425543612444
549,859.0630978590679
550,859.0830813816445
551,859.1025048845273
552,859.1213722099965
553,859.139690961086
554,859.1574723511688
555,859.1747310332521
556,859.1914849141423
557,859.2077549582467
558,859.2235649845056
559,859.2389414586219
560,859.2539132818401
561,859.2685115769365
562,859.2827694716287
563,859.2967218794829
564,859.3104052789816
565,859.3238574925247
566,859.3371174677976
567,859.350225063597
568,859.3632208412483
569,859.3761458619309
570,859.3890414898138
571,859.401949200741
572,859.4149103960934
573,859.4279662213837
574,859.4411573889629
575,859.4545240038271
576,859.4681053911816
577,859.4819399245526
578,859.4960648537835
579,859.510516132729
580,859.5253282465865
581,859.5405340386567
582,859.5561645363691
583,859.5722487769976
584,859.588813634485
585,859.605883649597
586,859.6234808658462
587,859.6416246735146
588,859.6603316640663
589,859.679615497222
590,859.6994867824309
591,859.7199529751824
592,859.7410182870235
593,859.7626836072322
594,859.7849464345064
595,859.8078008186558
596,859.8312373143315
597,859.8552429502972
598,859.8798012181696
599,859.9048920840922
600,859.9304920260945
601,859.9565740993658
602,859.9831080312612
603,860.0100603471997
604,860.0373945276326
605,860.0650711951582
606,860.0930483297041
607,860.1212815084679
608,860.1497241663508
609,860.1783278725286
610,860.2070426196383
611,860.2358171230742
612,860.2645991281767
613,860.2933357225078
614,860.3219736495569
615,860.3504596195544
616,860.3787406124391
617,860.4067641673983
618,860.4344786534466
619,860.4618335167683
620,860.4887795025853
621,860.5152688511912
622,860.5412554690042
623,860.566695076007
624,860.591545330765
625,860.6157659336807
626,860.6393187087878
627,860.6621676644221
628,860.6842790333254
629,860.7056212931623
630,860.7261651691884
631,860.7458836214654
632,860.7647518190403
633,860.7827471031145
634,860.7998489409755
635,860.8160388727125
636,860.8313004535333
637,860.8456191956273
638,860.8589825144406
639,860.871379684322
640,860.8828018076008
641,860.8932417995867
642,860.9026943902644
643,860.9111561420871
644,860.9186254823495
645,860.925102747867
646,860.930590238988
647,860.9350922793046
648,860.9386152767262
649,860.94116778112
650,860.9427605340645
651,860.9434065075176
652,860.9431209297984
653,860.9419212986147
654,860.9398273818997
655,860.9368612078528
656,860.9330470452799
657,860.9284113738565
658,860.9229828419101
659,860.9167922075924
660,860.9098722582163
661,860.9022577018039
662,860.8939850243678
663,860.8850923064482
664,860.8756189934519
665,860.8656056163624
666,860.8550934619951
667,860.8441241947158
668,860.8327394342654
669,860.8209802971936
670,860.8088869123679
671,860.7964979236399
672,860.783849994572
673,860.7709773309664
674,860.7579112366346
675,860.7446797163902
676,860.731307138047
677,860.7178139628835
678,860.7042165517306
679,860.6905270513965
680,860.6767533637437
681,860.6628991978783
682,860.6489642047765
683,860.6349441926047
684,860.6208314191477
685,860.6066149547338
686,860.5922811052759
687,860.5778138816912
688,860.5631955003488
689,860.5484068997698
690,860.5334282607065
691,860.5182395186777
692,860.5028208595171
693,860.4871531898175
694,860.4712185756001
695,860.4550006438005
696,860.4384849419372
697,860.4216592518037
698,860.404513853576
699,860.3870417377113
700,860.3692387635334
701,860.3511037650899
702,860.3326386060758
703,860.3138481859651
704,860.2947403992616
705,860.2753260495682
706,860.2556187202996
707,860.2356346043213
708,860.2153922956278
709,860.1949125474284
710,860.1742180024718
711,860.1533329025588
712,860.1322827843425
713,860.1110941674153
714,860.0897942388759
715,860.0684105370503
716,860.0469706362001
717,860.025501833559
718,860.0040308396985
719,859.982583473276
720,859.9611843617504
721,859.9398566501413
722,859.9186217201128
723,859.8974989222294
724,859.8765053260482
725,859.8556554954939
726,859.8349612992284
727,859.8144317662939
728,859.7940729961759
729,859.7738881300962
730,859.7538773869454
731,859.7340381629026
732,859.7143651891466
733,859.6948507384045
734,859.675484869564
735,859.6562557005752
736,859.6371497025337
737,859.6181520106592
738,859.5992467498094
739,859.5804173731386
740,859.5616470129752
741,859.5429188433574
742,859.5242164541444
743,859.5055242371826
744,859.4868277852128
745,859.4681143036621
746,859.4493730343665
747,859.4305956893252
748,859.4117768921227
749,859.3929146244382
750,859.3740106749698
751,859.3550710881271
752,859.3361066096353
753,859.3171331252329
754,859.298172086747
755,859.2792509174507
756,859.2604033865739
757,859.2416699418651
758,859.2230979895205
759,859.204742112355
760,859.1866642189743
761,859.1689336178438
762,859.1516270099733
763,859.1348283929823
764,859.1186288687533
765,859.1031263475708
766,859.0884251436746
767,859.0746354601916
768,859.0618727647798
769,859.0502570602197
770,859.0399120565619
771,859.0309642539061
772,859.0235419478502
773,859.0177741727381
774,859.0137896005193
775,859.0117154150056
776,859.0116761824846
777,859.0137927399252
778,859.0181811212105
779,859.0249515399798
780,859.0342074452046
781,859.0460446630179
782,859.0605506352332
783,859.0778037609646
784,859.097872843224
785,859.1208166385761
786,859.1466835058592
787,859.1755111496907
788,859.2073264554194
789,859.2421454135188
790,859.2799731320404
791,859.320803935061
792,859.3646215435805
793,859.4113993341566
794,859.4611006702097
795,859.513679301134
796,859.5690798245397
797,859.6272382066308
798,859.688082354656
799,859.7515327336621
800,859.8175030179852
801,859.8859007666874
802,859.9566281116406
803,860.0295824468502
804,860.1046571075603
805,860.1817420278763
806,860.2607243664925
807,860.3414890918356
808,860.4239195201741
809,860.5078978022613
810,860.5933053552886
811,860.6800232372625
812,860.7679324609511
813,860.8569142450915
814,860.9468502019205
815,861.037622461949
816,861.129113738778
817,861.2212073384836
818,861.3137871198527
819,861.4067374136674
820,861.4999429111416
821,861.5932885330708
822,861.6866592918925
823,861.7799401583411
824,861.8730159426885
825,861.9657711983162
826,862.0580901535787
827,862.1498566769693
828,862.240954279909
829,862.331266160566
830,862.4206752911838
831,862.509064550875
832,862.5963169056647
833,862.6823156372276
834,862.7669446208217
835,862.8500886514793
836,862.9316338160233
837,863.0114679071866
838,863.0894808750625
839,863.1655653105538
840,863.2396169556616
841,863.3115352361884
842,863.3812238132999
843,863.4485911510104
844,863.5135510965166
845,863.5760234690948
846,863.6359346516476
847,863.6932181778076
848,863.7478153068662
849,863.799675578243
850,863.8487573368269
851,863.8950282207679
852,863.938465604107
853,863.9790569872567
854,864.0168003282773
855,864.0517043076333
856,864.0837885194354
857,864.1130835832845
858,864.1396311722898
859,864.1634839543648
860,864.1847054453154
861,864.2033697733531
862,864.2195613555316
863,864.2333744877036
864,864.2449128511508
865,864.2542889408764
866,864.2616234224201
867,864.2670444259875
868,864.270686788619
869,864.2726912566276
870,864.2732036609121
871,864.2723740766502
872,864.270355976781
873,864.2673053866797
874,864.2633800462783
875,864.2587385859233
876,864.2535397233354
877,864.2479414905762
878,864.242100500934
879,864.2361712651261
880,864.2303055637491
881,864.2246518790096
882,864.219354884844
883,864.2145549919413
884,864.2103879431423
885,864.2069844544453
886,864.2044698969019
887,864.2029640152925
888,864.2025806807849
889,864.2034276762157
890,864.2056065135163
891,864.2092122830583
892,864.2143335345636
893,864.2210521886061
894,864.2294434766233
895,864.239575906242
896,864.2515112483006
897,864.2653045425599
898,864.2810041205547
899,864.2986516454633
900,864.3182821690399
901,864.3399242041792
902,864.3635998097286
903,864.3893246834471
904,864.4171082602709
905,864.4469538153157
906,864.4788585726078
907,864.5128138205332
908,864.5488050339676
909,864.5868120021856
910,864.6268089615173
911,864.6687647322389
912,864.7126428602751
913,864.758401766001
914,864.8059949043302
915,864.8553709413167
916,864.90647395231
