acceleration,velocity,displacement
-0.04329512605044991,0.0,0.0
-0.04384235319775702,-2.1784369812051733e-05,-5.4460924530129335e-09
-0.04438841859741593,-4.384206276084497e-05,-2.185270059623711e-08
-0.04493216438337874,-6.617220850604364e-05,-4.935626841295927e-08
-0.04547244025836449,-8.877335966647945e-05,-8.809266045609003e-08
-0.04600810681822812,-0.0001116434964356276,-1.381968744816168e-07
-0.046538038392211316,-0.00013478003273823748,-1.9980275677508305e-07
-0.04706112533402702,-0.00015817982366979707,-2.730427208770917e-07
-0.0475762757536448,-0.00018183917394171503,-3.5804747027996973e-07
-0.04808241672293361,-0.00020575384706085964,-4.549457255306134e-07
-0.04857849501648297,-0.00022991907499571377,-5.638639560447567e-07
-0.049063477467682214,-0.00025432956811675505,-6.84926116822874e-07
-0.04953635103531108,-0.00027897952524250335,-8.182533901626885e-07
-0.04999612268571799,-0.0003038626436727606,-9.639639323915046e-07
-0.05044181919491234,-0.0003289721291429182,-1.1221726255954243e-06
-0.050872486962276316,-0.0003543007056822154,-1.2929908343017078e-06
-0.051287191906686,-0.00037984062539945596,-1.4765261670721256e-06
-0.051685019493780994,-0.0004055836782495727,-1.6728822429843828e-06
-0.05206507492697974,-0.0004315212018547629,-1.8821584630104667e-06
-0.05242648352792118,-0.00045764409146848816,-2.1044497863412794e-06
-0.0527683913320494,-0.0004839428101834808,-2.3398465117542717e-06
-0.05308996592729186,-0.0005104073994983161,-2.588434064174721e-06
-0.053390397562127885,-0.0005370274903706711,-2.8502927866419675e-06
-0.053668900540804275,-0.0005637923148964041,-3.1254977379587364e-06
-0.05392471491060796,-0.0005906907187592571,-3.4141184963726515e-06
-0.054157108434343834,-0.0006177111745954951,-3.7162189697113397e-06
-0.05436537883288377,-0.000644841796412302,-4.0318572124632894e-06
-0.05454885627631365,-0.0006720703551896015,-4.361085250363765e-06
-0.05470690609613875,-0.0006993842957827146,-4.703948913106845e-06
-0.05483893168705554,-0.0007267707552285131,-5.0604876758596516e-06
-0.054944377568170166,-0.0007542165825423195,-5.43073451030236e-06
-0.0550227325802444,-0.0007817083600794232,-5.8147157459577955e-06
-0.05507353320303991,-0.0008092324265252443,-6.212450942608962e-06
-0.055096366979810615,-0.0008367749015709569,-6.623952774633013e-06
-0.05509087603399329,-0.0008643217123244078,-7.049226928106854e-06
-0.05505676065966663,-0.0008918586214978228,-7.488272011562411e-06
-0.054993782963992426,-0.0009193712574037375,-7.941079481287802e-06
-0.05490177053513751,-0.00094684514577852,-8.407633582083367e-06
-0.05478062010196716,-0.0009742657434377961,-8.887911304387446e-06
-0.05463030114277588,-0.0010016184737489818,-9.38188235868414e-06
-0.054450859390005754,-0.0010288887638821773,-9.889509168091929e-06
-0.05424242016648398,-0.0010560620837712998,-1.0410746880005298e-05
-0.054005191477440755,-0.0010831239866822809,-1.0945543397618693e-05
-0.053739466775660806,-0.0011100601512455562,-1.1493839432100653e-05
-0.05344562731724899,-0.0011368564247687836,-1.2055568576104237e-05
-0.053124144029271826,-0.0011634988676054137,-1.2630657399197787e-05
-0.05277557881459208,-0.0011899737983163798,-1.3219025565678235e-05
-0.052400585227243605,-0.0012162678393268388,-1.382058597508904e-05
-0.05199990846817114,-0.0012423679627506924,-1.4435244925608423e-05
-0.051574384671971805,-0.001268261536035728,-1.5062902300305028e-05
-0.05112493946947344,-0.0012939363670710893,-1.5703451776081733e-05
-0.05065258581275162,-0.0013193807483916455,-1.6356781054947417e-05
-0.050158421041986444,-0.00134458350010533,-1.7022772117071662e-05
-0.04964362316324017,-0.0013695340111566368,-1.7701301494887153e-05
-0.04910944629335666,-0.001394222278520786,-1.839224056730651e-05
-0.04855721521223499,-0.0014186389438971838,-1.9095455872911e-05
-0.04798831894985566,-0.0014427753274377064,-1.9810809440744722e-05
-0.04740420333720736,-0.0014666234580094722,-2.0538159137106517e-05
-0.046806362473533515,-0.0014901760994621574,-2.1277359026474423e-05
-0.04619632910335159,-0.0015134267723563787,-2.2028259744429056e-05
-0.04557566394791713,-0.001536369770619196,-2.279070888017295e-05
-0.04494594409080972,-0.0015590001726288776,-2.3564551365984966e-05
-0.04430875056838827,-0.001581313846293677,-2.4349629870715606e-05
-0.04366565535380873,-0.0016033074477742263,-2.514578519423258e-05
-0.04301820794409014,-0.001624978413598701,-2.5952856659575814e-05
-0.04236792176786128,-0.0016463249460266889,-2.677068249948216e-05
-0.041716260634214644,-0.0016673459916272078,-2.7599100233895634e-05
-0.04106462544571247,-0.0016880412131471897,-2.8437947035089234e-05
-0.040414341400956656,-0.001708410954858857,-2.9287060077090745e-05
-0.03976664590923932,-0.001728456201686406,-3.014627686622706e-05
-0.03912267742522625,-0.0017481785325200224,-3.1015435549778664e-05
-0.03848346538235308,-0.0017675800682219172,-3.189437519996415e-05
-0.0378499213628841,-0.0017866634149082264,-3.278293607074669e-05
-0.03722283160108966,-0.00180543160314922,-3.3680959825261056e-05
-0.03660285088594351,-0.0018238880237709783,-3.4588289731991106e-05
-0.03599049791336327,-0.001842036360970805,-3.5504770828176554e-05
-0.03538615212608156,-0.001859880523480666,-3.643025004928942e-05
-0.034790052061607964,-0.0018774245745275884,-3.736457632379149e-05
-0.03420229520287888,-0.00189467266134371,-3.830760063275931e-05
-0.03362283929817135,-0.0019116289449689727,-3.925917603433748e-05
-0.033051505096528065,-0.0019282975310676476,-4.021915765334664e-05
-0.03248798043799882,-0.0019446824024512792,-4.118740263672637e-05
-0.03193182564129109,-0.001960787353971102,-4.216377007583197e-05
-0.03138248013715887,-0.0019766159304157142,-4.314812089692867e-05
-0.030839270298038207,-0.0019921713680245137,-4.414031772153873e-05
-0.03030141841118439,-0.0020074565402018194,-4.514022469859531e-05
-0.02976805273468892,-0.0020224739079882877,-4.614770731064284e-05
-0.029238218564970175,-0.0020372254758132024,-4.716263215659321e-05
-0.02871089023185605,-0.0020517127530124087,-4.818486671379962e-05
-0.02818498392138961,-0.00206593672155072,-4.92142790824404e-05
-0.027659371203029033,-0.002079897810331825,-5.025073771541103e-05
-0.027132893105802455,-0.0020935958764090328,-5.1294111137096244e-05
-0.02660437455324419,-0.0021070301933237942,-5.234426765452945e-05
-0.026072638939745846,-0.002120199446697042,-5.340107506453466e-05
-0.025536522620105615,-0.002133101737087005,-5.446440036048067e-05
-0.024994889090274176,-0.0021457345900146,-5.553410944225607e-05
-0.024446642653442496,-0.0021580949729505293,-5.661006683299735e-05
-0.023890741383381535,-0.0021701793189597353,-5.7692135405974914e-05
-0.02332620921402202,-0.0021819835566090863,-5.878017612486712e-05
-0.022752147003947162,-0.0021935031456635787,-5.9874047800435285e-05
-0.022167742451076448,-0.002204733118027335,-6.0973606866358016e-05
-0.021572278767325558,-0.0022156681233319354,-6.207870717669783e-05
-0.020965142060689487,-0.0022263024785389393,-6.318919982716555e-05
-0.020345827404859258,-0.0022366302209053265,-6.430493300202662e-05
-0.019713943597825245,-0.0022466451636559974,-6.542575184816695e-05
-0.019069216619404004,-0.0022563409537103046,-6.655149837750853e-05
-0.018411491797109297,-0.002265711130814433,-6.768201139863972e-05
-0.01774073468842067,-0.0022747491874358155,-6.881712647820228e-05
-0.017057030691594432,-0.0022834486287808195,-6.995667593225643e-05
-0.016360583407755334,-0.002291803032305657,-7.110048884752806e-05
-0.015651711793205975,-0.0022998061061058972,-7.224839113213095e-05
-0.014930846162118,-0.002307451745594728,-7.34002055950561e-05
-0.014198523121127044,-0.0023147340879155396,-7.455575205343367e-05
-0.013455379530938288,-0.002321647563578556,-7.571484746630719e-05
-0.012702145591598402,-0.00232818694485919,-7.687730609341662e-05
-0.011939637141625378,-0.002334347390542496,-7.804293967726704e-05
-0.011168747255146539,-0.002340124486641689,-7.921155764656308e-05
-0.010390437219464392,-0.002345514282760342,-8.038296733891359e-05
-0.009605726973891279,-0.002350513323808681,-8.155697424055585e-05
-0.008815685085494388,-0.0023551186768235276,-8.27333822407139e-05
-0.008021418335307978,-0.002359327952678728,-8.391199389808947e-05
-0.0072240609990190515,-0.0023631393225123096,-8.509261071688724e-05
-0.006424763930255175,-0.002366551528744628,-8.627503342970147e-05
-0.005624683583441034,-0.002369563890623052,-8.745906228454339e-05
-0.004824971135285169,-0.0023721763043027338,-8.864449733327484e-05
-0.004026761874163825,-0.002374389237555096,-8.98311387187393e-05
-0.003231165026214795,-0.002376203719280191,-9.101878695794812e-05
-0.002439254173829845,-0.0023776213240802022,-9.220724321878822e-05
-0.0016520583919460183,-0.0023786441522216464,-9.339630958786367e-05
-0.0008705541856257497,-0.0023792748053660393,-9.458578932726059e-05
-9.565827569178872e-05,-0.0023795163584813686,-9.577548711822245e-05
0.0006717787416107685,-0.002379372328364889,-9.696520928993402e-05
0.0014309778448575487,-0.0023788466392182716,-9.815476403182981e-05
0.0021812361413390186,-0.0023779435857217224,-9.93439615880648e-05
0.002921930530016492,-0.0023766677940538837,-0.00010053261443300871
0.0036525204852970333,-0.002375024181300055,-0.00010172053742684719
0.004372549970829978,-0.0023730179136860234,-0.00010290754795059371
0.005081648488073011,-0.0023706543640712977,-0.00010409346602003304
0.0057795312669313495,-0.0023679390691325464,-0.000105278114378334
0.006465998615356369,-0.0023648776866619743,-0.00010646131856728263
0.007140934454516828,-0.002361475953394506,-0.00010764290697729674
0.0078043040726291524,-0.0023577396437627195,-0.00010882271087658605
0.00845615113537327,-0.002353674529960719,-0.00011000056442001691
0.009096593996219664,-0.002349286343677821,-0.00011117630463842655
0.009725821356118962,-0.002344580739839736,-0.00011234977140930594
0.010344087330569815,-0.0023395632626680637,-0.0001135208074099329
0.010951705994537073,-0.002334239314336787,-0.00011468925805418411
0.011549045488729643,-0.0023286141264659706,-0.0001158549714143848
0.012136521778218317,-0.0023226927346492337,-0.00011701779812966359
0.01271459215569055,-0.0023164799561657566,-0.00011817759130236734
0.013283748580436624,-0.0023099803709817246,-0.00011933420638415421
0.013844510942261173,-0.00230319830610105,-0.0001204875010534249
0.014397420336237131,-0.0022961378232814254,-0.00012163733508577052
0.014943032429283187,-0.0022888027100900453,-0.0001227835702191134
0.015481910990095289,-0.0022811964742352007,-0.0001239260700151947
0.016014621637670534,-0.0022733223410782593,-0.00012506469971902307
0.016541725845849224,-0.0022651832542073796,-0.0001261993261178445
0.017063775232114994,-0.0022567818789378884,-0.0001273298174011308
0.017581306163119374,-0.00224812060858908,-0.00012845604302301255
0.01809483472116452,-0.002239201573368009,-0.00012957787356850182
0.018604852083307255,-0.002230026651666891,-0.00013069518062476055
0.019111820357901932,-0.002220597483556589,-0.0001318078366585664
0.019616168901476005,-0.0022109154862417443,-0.000132915714901016
0.020118291112345,-0.002200981871238289,-0.000134018689240386
0.020618541678651434,-0.0021907976630405395,-0.0001351166341239557
0.021117234252222027,-0.0021803637190578214,-0.00013620942446948027
0.021614639521794737,-0.002169680750614317,-0.0001372969355868983
0.022110983664858346,-0.0021587493448176538,-0.0001383790431107563
0.02260644716526428,-0.002147569987110123,-0.00013945562294373826
0.023101163996193053,-0.0021361430843197587,-0.00014052655121159574
0.023595221184264107,-0.0021244689880246443,-0.00014159170422968183
0.02408865878084188,-0.002112548018033368,-0.00014265095848119635
0.02458147025916141,-0.002100380485773367,-0.00014370419060714802
0.025073603330462917,-0.002087966717375961,-0.00014475127740793534
0.025564961142785017,-0.002075307076257649,-0.00014579209585634375
0.026055403809203258,-0.002062401985019652,-0.0001468265231216631
0.026544750215286867,-0.002049251946513529,-0.00014785443660454638
0.02703278007064803,-0.0020358575639420457,-0.00014887571398216026
0.027519236182165813,-0.002022219559878842,-0.0001498902332631155
0.02800382692736467,-0.0020083387941014596,-0.00015089787285161056
0.028486228896608373,-0.0019942162801454663,-0.00015189851162017228
0.02896608965931401,-0.0019798532005064857,-0.00015289202899033526
0.02944303059868689,-0.0019652509204419856,-0.0001538783050205724
0.029916649752744547,-0.0019504110003541277,-0.00015485722050077142
0.03038652459642727,-0.0019353352067668348,-0.00015582865705255166
0.030852214704465086,-0.0019200255219416118,-0.00015679249723472879
0.031313264254175355,-0.0019044841522019517,-0.00015774862465326467
0.03176920436024916,-0.0018887135350483455,-0.00015869692407507725
0.032219555266152305,-0.001872716345141745,-0.00015963728154512477
0.03266382843374635,-0.0018564954992167702,-0.0001605695845062144
0.033101528572247546,-0.0018400541599652718,-0.00016149372192100992
0.03353215564089944,-0.001823395738911985,-0.00016240958439572923
0.033955206855695585,-0.0018065238982878362,-0.0001633170643050292
0.034370178728811165,-0.0017894425518917094,-0.00016421605591757408
0.03477656916598161,-0.0017721558649180112,-0.0001651064555217765
0.03517387964132988,-0.0017546682527161833,-0.00016598816155118505
0.03556161746288343,-0.00173698437844013,-0.00016686107470897414
0.035939298136744666,-0.001719109149540223,-0.00016772509809096924
0.03630644783095671,-0.0017010477130482977,-0.00016858013730661637
0.03666260592823742,-0.0016828054496084992,-0.00016942610059728056
0.037007327640964774,-0.0016643879662161987,-0.00017026289895123674
0.037340186649449235,-0.0016458010876435952,-0.00017109044621470168
0.037660777722603664,-0.001627050846550582,-0.00017190865919825023
0.037968719286707565,-0.0016081434722982541,-0.00017271745777796245
0.038263655915821086,-0.001589085378497622,-0.00017351676499066142
0.038545260722179474,-0.001569883149338122,-0.00017430650712262034
0.03881323762605455,-0.0015505435247510635,-0.00017508661379114264
0.03906732347979449,-0.0015310733844746012,-0.00017585701801844906
0.03930729000947888,-0.001511479731102283,-0.00017661765629734327
0.039532945528027504,-0.0014917696722179063,-0.00017736846864817331
0.039744136376483996,-0.0014719504017417784,-0.00017810939866666324
0.03994074806546136,-0.0014520291806312921,-0.0001788403935622565
0.04012270610615602,-0.0014320133170883879,-0.0001795614041866864
0.040289976530665884,-0.0014119101464291823,-0.0001802723850525658
0.04044256610137864,-0.0013917270107711712,-0.0001809732943418659
0.0405805222014045,-0.0013714712386954755,-0.00018166409390423256
0.04070393239008133,-0.001351150125047604,-0.00018234474924516832
0.04081292360909449,-0.0013307709110478101,-0.00018301522950419218
0.04090766103961079,-0.0013103407648856337,-0.00018367550742317553
0.04098834663222048,-0.0012898667629676758,-0.00018432555930513887
0.04105521734832469,-0.0012693558719725395,-0.00018496536496387392
0.0411085431568245,-0.0012488149318462523,-0.0001855949076648286
0.041148624825755854,-0.0012282506398506071,-0.00018621417405775283
0.041175791542042116,-0.0012076695357586577,-0.00018682315410165515
0.04119039838767197,-0.0011870779882762292,-0.00018742184098266389
0.041192823696655695,-0.0011664821827551473,-0.00018801023102542173
0.04118346631279357,-0.001145888110252785,-0.0001885883235986737
0.04116274276405801,-0.001125301557983572,-0.0001891561210157328
0.041131084368369236,-0.0011047281012004652,-0.00018971362843052882
0.04108893428818255,-0.0010841730965363272,-0.000190260853729963
0.04103674455502351,-0.0010636416768255257,-0.00019079780742330347
0.040974973087984375,-0.0010431387474147736,-0.00019132450252936354
0.040904080732281176,-0.0010226689839597071,-0.00019184095446220717
0.04082452834212514,-0.0010022368316911056,-0.00019234718091611986
0.040736773923101564,-0.000981846506124799,-0.00019284320175057384
0.04064126983793392,-0.00096150199518454,-0.00019332903887590117
0.0405384600735716,-0.0009412070627066636,-0.00019380471614037397
0.04042877756694993,-0.0009209652532965333,-0.00019427025921937477
0.04031264158537884,-0.0009007798985084511,-0.00019472569550732602
0.040190455155557664,-0.000880654124323217,-0.00019517105401303393
0.04006260253861923,-0.0008605908598996728,-0.00019560636525908965
0.03992944675907084,-0.0008405928475752503,-0.00019603166118595838
0.03979132720604422,-0.0008206626540839714,-0.0001964469750613732
0.0396485573269306,-0.0008008026829507277,-0.00019685234139563186
0.03950142242587677,-0.0007810151880125259,-0.00019724779586337269
0.03935017757184842,-0.0007613022880130947,-0.0001976333752323791
0.0391950456218169,-0.0007416659822146784,-0.00019800911729993603
0.03903621537602592,-0.0007221081669652176,-0.00019837506083723102
0.03887383989956867,-0.000702630653146319,-0.0001987312455422589
0.03870803506105647,-0.0006832351844061628,-0.00019907771200164702
0.03853887835036032,-0.0006639234560533086,-0.00019941450166176188
0.03836640804102238,-0.0006446971344554629,-0.00019974165680938907
0.03819062275756218,-0.0006255578767558167,-0.0002000592205621919
0.03801148149171963,-0.0006065073506934962,-0.00020036723686905423
0.03782890408603603,-0.0005875472542990573,-0.00020066575052030236
0.03764277217783948,-0.0005686793352330885,-0.0002009548071676854
0.037452930581928945,-0.0005499054095431463,-0.00020123445335387945
0.03725918908508449,-0.0005312273796263929,-0.00020150473655117183
0.03706132462096712,-0.00051264725119988,-0.0002017657052088784
0.0368590837864714,-0.0004941671490980204,-0.00020201740880895286
0.036652185652566276,-0.00047578933173826095,-0.00020225989792916192
0.03644032481912846,-0.00045751620412033727,-0.00020249322431312657
0.036223174665754546,-0.0004393503292491165,-0.00020271744094646894
0.03600039075575669,-0.0004212944378937387,-0.00020293260213825466
0.03577161435409473,-0.00040335143661627583,-0.00020313876360688216
0.03553647602152463,-0.000385524414022371,-0.00020333598256954183
0.03529459924855302,-0.0003678166452048516,-0.00020352431783434864
0.03504560409336924,-0.00035023159436937105,-0.0002037038298942422
0.03478911078848104,-0.0003327729156489085,-0.00020387458102174677
0.03452474328516264,-0.00031544445213049755,-0.00020403663536369161
0.034252132715340305,-0.0002982502331303718,-0.00020419005903500682
0.03397092076222007,-0.0002811944697609817,-0.00020433492021072966
0.033680762935973406,-0.00026428154883643333,-0.000204471289215379
0.03338133174785176,-0.00024751602516547705,-0.00020459923860887948
0.03307231977340804,-0.00023090261228516209,-0.00020471884326824213
0.0327534426006867,-0.0002144461716916384,-0.00020483018046423633
0.03242444167079634,-0.00019815170062376764,-0.0002049333299323152
0.032085087027573254,-0.00018202431844917524,-0.00020502837393708342
0.03173517999347423,-0.00016606925169391338,-0.0002051153973296192
0.031374555780465115,-0.00015029181775042853,-0.00020519448759698028
0.031003086032458615,-0.0001346974072971976,-0.00020526573490324218
0.030620681285057346,-0.0001192914654678186,-0.00020532923212143343
0.030227293320862752,-0.00010407947181633858,-0.00020538507485575447
0.029822917395211812,-8.906691913731994e-05,-0.00020543336145349288
0.029407594309963824,-7.425929121102603e-05,-0.00020547419300607995
0.02898141232261642,-5.966203955288097e-05,-0.00020550767333877093
0.02854450889039411,-4.528055924962834e-05,-0.00020553390898847156
0.028097072257175826,-3.112016396273585e-05,-0.00020555300916927464
0.027639342892782092,-1.7186060175246372e-05,-0.00020556508572530912
0.02717161479174884,-3.4833207541136386e-06,-0.00020557025307054146
0.02669423663352607,9.98314210220509e-06,-0.00020556862811520443
0.026207612795491386,2.3208604459459454e-05,-0.00020556033017856402
0.02571220419275037,3.618855870651989e-05,-0.0002055454808877725
0.025208528894987103,4.891874197845426e-05,-0.00020552420406260127
0.024697162444619464,6.139516481335589e-05,-0.0002054966255859033
0.024178737781192602,7.361413986980891e-05,-0.00020546287325973252
0.023653944674649107,8.557231048376934e-05,-0.00020542307664714413
