frame_number,force
0,492.0498000055557
1,492.1822707226923
2,492.3143615389946
3,492.4456954610181
4,492.57590126305627
5,492.704616255959
6,492.8314889243006
7,492.95618139706124
8,493.07837172251686
9,493.19775592348685
10,493.3140498144121
11,493.42699056687036
12,493.5363380149858
13,493.6418756967162
14,493.74341163109995
15,493.8407788351595
16,493.9338355873985
17,494.022465447826
18,494.1065770471868
19,494.186103660522
20,494.26100258235783
21,494.3312543229662
22,494.3968616474345
23,494.45784848137157
24,494.5142587081494
25,494.56615488213754
26,494.61361688066984
27,494.65674051525843
28,494.69563612037575
29,494.7304271357186
30,494.76124869474944
31,494.78824622875396
32,494.8115740927925
33,494.8313942186165
34,494.84787479968145
35,494.8611890138309
36,494.8715137893028
37,494.8790286194663
38,494.8839144315926
39,494.8863525151072
40,494.8865235147437
41,494.88460649336577
42,494.8807780678804
43,494.8752116200665
44,494.86807658278536
45,494.85953780106604
46,494.8497549669006
47,494.838882126247
48,494.8270672567898
49,494.81445191534215
50,494.80117095399277
51,494.7873523037926
52,494.7731168239583
53,494.75857821369436
54,494.7438429830597
55,494.72901047859364
56,494.7141729583025
57,494.69941570909435
58,494.68481719837905
59,494.67044925099424
60,494.6563772431086
61,494.6426603060726
62,494.62935153488473
63,494.61649819755655
64,494.6041419427946
65,494.5923190039375
66,494.5810603972009
67,494.5703921125125
68,494.5603352960189
69,494.55090642472766
70,494.5421174752203
71,494.53397608940276
72,494.52648574091296
73,494.51964590649436
74,494.5134522472717
75,494.5078968047169
76,494.50296821474046
77,494.4986519411653
78,494.49493052750955
79,494.49178386398717
80,494.48918946529295
81,494.48712275429114
82,494.48555734701705
83,494.4844653350853
84,494.4838175624283
85,494.4835838940932
86,494.4837334755619
87,494.4842349817775
88,494.48505685552243
89,494.4861675346275
90,494.4875356668513
91,494.4891303108958
92,494.49092112246444
93,494.4928785254059
94,494.4949738691717
95,494.49717957431756
96,494.49946926742496
97,494.5018179061369
98,494.504201894585
99,494.50659918935145
100,494.50898939600654
101,494.511353856259
102,494.51367572589885
103,494.5159400434704
104,494.5181337886181
105,494.52024592792327
106,494.5222674457096
107,494.5241913578637
108,494.5260127074942
109,494.5277285416171
110,494.5293378680569
111,494.53084159200836
112,494.53224243267135
113,494.5335448218583
114,494.5347547877509
115,494.5358798273506
116,494.5369287704457
117,494.5379116365489
118,494.53883948472037
119,494.5397242548105
120,494.54057859783705
121,494.54141569336406
122,494.54224905281967
123,494.5430923091079
124,494.54395899403136
125,494.5448623056725
126,494.5458148681515
127,494.54682848650043
128,494.54791390016226
129,494.5490805399095
130,494.55033629427754
131,494.55168729218826
132,494.55313770795146
133,494.5546895936723
134,494.55634274294334
135,494.5580945887962
136,494.55994013789575
137,494.5618719416514
138,494.5638801035748
139,494.56595232123954
140,494.56807396080995
141,494.5702281623065
142,494.57239597446994
143,494.57455651888665
144,494.5766871833369
145,494.5787638437405
146,494.580761112818
147,494.5826526123906
148,494.58441126564566
149,494.5860096055939
150,494.58742009601457
151,494.58861546140383
152,494.5895690228605
153,494.59025503716373
154,494.5906490360775
155,494.59072816209726
156,494.590471496009
157,494.5898603715427
158,494.5888786733188
159,494.58751311560565
160,494.5857535002973
161,494.5835929526592
162,494.5810281331476
163,494.5780594235432
164,494.5746910860049
165,494.5709313941908
166,494.5667927360958
167,494.56229168877485
168,494.5574490655908
169,494.55228993665264
170,494.5468436224518
171,494.5411436595729
172,494.53522773612025
173,494.5291375934965
174,494.52291889087013
175,494.5166210294656
176,494.5102969354463
177,494.5040028016654
178,494.49779778922556
179,494.4917436897263
180,494.48590454879485
181,494.48034625147085
182,494.47513607074103
183,494.4703421821686
184,494.4660331496149
185,494.4622773886704
186,494.45914261530555
187,494.45669528781474
188,494.45500005085586
189,494.45411919120926
190,494.45411211506183
191,494.45503485548494
192,494.4569396164769
193,494.4598743572684
194,494.46388241815265
195,494.469002187149
196,494.47526680570866
197,494.48270391183297
198,494.4913354201409
199,494.50117733975736
200,494.51223963180223
201,494.52452610874855
202,494.5380343782144
203,494.5527558337731
204,494.56867569469716
205,494.5857730949613
206,494.6040212196697
207,494.623387485144
208,494.6438337578948
209,494.665316607541
210,494.6877875889441
211,494.71119354910905
212,494.7354769549189
213,494.76057623866024
214,494.7864261593669
215,494.81295817884046
216,494.84010085144104
217,494.86778022632785
218,494.8959202598986
219,494.9244432350426
220,494.9532701830633
221,494.98232130428244
222,495.01151638440757
223,495.0407752052997
224,495.07001795016595
225,495.09916560376297
226,495.12814034773874
227,495.1568659504812
228,495.18526815059437
229,495.2132750331325
230,495.2408173971578
231,495.2678291118937
232,495.2942474574873
233,495.3200134459548
234,495.3450721182863
235,495.36937281448763
236,495.3928694141986
237,495.4155205462597
238,495.437289766013
239,495.4581456989697
240,495.47806214870684
241,495.4970181658985
242,495.5149980749513
243,495.53199145525184
244,495.5479930754168
245,495.56300278065316
246,495.57702533488657
247,495.5900702205575
248,495.60215140016527
249,495.61328704476995
250,495.6234992353296
251,495.6328136427818
252,495.64125919267764
253,495.6488677204505
254,495.655673623732
255,495.66171351769657
256,495.66702589797666
257,495.6716508139785
258,495.67562955436443
259,495.6790043463243
260,495.68181807064775
261,495.68411399494204
262,495.6859355270642
263,495.6873259898867
264,495.68832841732427
265,495.68898537050956
266,495.68933877235315
267,495.68942975873455
268,495.6892985452466
269,495.6889843093709
270,495.6885250889098
271,495.68795769839556
272,495.68731766568663
273,495.68663919057633
274,495.6859551259765
275,495.6852969805416
276,495.6846949398387
277,495.68417790145986
278,495.6837735179832
279,495.68350824073593
280,495.6834073572253
281,495.6834950159953
282,495.6837942344051
283,495.6843268872052
284,495.68511367644027
285,495.68617408541195
286,495.6875263203994
287,495.6891872434497
288,495.69117229853765
289,495.6934954326049
290,495.69616901251754
291,495.69920373844474
292,495.70260855364006
293,495.70639055084774
294,495.7105548769498
295,495.7151046393736
296,495.7200408189458
297,495.72536219357016
298,495.7310652756306
299,495.7371442643618
300,495.74359101343646
301,495.75039501377324
302,495.7575433915123
303,495.76502092085747
304,495.7728100512765
305,495.78089094881705
306,495.78924155206545
307,495.7978376440626
308,495.8066529417974
309,495.81565920459707
310,495.8248263619669
311,495.83412266033764
312,495.8435148270037
313,495.85296824874257
314,495.86244716252975
315,495.8719148562254
316,495.88133387761815
317,495.89066625042034
318,495.89987369559566
319,495.90891785577367
320,495.91776051973363
321,495.9263638435739
322,495.934690565641
323,495.94270421348
324,495.95036930237455
325,495.95765152568015
326,495.9645179368032
327,495.9709371219763
328,495.9768793629235
329,495.98231678928965
330,495.98722352158205
331,495.9915758057299
332,495.9953521404836
333,495.9985333992353
334,496.001102948197
335,496.0030467627215
336,496.0043535429106
337,496.0050148288008
338,496.00502511435275
339,496.0043819582956
340,496.00308608910734
341,496.0011415015525
342,495.9985555431593
343,495.99533899002756
344,495.9915061114623
345,495.9870747217614
346,495.98206621558813
347,495.9765055814712
348,495.9704213864765
349,495.96384572420965
350,495.95681411834715
351,495.9493653750644
352,495.94154138014494
353,495.9333868402105
354,495.9249489718809
355,495.91627714662593
356,495.9074225015284
357,495.89843752694736
358,495.8893756418327
359,495.88029076688167
360,495.8712369048688
361,495.8622677359448
362,495.85343623344744
363,495.8447943034443
364,495.836392449596
365,495.82827946418263
366,495.8205021458714
367,495.81310504458753
368,495.80613023340595
369,495.79961710681255
370,495.79360220443107
371,495.7881190597552
372,495.78319807453533
373,495.77886642074776
374,495.77514797273045
375,495.77206327142
376,495.7696295210642
377,495.76786061763397
378,495.76676720806745
379,495.76635677958024
380,495.7666337774899
381,495.76759974837927
382,495.76925350365514
383,495.7715912970334
384,495.77460700841414
385,495.77829232632956
386,495.782636921737
387,495.78762860705234
388,495.79325347563844
389,495.79949601840116
390,495.80633921557614
391,495.8137646029851
392,495.8217523129723
393,495.8302810910323
394,495.8393282900289
395,495.8488698451023
396,495.8588802337506
397,495.8693324264638
398,495.88019783295937
399,495.8914462476922
400,495.90304579686875
401,495.9149628884529
402,495.92716216655555
403,495.9396064718044
404,495.952256809843
405,495.9650723312204
406,495.97801032750147
407,495.9910262500533
408,496.00407375908316
409,496.01710481037065
410,496.0300697853698
411,496.0429176675086
412,496.05559626468636
413,496.06805247562295
414,496.08023259560633
415,496.0920826553659
416,496.10354878595507
417,496.11457760294087
418,496.12511660415026
419,496.1351145756985
420,496.1445220008347
421,496.15329146585464
422,496.16137805744756
423,496.1687397463269
424,496.17533775245676
425,496.1811368873695
426,496.18610586901366
427,496.1902176045988
428,496.1934494372323
429,496.1957833527525
430,496.1972061439444
431,496.19770953030405
432,496.19729023258833
433,496.1959500021232
434,496.19369560484074
435,496.1905387594806
436,496.1864960290911
437,496.18158866537465
438,496.1758424063429
439,496.16928722893573
440,496.1619570598603
441,496.15388944981675
442,496.14512521777726
443,496.13570807246947
444,496.1256842178779
445,496.11510194897744
446,496.1040112432656
447,496.09246335283626
448,496.0805104005896
449,496.0682049827775
450,496.05559977891977
451,496.04274716974595
452,496.02969886431396
453,496.0165055381763
454,496.0032164844817
455,495.9898792788469
456,495.9765394573547
457,495.96324020623103
458,495.9500220623156
459,495.9369226252663
460,495.92397628468257
461,495.9112139666775
462,495.8986629040682
463,495.88634643289885
464,495.87428381676045
465,495.8624900998142
466,495.85097598897227
467,495.8397477647459
468,495.82880721910374
469,495.8181516180985
470,495.807773687606
471,495.79766162213883
472,495.78779911858163
473,495.7781654378725
474,495.7687354974723
475,495.7594799960544
476,495.750365570088
477,495.7413549808774
478,495.7324073305271
479,495.72347830588393
480,495.71452045006276
481,495.70548346134956
482,495.696314519427
483,495.68695863947636
484,495.67735905567815
485,495.66745763643644
486,495.65719533371987
487,495.64651266782425
488,495.6353502467748
489,495.62364931738017
490,495.61135234326525
491,495.59840360384186
492,495.58474980680484
493,495.57034070568926
494,495.55512971382336
495,495.53907450679424
496,495.52213760673163
497,495.50428694239946
498,495.48549637874834
499,495.4657462084657
500,495.44502359677824
501,495.4233229700151
502,495.40064633877506
503,495.3770035479534
504,495.352412447661
505,495.32689898048375
506,495.3004971815612
507,495.2732490892467
508,495.2452045662187
509,495.21642103385824
510,495.18696312592374
511,495.1569022701112
512,495.12631620716326
513,495.0952884566518
514,495.06390773713906
515,495.0322673471267
516,495.00046451228235
517,494.96859970354484
518,494.9367759297429
519,494.90509800771974
520,494.8736718131173
521,494.8426035160895
522,494.811998807912
523,494.7819621258624
524,494.7525958840127
525,494.72399971666516
526,494.6962697398166
527,494.66949783496267
528,494.6437709588569
529,494.6191704823946
530,494.5957715617386
531,494.5736425453748
532,494.55284442178345
533,494.5334303133085
534,494.5154450223186
535,494.4989246360013
536,494.48389619632724
537,494.4703774419023
538,494.4583766285289
539,494.4478924351509
540,494.43891396115737
541,494.43142081964623
542,494.4253833295246
543,494.4207628077051
544,494.41751196104224
545,494.41557537563796
546,494.4148900988529
547,494.41538630741326
548,494.4169880535454
549,494.41961407967983
550,494.4231786907479
551,494.42759267183857
552,494.43276423845276
553,494.43860000683367
554,494.44500597251334
555,494.4518884858826
556,494.4591552140931
557,494.4667160790869
558,494.4744841622629
559,494.48237656726263
560,494.49031523342603
561,494.4982276934538
562,494.50604776953287
563,494.51371620258584
564,494.52118120967776
565,494.52839896539194
566,494.53533400440034
567,494.5419595442712
568,494.5482577289808
569,494.55421979369913
570,494.55984615005866
571,494.56514638912836
572,494.5701391977162
573,494.57485218292754
574,494.5793216002085
575,494.58359198145473
576,494.5877156622197
577,494.59175221027334
578,494.5957677609921
579,494.5998342675447
580,494.60402867542246
581,494.60843203201097
582,494.61312854315486
583,494.61820458987677
584,494.62374771894537
585,494.6298456206693
586,494.636585106456
587,494.6440510976648
588,494.6523256364531
589,494.6614869291755
590,494.67160843356896
591,494.68275800179015
592,494.6949970916049
593,494.70838005734277
594,494.7229535304998
595,494.7387558969666
596,494.7558168741153
597,494.7741571874696
598,494.79378834443764
599,494.8147125015263
600,494.83692242063796
601,494.8604015089617
602,494.8851239361614
603,494.9110548228103
604,494.93815049527296
605,494.96635880369377
606,494.9956195006539
607,495.025864678035
608,495.0570192586195
609,495.08900153730883
610,495.1217237652853
611,495.1550927696718
612,495.18901060154883
613,495.223375206293
614,495.25808111123007
615,495.29302012562977
616,495.3280820471332
617,495.3631553678097
618,495.39812797305876
619,495.43288782769713
620,495.46732364553753
621,495.50132554110246
622,495.5347856641674
623,495.56759881878395
624,495.59966306783474
625,495.63088032241063
626,495.6611569133958
627,495.6904041412307
628,495.7185387988236
629,495.7454836618699
630,495.77116794061413
631,495.7955276874078
632,495.8185061548317
633,495.8400540993321
634,495.8601300254998
635,495.87870036677026
636,495.8957395996809
637,495.9112302907474
638,495.92516307703585
639,495.93753658311243
640,495.9483572781397
641,495.95763927770616
642,495.9654040957148
643,495.97168035223115
644,495.97650344346334
645,495.979915179874
646,495.9819633976846
647,495.9827015477857
648,495.9821882646708
649,495.98048691695436
650,495.977665140568
651,495.9737943557257
652,495.9689492690109
653,495.96320736248515
654,495.9566483724846
655,495.94935376133486
656,495.94140618511756
657,495.9328889598893
658,495.92388552790595
659,495.91447892498167
660,495.9047512502438
661,495.8947831399564
662,495.884653247407
663,495.8744377309349
664,495.86420975202867
665,495.8540389850931
666,495.84399114007084
667,495.8341274987666
668,495.8245044657575
669,495.81517313540945
670,495.80617887754454
671,495.7975609452209
672,495.7893521087438
673,495.78157832074106
674,495.77425841802113
675,495.7674038668036
676,495.7610185587352
677,495.75509866606905
678,495.7496325653073
679,495.7446008389291
680,495.7399763640967
681,495.73572449547214
682,495.7318033466869
683,495.72816417194804
684,495.724751846383
685,495.7215054416048
686,495.71835889138595
687,495.71524174037546
688,495.71207996607404
689,495.70879686130905
690,495.7053139620042
691,495.7015520035631
692,495.69743188872474
693,495.69287565012604
694,495.68780739185394
695,495.68215419575534
696,495.67584697983034
697,495.6688212973247
698,495.6610180660817
699,495.65238421842855
700,495.64287326267697
701,495.63244574873244
702,495.6210696326206
703,495.6087205374626
704,495.59538191063
705,495.5810450779709
706,495.5657091964336
707,495.5493811070092
708,495.5320750914251
709,495.51381253835547
710,495.49462152708867
711,495.47453633789655
712,495.4535968990868
713,495.43184818161205
714,495.40933955321674
715,495.3861241048242
716,495.36225796160244
717,495.33779958993733
718,495.31280911028534
719,495.2873476254229
720,495.26147657368745
721,495.2352571163444
722,495.20874956679273
723,495.1820128674244
724,495.15510411806315
725,495.12807815791933
726,495.10098720082124
727,495.0738805214256
728,495.0468041886515
729,495.0198008420383
730,494.9929095072128
731,494.9661654479477
732,494.93960005398344
733,494.91324076547625
734,494.8871110363589
735,494.8612303397917
736,494.8356142189803
737,494.81027438575524
738,494.7852188675235
739,494.76045220102924
740,494.7359756694646
741,494.7117875781083
742,494.68788356242754
743,494.6642569209454
744,494.64089896319035
745,494.6177993614662
746,494.5949464948475
747,494.57232777495125
748,494.54992994506335
749,494.52773934635735
750,494.5057421470045
751,494.48392453213853
752,494.4622728549125
753,494.44077375078075
754,494.41941421810765
755,494.3981816683231
756,494.377063948881
757,494.3560493428522
758,494.335126549918
759,494.3142846543011
760,494.2935130854888
761,494.2728015774197
762,494.2521401311958
763,494.2315189855344
764,494.2109285982062
765,494.1903596405594
766,494.1698030058233
767,494.1492498304438
768,494.12869152667
769,494.10811982406943
770,494.08752681731926
771,494.06690501750467
772,494.046247404748
773,494.0255474816658
774,494.00479932939874
775,493.98399766955816
776,493.9631379354099
777,493.94221635400515
778,493.92123003859376
779,493.90017708838474
780,493.87905669108187
781,493.8578692228389
782,493.83661634029016
783,493.8153010599764
784,493.7939278216795
785,493.7725025336957
786,493.7510325995639
787,493.72952692709737
788,493.707995921729
789,493.6864514669895
790,493.6649068950392
791,493.64337694952275
792,493.62187774180785
793,493.6004267003093
794,493.57904251171516
795,493.5577450527744
796,493.5365553114212
797,493.5154952959456
798,493.49458793088576
799,493.4738569386819
800,493.4533267067152
801,493.433022139628
802,493.41296849679105
803,493.3931912150991
804,493.373715718401
805,493.35456721638576
806,493.33577049680036
807,493.3173497149939
808,493.29932818426494
809,493.2817281700474
810,493.26457069110023
811,493.2478753315627
812,493.23166006867314
813,493.2159411217112
814,493.200732828164
815,493.1860475532917
816,493.1718956390829
817,493.1582853977463
818,493.1452231533229
819,493.13271333299457
820,493.1207586075317
821,493.1093600784296
822,493.0985175079691
823,493.08822958755525
824,493.07849423862206
825,493.0693089388185
826,493.0606710644086
827,493.0525782383396
828,493.04502867243633
829,493.0380214915748
830,493.0315570275452
831,493.02563707097136
832,493.0202650712798
833,493.0154462769376
834,493.0111878104157
835,493.0074986744203
836,493.0043896881641
837,493.0018733551231
838,492.99996366668677
839,492.9986758488465
840,492.998026060959
841,492.998031056484
842,492.99870781581416
843,493.0000731614564
844,493.00214336627056
845,493.00493376619306
846,493.0084583893092
847,493.0127296124317
848,493.0177578542713
849,493.02355131157134
850,493.0301157420887
851,493.03745429634296
852,493.04556739865774
853,493.0544526773874
854,493.0641049443492
855,493.0745162238044
856,493.0856758312013
857,493.0975705011191
858,493.11018456253265
859,493.1235001577519
860,493.13749749936426
861,493.15215515760593
862,493.16745036938147
863,493.1833593600992
864,493.1998576703937
865,493.2169204808554
866,493.2345229285975
867,493.25264041016686
868,493.2712488664277
869,493.2903250466572
870,493.30984675063627
871,493.32979304826125
872,493.35014447565027
873,493.370883205022
874,493.39199318361364
875,493.41346023571845
876,493.435272122202
877,493.4574185534313
878,493.47989115382427
879,493.5026833786044
880,493.52579038542376
881,493.5492088652372
882,493.57293683854476
883,493.59697342504745
884,493.6213185962434
885,493.64597292064917
886,493.6709373100647
887,493.69621277347466
888,493.72180018384165
889,493.74770006257864
890,493.77391238651745
891,493.8004364222547
892,493.8272705927996
893,493.8544123813102
894,493.8818582759327
895,493.9096037582098
896,493.93764333542873
