acceleration,velocity,displacement
-0.06269274192388459,0.0,0.0
-0.060068550668012935,-3.069032314797438e-05,-7.672580786993596e-09
-0.05745188509380853,-6.0070432088429746e-05,-3.036276959609463e-08
-0.054850213288725636,-8.814595668406329e-05,-6.741686678921788e-08
-0.052270889083663445,-0.00011492623227716056,-1.1818491402952384e-07
-0.04972109720379661,-0.00014042422884902558,-1.820225293110704e-07
-0.0472078010273464,-0.00016465645340681134,-2.582926998750296e-07
-0.044737693642374746,-0.00018764282707424163,-3.463675199952929e-07
-0.04231715278214719,-0.00020940653868037213,-4.4562986143394633e-07
-0.03995220011150033,-0.000229973876903784,-5.554749653299853e-07
-0.037648465231265055,-0.00024937404323947533,-6.753119453658002e-07
-0.035411154666040716,-0.00026763894821380175,-8.045651932291195e-07
-0.033245026004560266,-0.000284802993381452,-9.426756786279329e-07
-0.031154367272212678,-0.0003009028417006452,-1.0891021373984571e-06
-0.029142981534096758,-0.00031597717890222257,-1.2433221425491741e-06
-0.02721417665536824,-0.0003300664684495888,-1.404833054387127e-06
-0.025370760081472328,-0.00034321270263379893,-1.573152847157974e-06
-0.02361503844147293,-0.00035545915226453526,-1.7478208108825574e-06
-0.021948821723309656,-0.0003668501173057309,-1.928398128275124e-06
-0.02037343172139611,-0.00037743068066690733,-2.1144683277682837e-06
-0.01888971441387121,-0.0003872464672007242,-2.3056376147351914e-06
-0.017498055884355625,-0.0003963434097752809,-2.5015350839791925e-06
-0.016198401357586666,-0.0004047675240857665,-2.701812817444454e-06
-0.014990276876944132,-0.00041256469364439916,-2.9061458718769955e-06
-0.013872813130602,-0.0004197804661462857,-3.114232161824667e-06
-0.012844770941832876,-0.0004264598621643944,-3.325792243902337e-06
-0.011904567973004414,-0.00043264719689310374,-3.5405690086667113e-06
-0.011050306236864491,-0.000438385915445571,-3.7583272867513802e-06
-0.010279800052199816,-0.00044371844201783706,-3.978853376117232e-06
-0.009590604128609114,-0.0004486860430630393,-4.201954497387452e-06
-0.00898004152693167,-0.0004533287044769245,-4.4274581842724425e-06
-0.008445231312295947,-0.00045768502268673145,-4.655211616063357e-06
-0.00798311577347082,-0.00046179210945817314,-4.8850808990995834e-06
-0.007590487108043508,-0.0004656855101785517,-5.116950304008765e-06
-0.007264013471777296,-0.0004693991353235069,-5.350721465384279e-06
-0.007000264281730128,-0.00047296520476188377,-5.5863125504056265e-06
-0.0067957346611624446,-0.00047641420449760693,-5.823657402720499e-06
-0.006646868919128205,-0.00047977485539267957,-6.062704667693071e-06
-0.006550082959658697,-0.0004830740933623763,-6.303416904881835e-06
-0.00650178551265725,-0.0004863370604804553,-6.545769693342543e-06
-0.0064983980791128056,-0.0004895871063783978,-6.789750735057256e-06
-0.006536373496216842,-0.0004928457992722302,-7.035358961469914e-06
-0.006612213054570962,-0.0004961329459099271,-7.282603647765453e-06
-0.006722482131353739,-0.0004994666197064083,-7.531503539169537e-06
-0.006863824330205366,-0.0005028631963217981,-7.782085993176588e-06
-0.0070329741378609145,-0.0005063373959388147,-8.034386141241742e-06
-0.0072267681206330285,-0.0005099023315034381,-8.288446073102305e-06
-0.007442154690484017,-0.0005135695622062174,-8.54431404652972e-06
-0.0076762024694116415,-0.0005173491514961913,-8.80204372495532e-06
-0.007926107274279887,-0.0005212497289321142,-9.061693445062397e-06
-0.008189197739825413,-0.0005252785551856405,-9.323325516091836e-06
-0.008462939603741134,-0.0005294415895215321,-9.58700555226863e-06
-0.008744938693893712,-0.0005337435590959408,-9.852801839422998e-06
-0.009032942675088647,-0.0005381880294381864,-1.012078473655653e-05
-0.009324841626196543,-0.0005427774755135076,-1.0391026112794453e-05
-0.00961866753250945,-0.0005475133528031841,-1.0663598819873627e-05
-0.009912592800284689,-0.0005523961678863827,-1.0938576200046019e-05
-0.010204927930416729,-0.000557425548069058,-1.121603162903488e-05
-0.010494118515294037,-0.0005626003096804857,-1.1496038093472266e-05
-0.010778741733972422,-0.0005679185247428023,-1.1778667802078089e-05
-0.011057502511027993,-0.0005733775858040524,-1.2063991829714803e-05
-0.01132922947835446,-0.000578974268801398,-1.2352079793366165e-05
-0.011592870845537968,-0.0005847047938823711,-1.2642999559037108e-05
-0.011847490252411146,-0.0005905648841568584,-1.2936816978546916e-05
-0.01209226265496511,-0.0005965498223837025,-1.3233595655182056e-05
-0.012326470285437428,-0.0006026545056188031,-1.3533396737182683e-05
-0.012549498725157758,-0.0006088734978714519,-1.3836278738055247e-05
-0.012760833124182447,-0.0006152010808337869,-1.4142297382731556e-05
-0.012960054585912786,-0.0006216313027613108,-1.445150547863033e-05
-0.013146836707501575,-0.0006281580255846643,-1.4763952810716823e-05
-0.013320942237719725,-0.0006347749703209697,-1.5079686059693231e-05
-0.013482219793506696,-0.0006414757608287762,-1.539874874248067e-05
-0.013630600563500472,-0.0006482539659180281,-1.572118117416737e-05
-0.013766094913201863,-0.0006551031397872037,-1.604702045059368e-05
-0.013888788793972756,-0.0006620168607139973,-1.637630045071898e-05
-0.013998839861030513,-0.0006689887678777482,-1.6709051857866914e-05
-0.014096473232386003,-0.0006760125961511023,-1.7045302198874127e-05
-0.014181976863820523,-0.0006830822086751539,-1.7385075900080692e-05
-0.014255696561169214,-0.0006901916270314013,-1.772839435900733e-05
-0.014318030691149826,-0.0006973350588444811,-1.80752760304763e-05
-0.014369424678551443,-0.0007045069226869065,-1.842573652585915e-05
-0.014410365386480044,-0.0007117018702031644,-1.8779788724081666e-05
-0.014441375470590167,-0.0007189148054174319,-1.9137442892986815e-05
-0.014463007784693525,-0.0007261409012312528,-1.9498706819648985e-05
-0.014475839898680462,-0.0007333756131520963,-1.9863585948244822e-05
-0.014480468773763444,-0.0007406146903202074,-2.0232083524112897e-05
-0.014477505625449139,-0.0007478541839200105,-2.060420074267295e-05
-0.014467570990428282,-0.0007550904530739798,-2.097993690192145e-05
-0.014451290004399668,-0.0007623201683226869,-2.1359289557270617e-05
-0.014429287901153005,-0.000769540312799075,-2.1742254677551058e-05
-0.014402185755893209,-0.0007767481812133366,-2.212882680105416e-05
-0.01437059650320146,-0.0007839413767781103,-2.251899919055202e-05
-0.014335121251304905,-0.0007911178062167369,-2.2912763986300733e-05
-0.014296345891782294,-0.0007982756730025086,-2.3310112356105545e-05
-0.014254837980395401,-0.0008054134689705531,-2.371103464159881e-05
-0.014211143854766002,-0.0008125299644293434,-2.4115520499948784e-05
-0.014165785961633485,-0.0008196241968834433,-2.452355904027698e-05
-0.014119260379947499,-0.0008266954584688385,-2.493513895411505e-05
-0.014072034534306109,-0.0008337432821974019,-2.535024863928161e-05
-0.014024545095886111,-0.00084076742710495,-2.5768876316607198e-05
-0.013977196070081754,-0.0008477678623964419,-2.6191010138982546e-05
-0.013930357070086165,-0.0008547447506814839,-2.6616638292252028e-05
-0.013884361772877442,-0.0008616984303922248,-2.7045749087520453e-05
-0.013839506558833424,-0.0008686293974751525,-2.7478331044487298e-05
-0.013796049355922962,-0.0008755382864538416,-2.7914372965469548e-05
-0.013754208731703693,-0.0008824258509757483,-2.8353863999826946e-05
-0.013714163283070884,-0.0008892929439794419,-2.8796793698565743e-05
-0.013676051362482103,-0.0008961404976408302,-2.924315205897081e-05
-0.013639971163947643,-0.0009029695032724376,-2.9692929559199128e-05
-0.01360598118488581,-0.000909780991359646,-3.014611718285715e-05
-0.01357410107988919,-0.0009165760119258398,-3.060270643367852e-05
-0.013544312917419152,-0.0009233556154251668,-3.106268934051627e-05
-0.013516562831225295,-0.0009301208343623279,-3.152605845296314e-05
-0.013490763028899146,-0.000936872665827359,-3.1992806828010565e-05
-0.013466794094602613,-0.0009436120551082344,-3.2462928008244463e-05
-0.013444507515773576,-0.0009503398805108284,-3.293641599214923e-05
-0.013423728377881316,-0.0009570569394842422,-3.3413265197147994e-05
-0.013404258198436575,-0.0009637639361283216,-3.389347041605113e-05
-0.01338587790193854,-0.0009704614701534154,-3.4377026767621566e-05
-0.013368350964784823,-0.0009771500273700962,-3.4863929642002445e-05
-0.013351426775437353,-0.0009838299718051516,-3.535417464179626e-05
-0.013334844252070864,-0.0009905015395620287,-3.584775751963805e-05
-0.013318335738765542,-0.0009971648345597378,-3.6344674113168494e-05
-0.013301631173213894,-0.0010038198262877327,-3.6844920278380365e-05
-0.013284462495887757,-0.001010466349705008,-3.734849182237855e-05
-0.013266568258117764,-0.0010171041073935095,-3.7855384436653175e-05
-0.013247698381195753,-0.0010237326740533377,-3.8365593632014885e-05
-0.013227619012219064,-0.0010303515034016915,-3.887911467637864e-05
-0.01320611740717052,-0.0010369599375065388,-3.93959425366057e-05
-0.01318300674626676,-0.0010435572185448982,-3.991607182561856e-05
-0.013158130760815666,-0.0010501425029216687,-4.04394967559852e-05
-0.01313136803935809,-0.0010567148776217121,-4.096621110112105e-05
-0.013102635890507048,-0.0010632733786041784,-4.149620816517752e-05
-0.01307189366289015,-0.0010698170109925277,-4.20294807625767e-05
-0.013039145445356216,-0.0010763447707695893,-4.2566021208017234e-05
-0.013004442088507756,-0.0010828556676530554,-4.3105821317622895e-05
-0.012967882508292986,-0.0010893487488022556,-4.364887242173672e-05
-0.012929614258273209,-0.001095823122993897,-4.419516538968576e-05
-0.012889833383876543,-0.0011022779849044345,-4.474469066666034e-05
-0.012848783591185214,-0.0011087126391482,-4.52974383226735e-05
-0.012806754770558666,-0.001115126523738636,-4.585339811339521e-05
-0.01276408091136355,-0.0011215192326591164,-4.641255955249465e-05
-0.012721137430368666,-0.0011278905372445495,-4.697491199497057e-05
-0.012678337920493523,-0.0011342404060822652,-4.7540444730802277e-05
-0.012636130320652611,-0.0011405690231425516,-4.810914708810848e-05
-0.012594992519104418,-0.0011468768038524909,-4.868100854485724e-05
-0.012555427427572728,-0.0011531644088391602,-4.9256018848030156e-05
-0.012517957587096456,-0.0011594327550928274,-4.9834168139013154e-05
-0.01248311937836739,-0.0011656830243341933,-5.041544708386991e-05
-0.012451456911319613,-0.001171916668406615,-5.0999847007055115e-05
-0.012423515667334704,-0.0011781354115512786,-5.158736002704459e-05
-0.012399835963096026,-0.0011843412494588863,-5.217797919229713e-05
-0.01238094629683211,-0.0011905364450238683,-5.2771698615917815e-05
-0.012367356631320225,-0.0011967235207559063,-5.336851360736276e-05
-0.012359551672408275,-0.0012029052478318384,-5.3968420799509694e-05
-0.012357984218002363,-0.001209084631804441,-5.4571418269418765e-05
-0.012363068669261141,-0.0012152648950262569,-5.5177505651126436e-05
-0.012375174797432803,-0.0012214494558929303,-5.578668423885623e-05
-0.012394621841661515,-0.0012276419050527038,-5.639895707909264e-05
-0.01242167298690838,-0.0012338459787598463,-5.7014329050045776e-05
-0.012456530253522969,-0.0012400655295699541,-5.7632806927128225e-05
-0.012499329827212215,-0.0012463044945901379,-5.825439943316825e-05
-0.012550137862986472,-0.0012525668615126875,-5.887911727219396e-05
-0.012608946797922556,-0.0012588566326779147,-5.950697314574161e-05
-0.012675672200380315,-0.0012651777874274903,-6.0137981750767965e-05
-0.012750150172544255,-0.0012715342430207215,-6.077215975838002e-05
-0.012832135313250285,-0.0012779298143921702,-6.140952577273325e-05
-0.012921299237755517,-0.0012843681730299217,-6.205010026958876e-05
-0.013017229641770703,-0.0012908528052498034,-6.26939055141587e-05
-0.013119429896589577,-0.0012973869701343934,-6.334096545800475e-05
-0.013227319175153,-0.0013039736574023291,-6.399130561488892e-05
-0.013340233131299622,-0.0013106155454789422,-6.464495291560924e-05
-0.01345742517894976,-0.0013173149600565045,-6.530193554199311e-05
-0.013578068437820114,-0.001324073833460697,-6.59622827403724e-05
-0.013701258418275646,-0.001330893665174721,-6.662602461503125e-05
-0.013826016502066751,-0.0013377754839048064,-6.729319190230113e-05
-0.01395129424333285,-0.0013447198115911563,-6.796381572617512e-05
-0.014075978484409985,-0.001351726629773092,-6.863792733651618e-05
-0.014198897267815352,-0.0013587953487111484,-6.931555783113725e-05
-0.01431882652698662,-0.001365924779659849,-6.999673786323e-05
-0.014434497543988584,-0.0013731131106775928,-7.068149733581436e-05
-0.014544605162868148,-0.001380357886354307,-7.136986508507233e-05
-0.014647816733004089,-0.0013876559918282751,-7.206186855461797e-05
-0.014742781724099934,-0.0013950036414425511,-7.275753346293567e-05
-0.014828141913832703,-0.0014023963723520342,-7.345688346638431e-05
-0.014902542017061102,-0.0014098290433347577,-7.415993982030602e-05
-0.01496464060783584,-0.001417295838990982,-7.486672104088745e-05
-0.015013121174261889,-0.0014247902794365065,-7.557724257049432e-05
-0.015046703131846813,-0.0014323052355130336,-7.62915164492317e-05
-0.015064152604698037,-0.0014398329494471698,-7.700955099547176e-05
-0.015064292780312714,-0.0014473650607934225,-7.773135049803192e-05
-0.015046013666240584,-0.0014548926374050608,-7.845691492258154e-05
-0.015008281122417205,-0.0014624062111022252,-7.918623963470835e-05
-0.014950145095907036,-0.0014698958176568063,-7.991931514189811e-05
-0.014870747033053681,-0.0014773510406890465,-8.065612685648457e-05
-0.014769326482741277,-0.0014847610590679953,-8.139665488142383e-05
-0.01464522692624303,-0.0014921146974202415,-8.214087382054589e-05
-0.014497900865946305,-0.001499400479368289,-8.288875261474303e-05
-0.014326914182124739,-0.0015066066831303066,-8.364025440536767e-05
-0.014131949740497354,-0.0015137213991109622,-8.439533642592799e-05
-0.01391281021531374,-0.001520732589099915,-8.51539499229807e-05
-0.013669420083027031,-0.0015276281466745003,-8.591604010692431e-05
-0.013401826735754348,-0.0015343959583791957,-8.668154613318774e-05
-0.013110200663321121,-0.0015410239652289646,-8.745040111408978e-05
-0.012794834665955126,-0.0015475002240612837,-8.822253216141233e-05
-0.012456142091164473,-0.0015538129682505636,-8.89978604594903e-05
-0.012094654131177555,-0.0015599506673061492,-8.977630136837947e-05
-0.011711016255463239,-0.0015659020849028095,-9.055776455643171e-05
-0.011305983873004683,-0.0015716563349349264,-9.134215416139114e-05
-0.010880417322061858,-0.001577202935233693,-9.212936897893329e-05
-0.01043527628120769,-0.0015825318586345104,-9.291930267740034e-05
-0.009971613689747461,-0.0015876335811272492,-9.371184403734078e-05
-0.009490569255426944,-0.0015924991268635427,-9.450687721433847e-05
-0.008993362609714294,-0.001597120109829828,-9.530428202351181e-05
-0.008481286149726111,-0.001601488772019688,-9.610393424397419e-05
-0.007955697589415419,-0.0016055980179544734,-9.690570594146773e-05
-0.007418012237972968,-0.0016094414454113205,-9.770946580730917e-05
-0.006869695031604377,-0.0016130133722287148,-9.851507951171918e-05
-0.006312252363273406,-0.0016163088590774343,-9.932241006954571e-05
-0.005747223777468435,-0.0016193237281126197,-0.00010013131821634323
-0.0051761736120842505,-0.001622054577460008,-0.00010094166279273639
-0.004600682666429198,-0.0016244987915296364,-0.00010175330113498381
-0.004022339953149719,-0.0016266545471845311,-0.00010256608946966236
-0.0034427345610905996,-0.0016285208158130912,-0.00010337988331041177
-0.00286344762859435,-0.0016300973613605123,-0.00010419453785470516
-0.0022860444156290534,-0.0016313847343715682,-0.00010500990837863819
-0.0017120664722324827,-0.0016323842620935335,-0.00010582585062775447
-0.0011430239157659621,-0.0016330980346905331,-0.00010664222120195049
-0.0005803878344068863,-0.0016335288876280763,-0.00010745887793253014
-2.558283410614621e-05,-0.0016336803802952046,-0.00010827568024951097
0.0005200202425850549,-0.001633556770943085,-0.00010909248953732054
0.0010551113717665787,-0.001633162988039497,-0.00010990916947706619
0.0015784480985527555,-0.0016325045981719173,-0.00011072558637361905
0.002088861894876195,-0.00163158777067356,-0.00011154160946583042
0.002585264045006884,-0.0016304192391885892,-0.00011235711121829596
0.003066650994980356,-0.0016290062604285924,-0.00011317196759320026
0.0035321091191387387,-0.0016273565704000626,-0.00011398605830090743
0.003980818871566291,-0.0016254783384023863,-0.00011479926702810804
0.0044120582983513314,-0.0016233801191099068,-0.00011561148164248611
0.004825205883576285,-0.001621070803064425,-0.0001164225943730297
0.005219742686712322,-0.0016185595659218527,-0.00011723250196527626
0.005595253710097537,-0.0016158558168226501,-0.00011804110581096239
0.005951428426574669,-0.001612969146288482,-0.00011884831205174017
0.006288060408014444,-0.0016099092740798349,-0.00011965403165683226
0.006605046022830466,-0.0016066859974721236,-0.00012045818047472024
0.00690238220463638,-0.001603309140415257,-0.0001212606792591921
0.007180163324869547,-0.0015997885040328805,-0.00012206145367030413
0.0074385772268353995,-0.0015961338188949542,-0.0001228604342510361
0.007677900501991017,-0.0015923546994627477,-0.00012365755638062552
0.007898493111676688,-0.0015884606010593309,-0.00012445276020575603
0.00810079247072854,-0.0015844607796637296,-0.0001252459905509368
0.008285307110024615,-0.0015803642547685412,-0.00012603719680954488
0.008452610033015798,-0.001576179775482781,-0.00012682633281710772
0.008603331886744203,-0.001571915790002841,-0.00012761335670847913
0.008738154074362377,-0.0015675804185125643,-0.000128398230760608
0.008857801927644817,-0.0015631814295120625,-0.00012918092122261415
0.008963038029480811,-0.001558726219522781,-0.00012996139813487286
0.009054655742387363,-0.001554221796079814,-0.00013073963513877352
0.009133472978044196,-0.001549674763899706,-0.0001315156092787684
0.009200326239979142,-0.0015450913140952003,-0.00013228930079826713
0.009256064979269299,-0.0015404772162903881,-0.00013306069293086354
0.009301546309690425,-0.0015358378134681483,-0.00013382977168830318
0.009337630123310497,-0.001531178019359898,-0.0001345965256465102
0.009365174628686863,-0.0015265023181718987,-0.00013536094573089313
0.009385032310242559,-0.0015218147664371664,-0.0001361230250020454
0.009398046286777189,-0.0015171189967879114,-0.00013688275844285166
0.009405047034171199,-0.0015124182234576742,-0.00013764014274791306
0.009406849437537163,-0.0015077152493397472,-0.00013839517611611242
0.009404250151481797,-0.0015030124744424924,-0.000139147858047058
0.009398025266049787,-0.0014983119055881095,-0.00013989818914206565
0.00938892829469964,-0.0014936151671979222,-0.00014064617091026215
0.009377688518405938,-0.0014889235129946457,-0.0001413918055803103
0.009365009729655115,-0.0014842378384326304,-0.00014213509591816712
0.009351569412502196,-0.0014795586936470911,-0.00014287604505118704
0.009338018369825098,-0.0014748862967015092,-0.0001436146562987742
0.0093249807753085,-0.0014702205469152257,-0.00014435093300967837
0.009313054592811188,-0.0014655610380731958,-0.00014508487840592547
0.009302812271926383,-0.0014609070713570114,-0.00014581649543328302
0.009294801599028598,-0.0014562576678892726,-0.0001465457866180946
0.009289546564197757,-0.0014516115808484661,-0.00014727275393027904
0.009287548102709764,-0.0014469673071817392,-0.00014799739865228658
0.009289284587441387,-0.0014423230990092014,-0.0001487197212538343
0.009295211982957147,-0.0014376769748666017,-0.00014943972127230327
0.009305763619202398,-0.0014330267309660618,-0.00015015739719876142
0.009321349595299603,-0.0014283699526624362,-0.00015087274636966854
0.009342355867563283,-0.0014237040262967205,-0.00015158576486440833
0.009369143095009882,-0.0014190261515560772,-0.00015229644740887154
0.009402045307962566,-0.001414333354455334,-0.00015300478728537439
0.009441368445308506,-0.0014096225010170162,-0.00015371077624924247
0.009487388790311862,-0.0014048903117081111,-0.00015441440445242374
0.009540351325582381,-0.0014001333766791376,-0.00015511566037452055
0.009600468017136916,-0.0013953481718434577,-0.0001558145307616512
0.009667916027207072,-0.0013905310758323716,-0.00015651100057357016
0.009742835860183418,-0.001385678387860524,-0.0001572050529394934
