frame_number,force
0,721.3876006265161
1,721.3159251931648
2,721.2435149113604
3,721.170441081372
4,721.0967731768662
5,721.0225788631689
6,720.9479240493519
7,720.8728729694553
8,720.797488288646
9,720.7218312299042
10,720.6459617160834
11,720.5699385216737
12,720.4938194288085
13,720.4176613829937
14,720.3415206453968
15,720.2654529398071
16,720.189513593176
17,720.1137576689546
18,720.0382400924665
19,719.9630157672063
20,719.8881396801656
21,719.8136669934095
22,719.7396531186506
23,719.6661537716577
24,719.5932250038554
25,719.5209232092178
26,719.4493051053436
27,719.3784276884318
28,719.3083481627631
29,719.2391238459874
30,719.1708120517235
31,719.1034699507434
32,719.0371544115126
33,718.9719218201125
34,718.90782787882
35,718.8449273825915
36,718.7832739738191
37,718.7229198774261
38,718.663915619714
39,718.6063097351208
40,718.5501484659492
41,718.4954754617288
42,718.4423314867363
43,718.3907541451575
44,718.3407776327383
45,718.2924325216943
46,718.2457455828475
47,718.2007396460992
48,718.157433497816
49,718.1158418116026
50,718.0759751074266
51,718.0378397334702
52,718.0014378656731
53,717.9667675213178
54,717.9338225845944
55,717.9025928435298
56,717.8730640389222
57,717.8452179268911
58,717.8190323571321
59,717.7944813689213
60,717.7715353067643
61,717.7501609578184
62,717.7303217136097
63,717.7119777581585
64,717.6950862827067
65,717.6796017241298
66,717.6654760208629
67,717.6526588779282
68,717.6410980320956
69,717.6307395094216
70,717.6215278699092
71,717.6134064368661
72,717.6063175106848
73,717.6002025678769
74,717.595002446618
75,717.5906575201161
76,717.5871078586306
77,717.5842933800104
78,717.5821539878909
79,717.5806296968328
80,717.5796607444663
81,717.5791876912341
82,717.5791515080422
83,717.5794936511148
84,717.5801561220549
85,717.5810815101197
86,717.5822130136359
87,717.5834944383794
88,717.584870172099
89,717.586285135402
90,717.5876847096238
91,717.5890146424965
92,717.5902209331689
93,717.5912496994262
94,717.5920470309835
95,717.5925588329565
96,717.5927306634682
97,717.5925075694153
98,717.5918339245793
99,717.5906532740181
100,717.5889081878119
101,717.5865401261774
102,717.5834893172529
103,717.5796946488814
104,717.5750935765611
105,717.5696220510273
106,717.5632144698736
107,717.5558036575466
108,717.5473208771019
109,717.5376958761801
110,717.5268569694638
111,717.5147311603971
112,717.5012443055799
113,717.4863213253992
114,717.4698864640753
115,717.4518636020605
116,717.4321766242435
117,717.4107498481003
118,717.3875085152482
119,717.3623793468477
120,717.3352911584903
121,717.306175525179
122,717.2749674829242
123,717.2416062507527
124,717.2060359555219
125,717.1682063418202
126,717.128073450363
127,717.0856002506866
128,717.0407572172182
129,716.9935228410699
130,716.9438840726432
131,716.8918366925642
132,716.8373856107178
133,716.7805450947468
134,716.7213389299636
135,716.659800512619
136,716.595972878648
137,716.5299086705294
138,716.4616700452792
139,716.3913285264491
140,716.3189648023282
141,716.2446684716418
142,716.1685377373161
143,716.0906790488756
144,716.0112066949305
145,715.930242348384
146,715.8479145676513
147,715.7643582571775
148,715.6797140903503
149,715.5941278979647
150,715.5077500257245
151,715.420734664733
152,715.3332391595202
153,715.2454232988147
154,715.1574485946304
155,715.0694775549821
156,714.9816729547518
157,714.8941971083666
158,714.8072111474023
159,714.7208743061733
160,714.6353432190531
161,714.5507712347666
162,714.4673077543747
163,714.3850975999121
164,714.3042804193967
165,714.224990132286
166,714.1473544185503
167,714.0714942545799
168,713.9975234996958
169,713.9255485375663
170,713.8556679768844
171,713.7879724150006
172,713.7225442671411
173,713.6594576630832
174,713.5987784131389
175,713.5405640458227
176,713.4848639198933
177,713.431719412697
178,713.3811641846561
179,713.3332245170069
180,713.2879197176132
181,713.2452625882743
182,713.2052599458866
183,713.1679131883577
184,713.133218894248
185,713.1011694433221
186,713.0717536440296
187,713.0449573536195
188,713.020764077272
189,712.9991555342126
190,712.9801121805438
191,712.9636136798862
192,712.949639314202
193,712.9381683292348
194,712.9291802120027
195,712.9226549010247
196,712.9185729326513
197,712.9169155287557
198,712.9176646324003
199,712.9208028993711
200,712.9263136546168
201,712.9341808230301
202,712.9443888431001
203,712.9569225698763
204,712.9717671711796
205,712.9889080187736
206,713.0083305745848
207,713.0300202710232
208,713.053962383932
209,713.0801418968479
210,713.1085433563017
211,713.139150719469
212,713.1719471964955
213,713.2069150894639
214,713.2440356286395
215,713.2832888054327
216,713.3246532013309
217,713.368105813139
218,713.4136218765716
219,713.4611746912531
220,713.5107354498998
221,713.5622730737242
222,713.6157540559532
223,713.6711423157526
224,713.7283990651193
225,713.7874826912022
226,713.8483486561288
227,713.9109494157552
228,713.975234357858
229,714.0411497593227
230,714.1086387609885
231,714.1776413581773
232,714.2480944049042
233,714.319931630579
234,714.3930836694982
235,714.4674781049283
236,714.5430395304926
237,714.6196896319466
238,714.6973472928638
239,714.7759287284545
240,714.8553476522376
241,714.9355154801119
242,715.0163415754706
243,715.0977335373697
244,715.1795975313735
245,715.2618386599081
246,715.3443613664366
247,715.4270698660688
248,715.5098685944293
249,715.5926626665398
250,715.6753583381146
251,715.7578634633147
252,715.8400879454822
253,715.9219441796296
254,716.0033474863955
255,716.0842165366635
256,716.1644737647479
257,716.244045766808
258,716.3228636805053
259,716.400863542034
260,716.4779866175866
261,716.5541797080334
262,716.6293954274607
263,716.7035924569524
264,716.7767357737802
265,716.8487968534923
266,716.9197538395237
267,716.989591672759
268,717.058302172359
269,717.125884059508
270,717.1923429177946
271,717.2576910871379
272,717.3219474914234
273,717.385137402279
274,717.4472921423285
275,717.5084487311566
276,717.5686494769802
277,717.6279415174788
278,717.6863763146374
279,717.744009110237
280,717.8008983498435
281,717.8571050832367
282,717.9126923484702
283,717.9677245458206
284,718.0222668068952
285,718.0763843628611
286,718.1301419143768
287,718.1836030051244
288,718.2368294013529
289,718.2898804814195
290,718.3428126413937
291,718.3956787247616
292,718.4485274854873
293,718.5014030938329
294,718.5543446934819
295,718.6073860170324
296,718.6605550650222
297,718.7138738513722
298,718.7673582158163
299,718.821017702126
300,718.8748555002749
301,718.9288684513524
302,718.9830471154689
303,719.0373759036112
304,719.091833273308
305,719.1463919855045
306,719.201019417571
307,719.2556779257329
308,719.3103252495455
309,719.3649149510738
310,719.4193968815102
311,719.4737176677396
312,719.5278212111983
313,719.5816491916446
314,719.6351415690503
315,719.6882370775916
316,719.7408737066547
317,719.7929891646689
318,719.8445213221713
319,719.8954086309546
320,719.9455905166456
321,719.9950077426005
322,720.0436027434839
323,720.0913199273451
324,720.1381059455011
325,720.1839099300354
326,720.2286836991814
327,720.2723819313445
328,720.3149623091921
329,720.3563856360714
330,720.3966159276437
331,720.4356204817282
332,720.4733699289882
333,720.5098382666007
334,720.5450028767006
335,720.5788445312146
336,720.6113473845286
337,720.6424989550449
338,720.672290096054
339,720.7007149555318
340,720.7277709236715
341,720.7534585666285
342,720.7777815456207
343,720.80074652202
344,720.8223630505286
345,720.842643463374
346,720.8616027487143
347,720.8792584260634
348,720.8956304201813
349,720.9107409327879
350,720.9246143096656
351,720.9372768998621
352,720.9487569035912
353,720.9590842060281
354,720.9682901959441
355,720.9764075707487
356,720.9834701317056
357,720.9895125737798
358,720.9945702738926
359,720.9986790799054
360,721.0018751008864
361,721.0041944976718
362,721.0056732721849
363,721.0063470546487
364,721.006250889026
365,721.005419017799
366,721.0038846672809
367,721.0016798343682
368,720.9988350755375
369,720.9953792994578
370,720.9913395658341
371,720.9867408942093
372,720.9816060866644
373,720.975955567725
374,720.9698072438069
375,720.9631763834055
376,720.9560755181611
377,720.948514364534
378,720.9404997665057
379,720.9320356609039
380,720.9231230676382
381,720.9137601070987
382,720.9039420468505
383,720.893661379876
384,720.8829079367863
385,720.8716690345316
386,720.8599296642998
387,720.8476727212942
388,720.8348792782876
389,720.8215289027581
390,720.807600014243
391,720.7930702752293
392,720.7779170063342
393,720.7621176149536
394,720.7456500257753
395,720.7284931015702
396,720.7106270437938
397,720.6920337647481
398,720.6726972254758
399,720.6526037348611
400,720.631742205255
401,720.6101043595029
402,720.5876848847649
403,720.5644815299081
404,720.5404951448608
405,720.5157296619573
406,720.4901920211253
407,720.4638920426621
408,720.4368422529075
409,720.4090576690827
410,720.3805555499478
411,720.3513551189036
412,720.3214772659402
413,720.2909442346831
414,720.2597793009497
415,720.2280064495868
416,720.1956500565966
417,720.1627345834596
418,720.1292842900712
419,720.0953229717534
420,720.060873724323
421,720.0259587391653
422,719.9905991278996
423,719.9548147742479
424,719.9186242100733
425,719.8820445133586
426,719.8450912271635
427,719.8077782993441
428,719.7701180429673
429,719.7321211174194
430,719.6937965305374
431,719.6551516626575
432,719.6161923140489
433,719.576922777453
434,719.537345937183
435,719.4974633955142
436,719.4572756263133
437,719.416782155224
438,719.3759817650133
439,719.3348727236769
440,719.2934530318802
441,719.25172068569
442,719.2096739504292
443,719.1673116414586
444,719.1246334072697
445,719.0816400094168
446,719.0383335928857
447,718.9947179397234
448,718.9507986983515
449,718.9065835813934
450,718.8620825261928
451,718.8173078139837
452,718.7722741454586
453,718.7269986723211
454,718.6815009862614
455,718.6358030682808
456,718.5899292022032
457,718.5439058567341
458,718.4977615406058
459,718.4515266349287
460,718.4052332057919
461,718.3589147989991
462,718.3126062184031
463,718.266343289914
464,718.2201626145298
465,718.1741013150938
466,718.1281967824796
467,718.0824864273695
468,718.0370074437102
469,717.9917965893359
470,717.9468899882032
471,717.9023229575557
472,717.858129862833
473,717.8143440035346
474,717.7709975339858
475,717.7281214231818
476,717.6857454570492
477,717.6438982843581
478,717.6026075044497
479,717.5618997917019
480,717.5218010490702
481,717.4823365815123
482,717.443531279843
483,717.4054098065509
484,717.3679967768662
485,717.3313169301038
486,717.2953952874177
487,717.2602572925944
488,717.2259289329181
489,717.1924368378948
490,717.159808354571
491,717.1280715989622
492,717.0972554837015
493,717.0673897227797
494,717.0385048151114
495,717.0106320091132
496,716.9838032500545
497,716.9580511109011
498,716.933408706277
499,716.9099095881629
500,716.8875876210278
501,716.8664768337255
502,716.8466112462628
503,716.8280246711197
504,716.8107504901378
505,716.7948214085269
506,716.780269187804
507,716.7671243602656
508,716.7554159288399
509,716.7451710570139
510,716.7364147532584
511,716.7291695531815
512,716.7234552015262
513,716.7192883359922
514,716.7166821756196
515,716.7156462172985
516,716.7161859443813
517,716.7183025515086
518,716.721992689699
519,716.7272482353852
520,716.734056086351
521,716.742397986305
522,716.7522503780624
523,716.7635842835822
524,716.7763652083087
525,716.7905530676953
526,716.8061021351679
527,716.8229610126853
528,716.841072626942
529,716.8603742554918
530,716.8807975874289
531,716.9022688229721
532,716.9247088156585
533,716.948033260083
534,716.972152927227
535,716.9969739481323
536,717.0223981448395
537,717.048323405643
538,717.0746441008462
539,717.1012515356595
540,717.1280344378115
541,717.1548794776337
542,717.1816718175164
543,717.208295686135
544,717.2346349713094
545,717.2605738244134
546,717.2859972694094
547,717.3107918107391
548,717.3348460355643
549,717.3580512064522
550,717.3803018407688
551,717.401496273685
552,717.4215372031275
553,717.4403322165615
554,717.457794300486
555,717.4738423339812
556,717.4884015679468
557,717.5014040917422
558,717.5127892884584
559,717.5225042788861
560,717.530504352481
561,717.5367533814492
562,717.5412242119852
563,717.5438990251776
564,717.544769659302
565,717.543837885031
566,717.541115625287
567,717.5366251118343
568,717.5303989713483
569,717.5224802348401
570,717.5129222658026
571,717.5017886040321
572,717.4891527239661
573,717.4750977087616
574,717.4597158436666
575,717.4431081335493
576,717.4253837496526
577,717.406659410468
578,717.3870587016661
579,717.3667113401264
580,717.345752386939
581,717.3243214137136
582,717.3025616258043
583,717.2806189452258
584,717.258641055277
585,717.236776408889
586,717.215173204256
587,717.1939783343016
588,717.1733363199011
589,717.1533882395183
590,717.1342706697664
591,717.1161146523821
592,717.0990447030441
593,717.0831778762141
594,717.0686228980136
595,717.0554793764837
596,717.0438370960112
597,717.0337754010375
598,717.0253626737488
599,717.0186559105582
600,717.0137004018331
601,717.010529518264
602,717.0091646059965
603,717.0096149915772
604,717.0118780969372
605,717.0159396638059
606,717.0217740857696
607,717.0293448443849
608,717.038605043271
609,717.0494980313894
610,717.0619581046888
611,717.0759112745848
612,717.0912760921036
613,717.1079645171594
614,717.125882822925
615,717.1449325257445
616,717.1650113315912
617,717.1860140903269
618,717.2078337486047
619,717.2303622913721
620,717.2534916612783
621,717.277114645464
622,717.3011257201664
623,717.3254218447335
624,717.3499031975529
625,717.3744738470691
626,717.3990423518271
627,717.4235222845456
628,717.4478326767266
629,717.4718983824301
630,717.4956503625315
631,717.519025893474
632,717.5419687065782
633,717.5644290651871
634,717.5863637874922
635,717.6077362230931
636,717.6285161914814
637,717.6486798907835
638,717.6682097850377
639,717.6870944777606
640,717.7053285783572
641,717.7229125658802
642,717.7398526518616
643,717.7561606411285
644,717.7718537875012
645,717.7869546404476
646,717.8014908791453
647,717.8154951317262
648,717.8290047790791
649,717.8420617437534
650,717.8547122650021
651,717.8670066607341
652,717.8789990759997
653,717.8907472161192
654,717.9023120616605
655,717.9137575624923
656,717.925150308307
657,717.9365591726677
658,717.9480549273212
659,717.9597098241837
660,717.9715971440615
661,717.9837907131599
662,717.996364390429
663,718.0093915307699
664,718.0229444305166
665,718.0370937615037
666,718.051907998415
667,718.0674528422612
668,718.0837906421481
669,718.1009798182737
670,718.1190742905595
671,718.138122918429
672,718.1581689574368
673,718.1792495380532
674,718.2013951717786
675,718.2246292903993
676,718.2489678254262
677,718.2744188360174
678,718.3009821941973
679,718.3286493354501
680,718.3574030811035
681,718.387217537162
682,718.4180580728374
683,718.4498813808088
684,718.482635619924
685,718.5162606395969
686,718.5506882836324
687,718.5858427695764
688,718.6216411379299
689,718.6579937640562
690,718.6948049248111
691,718.731973411872
692,718.7693931839108
693,718.8069540497386
694,718.8445423742952
695,718.8820417991257
696,718.9193339691197
697,718.9562992581873
698,718.9928174884228
699,719.0287686400467
700,719.0640335522814
701,719.0984946172779
702,719.132036469592
703,719.1645466726737
704,719.1959164018338
705,719.2260411206646
706,719.25482124549
707,719.2821627907056
708,719.3079779871429
709,719.3321858656997
710,719.354712799077
711,719.3754929952079
712,719.3944689367615
713,719.4115917620234
714,719.4268215834112
715,719.4401277407867
716,719.4514889876858
717,719.4608936097452
718,719.4683394756051
719,719.4738340210331
720,719.4773941670471
721,719.479046172849
722,719.4788254245001
723,719.4767761602991
724,719.472951133788
725,719.4674112154662
726,719.4602249347458
727,719.451467964355
728,719.4412225503856
729,719.4295768926131
730,719.4166244813956
731,719.4024633989851
732,719.3871955941247
733,719.3709261393305
734,719.3537624803952
735,719.3358136876254
736,719.3171897181958
737,719.2980006986493
738,719.2783562361525
739,719.2583647669658
740,719.2381329506225
741,719.2177651178271
742,719.1973627785457
743,719.1770241943137
744,719.1568440159405
745,719.1369129849895
746,719.1173176949052
747,719.0981404056594
748,719.0794589047316
749,719.061346407401
750,719.0438714903547
751,719.0270980535029
752,719.0110853047909
753,718.9958877618175
754,718.981555262968
755,718.9681329802642
756,718.9556614265196
757,718.9441764509078
758,718.9337092197107
759,718.9242861821546
760,718.9159290238653
761,718.9086546119161
762,718.9024749356538
763,718.8973970470871
764,718.8934230045911
765,718.8905498246226
766,718.88876944764
767,718.8880687255961
768,718.8884294385425
769,718.889828346822
770,718.892237283256
771,718.8956232873788
772,718.899948781814
773,718.9051717895239
774,718.9112461896791
775,718.9181220090007
776,718.9257457444235
777,718.9340607118195
778,718.9430074147286
779,718.9525239271054
780,718.9625462850765
781,718.97300888402
782,718.9838448783914
783,718.9949865824804
784,719.0063658706409
785,719.0179145755079
786,719.0295648824413
787,719.0412497182266
788,719.0529031321936
789,719.0644606686174
790,719.0758597303911
791,719.087039934827
792,719.0979434623109
793,719.1085153973243
794,719.1187040596501
795,719.1284613220105
796,719.1377429091436
797,719.1465086725791
798,719.1547228353875
799,719.1623542021396
800,719.1693763309449
801,719.175767666028
802,719.1815116300851
803,719.1865966754868
804,719.1910162928154
805,719.19476897501
806,719.1978581359415
807,719.2002919835104
808,719.2020833489736
809,719.203249475593
810,719.2038117705517
811,719.2037955245702
812,719.2032296038532
813,719.202146118532
814,719.2005800704044
815,719.1985689811208
816,719.1961525010888
817,719.1933719999452
818,719.1902701413521
819,719.1868904473263
820,719.1832768593762
821,719.1794733046856
822,719.1755232751676
823,719.1714694255791
824,719.1673531944846
825,719.1632144494754
826,719.1590911566781
827,719.1550190748451
828,719.1510314758591
829,719.1471588952791
830,719.1434289177438
831,719.1398660022153
832,719.1364913511122
833,719.1333228256907
834,719.1303749081166
835,719.127658708874
836,719.1251820166027
837,719.1229493863943
838,719.1209622621344
839,719.1192191283038
840,719.1177156862938
841,719.1164450497565
842,719.1153979533871
843,719.1145629702082
844,719.1139267335475
845,719.113474160609
846,719.1131886744887
847,719.1130524210873
848,719.1130464772682
849,719.1131510469493
850,719.113345642522
851,719.113609249939
852,719.1139204769084
853,719.1142576847683
854,719.1145991057244
855,719.1149229480717
856,719.1152074926334
857,719.1154311838926
858,719.1155727191516
859,719.1156111385334
860,719.11552591777
861,719.1152970645614
862,719.1149052177874
863,719.1143317471161
864,719.1135588489515
865,719.1125696335521
866,719.1113481976005
867,719.1098796762774
868,719.1081502687533
869,719.1061472309145
870,719.1038588295305
871,719.101274253472
872,719.0983834798985
873,719.0951770956988
874,719.0916460760427
875,719.087781522652
876,719.0835743649696
877,719.0790150284311
878,719.0740930755549
879,719.068796827331
880,719.0631129741795
881,719.0570261872954
882,719.0505187420927
883,719.0435701656262
884,719.0361569195265
885,719.028252129088
886,719.0198253672557
887,719.0108424993442
888,719.0012655913162
889,718.9910528824912
890,718.9801588228501
891,718.9685341750538
892,718.9561261810939
893,718.9428787926005
894,718.9287329622349
895,718.9136269916985
896,718.8974969301321
897,718.8802770152336
898,718.861900148633
899,718.8422983974775
900,718.821403515757
901,718.7991474807657
902,718.7754630413987
903,718.7502842757125
904,718.7235471557285
905,718.6951901178928
906,718.6651546377412
907,718.6333858070562
908,718.5998329112689
909,718.5644500043885
910,718.5271964787249
911,718.488037627141
912,718.4469451959611
913,718.403897926336
914,718.3588820810215
915,718.3118919528342
916,718.2629303506661
917,718.2120090584361
