frame_number,force
0,721.1344861569415
1,721.0757359571448
2,721.0197064332782
3,720.9660498602874
4,720.914379418362
5,720.8642815777107
6,720.815328282041
7,720.7670885489812
8,720.7191392503872
9,720.6710748617083
10,720.6225159030411
11,720.5731157540737
12,720.5225655875471
13,720.4705973306405
14,720.4169847838631
15,720.3615432249517
16,720.3041279378824
17,720.2446321365877
18,720.1829847280219
19,720.1191482698409
20,720.0531173132524
21,719.9849171363404
22,719.914602745584
23,719.842257979403
24,719.7679945674807
25,719.6919510513457
26,719.6142915293282
27,719.5352042525864
28,719.4549001717489
29,719.3736115781243
30,719.2915909542229
31,719.2091100533484
32,719.1264590959893
33,719.0439458046474
34,718.9618938370721
35,718.8806401341291
36,718.8005308393092
37,718.7219156848284
38,718.6451409267471
39,718.5705410159195
40,718.498429323471
41,718.4290884900702
42,718.3627612635638
43,718.2996428524382
44,718.2398757418804
45,718.1835476214262
46,718.130692666692
47,718.0812960072246
48,718.0353008557272
49,717.992617488264
50,717.9531330718986
51,717.9167212904484
52,717.8832508546025
53,717.8525922449811
54,717.8246223288251
55,717.7992267610744
56,717.776300320069
57,717.755745521471
58,717.7374699692289
59,717.7213829342365
60,717.7073916640217
61,717.6953979968982
62,717.6852959455471
63,717.6769708785214
64,717.6703006546112
65,717.6651586008929
66,717.6614177372654
67,717.6589553145722
68,717.657656656191
69,717.6574174871705
70,717.6581443250521
71,717.6597529441196
72,717.6621652529351
73,717.6653050867501
74,717.6690934692754
75,717.6734438889802
76,717.678258039153
77,717.6834222974144
78,717.688805078933
79,717.6942551893267
80,717.6996013900481
81,717.7046534342827
82,717.7092047470779
83,717.7130367239009
84,717.7159243750133
85,717.7176428426226
86,717.7179742552107
87,717.7167144743394
88,717.7136794484252
89,717.7087109992243
90,717.7016818786532
91,717.6924999141235
92,717.6811111273388
93,717.6675018679636
94,717.6517001204521
95,717.6337761397131
96,717.6138425156898
97,717.5920537485763
98,717.5686054203593
99,717.5437329937877
100,717.5177101293145
101,717.4908462458022
102,717.4634829497725
103,717.4359889795543
104,717.4087534683094
105,717.3821775673168
106,717.3566646627048
107,717.3326094607316
108,717.3103861322426
109,717.2903356317056
110,717.2727523532292
111,717.2578704492283
112,717.2458503236453
113,717.2367659269707
114,717.2305935145583
115,717.2272025877018
116,717.2263499118784
117,717.2276777052851
118,717.2307170738411
119,717.2348973826572
120,717.2395615839974
121,717.2439868062581
122,717.2474089330233
123,717.249049523045
124,717.2481432405028
125,717.2439639697067
126,717.2358479743542
127,717.2232128307635
128,717.2055713580836
129,717.1825402489196
130,717.1538434897128
131,717.1193109873262
132,717.0788731072798
133,717.0325520070678
134,716.9804506604662
135,716.9227403842613
136,716.8596476160633
137,716.7914406784862
138,716.7184172286223
139,716.6408929699838
140,716.5591920019897
141,716.4736389432576
142,716.3845527566766
143,716.292242110999
144,716.1970021617531
145,716.0991127313189
146,715.998837890055
147,715.8964268639987
148,715.79211609543
149,715.6861322288905
150,715.5786957898445
151,715.470025345859
152,715.3603419914009
153,715.2498740648858
154,715.1388620366864
155,715.0275634486425
156,714.9162576525259
157,714.8052499592444
158,714.694874733022
159,714.5854969720016
160,714.477512048132
161,714.3713435447033
162,714.2674394025935
163,714.166266674126
164,714.0683050496057
165,713.974039133167
166,713.8839493787897
167,713.7985016863983
168,713.7181358317598
169,713.6432530805613
170,713.5742034434345
171,713.5112730272468
172,713.4546718771139
173,713.4045226901586
174,713.3608508836995
175,713.3235766849103
176,713.2925100567629
177,713.267349251918
178,713.2476835494425
179,713.2330003848597
180,713.2226968002435
181,713.2160949838893
182,713.2124615533706
183,713.2110300458079
184,713.2110258049694
185,713.211692186292
186,713.2123168180766
187,713.2122565920092
188,713.2109601336037
189,713.2079867077776
190,713.2030207388376
191,713.1958812728137
192,713.1865258394736
193,713.175048414712
194,713.1616715684739
195,713.1467333017079
196,713.1306694069178
197,713.1139923915835
198,713.0972681297218
199,713.0810915216299
200,713.0660625412588
201,713.0527640397816
202,713.0417424651032
203,713.0334922732975
204,713.0284443654805
205,713.0269584938358
206,713.0293192913863
207,713.0357353890543
208,713.0463409810551
209,713.0611992084521
210,713.080306884652
211,713.103600329732
212,713.1309622402827
213,713.1622294721285
214,713.1972014166242
215,713.2356484774829
216,713.2773201409361
217,713.3219523173501
218,713.3692739143835
219,713.4190127767064
220,713.4709011011458
221,713.5246803387572
222,713.5801055895572
223,713.6369495729703
224,713.6950063143715
225,713.7540946867227
226,713.8140619001297
227,713.8747869426054
228,713.9361838489515
229,713.9982045372742
230,714.0608408270265
231,714.1241251683942
232,714.1881296227241
233,714.2529627771364
234,714.3187645257142
235,714.3856989039523
236,714.4539453272998
237,714.5236886683684
238,714.5951087027847
239,714.6683695937528
240,714.7436101959833
241,714.8209359684776
242,714.9004131837901
243,714.9820659074319
244,715.0658758915487
245,715.1517851357145
246,715.2397005195965
247,715.3294996904284
248,715.4210373080581
249,715.5141507806517
250,715.6086647628437
251,715.7043939799373
252,715.8011443600327
253,715.8987128347484
254,715.9968863396391
255,716.0954404850809
256,716.1941381814592
257,716.2927283180061
258,716.3909444960387
259,716.4885038306894
260,716.5851059688912
261,716.6804327196189
262,716.7741489566984
263,716.8659055367195
264,716.9553447445682
265,717.0421083160195
266,717.1258475869755
267,717.2062349177463
268,717.2829752993481
269,717.3558170315562
270,717.4245606037467
271,717.4890653275445
272,717.5492536912644
273,717.6051136733593
274,717.6566993064529
275,717.7041296817089
276,717.74758646142
277,717.7873099576495
278,717.8235939743125
279,717.8567798144782
280,717.887249977687
281,717.9154220265448
282,717.9417429347066
283,717.9666840416519
284,717.9907365536474
285,718.0144073059888
286,718.0382142762426
287,718.0626812322182
288,718.088330990615
289,718.1156770293775
290,718.1452135554468
291,718.1774044798252
292,718.2126719980258
293,718.2513855600976
294,718.2938519553684
295,718.3403070882781
296,718.3909098128853
297,718.4457379329468
298,718.5047862110691
299,718.5679660555985
300,718.6351065510144
301,718.7059567006065
302,718.7801890698469
303,718.8574052250051
304,718.9371432789966
305,719.0188875570121
306,719.1020800855816
307,719.1861334203485
308,719.2704442831898
309,719.3544075315598
310,719.4374300319054
311,719.5189440002243
312,719.5984193623996
313,719.6753747335929
314,719.7493867016756
315,719.8200972025513
316,719.8872188956797
317,719.9505385523435
318,720.0099185204627
319,720.0652963494207
320,720.1166826824353
321,720.1641575495133
322,720.2078652071164
323,720.2480076781516
324,720.2848371589997
325,720.3186474757579
326,720.3497647822
327,720.378537709269
328,720.4053272265119
329,720.4304965546924
330,720.4544015214238
331,720.4773817281776
332,720.4997528071852
333,720.521799942595
334,720.5437727536746
335,720.5658815947385
336,720.5882952892614
337,720.6111402510534
338,720.6345008462666
339,720.6584207285053
340,720.6829047623074
341,720.707921110078
342,720.7334031744192
343,720.7592513347865
344,720.785334660534
345,720.8114929295022
346,720.8375393373052
347,720.8632642380355
348,720.8884400587406
349,720.9128272166232
350,720.9361805982019
351,720.95825603247
352,720.9788161749389
353,720.9976353119328
354,721.0145028614506
355,721.0292257476484
356,721.041630155589
357,721.05156326707
358,721.0588954547377
359,721.0635231666613
360,721.0653724368923
361,721.0644026955858
362,721.0606104429635
363,721.0540324324936
364,721.0447481714248
365,721.0328816461804
366,721.0186021724652
367,721.0021242085855
368,720.9837059401859
369,720.9636465236584
370,720.942282063107
371,720.9199805696314
372,720.8971361903185
373,720.8741629086753
374,720.8514877850002
375,720.8295436551501
376,720.8087610710929
377,720.7895592428517
378,720.7723358913619
379,720.75745615569
380,720.7452408590859
381,720.7359544930716
382,720.7297933213883
383,720.7268740895125
384,720.7272239172848
385,720.7307720346656
386,720.7373441097966
387,720.746659980131
388,720.7583355313209
389,720.7718891952596
390,720.786753090985
391,720.8022883533378
392,720.8178038236299
393,720.8325770496874
394,720.8458764283762
395,720.8569833227847
396,720.8652131451507
397,720.8699347150404
398,720.8705875417546
399,720.866696834341
400,720.8578859613259
401,720.8438859486185
402,720.8245416093428
403,720.7998140372067
404,720.7697793614262
405,720.7346238292887
406,720.6946354789357
407,720.6501928719256
408,720.6017515131873
409,720.54982865467
410,720.49498716267
411,720.4378190559036
412,720.3789292251602
413,720.3189197702119
414,720.2583753717175
415,720.1978501397053
416,720.1378563952742
417,720.078855816466
418,720.021253302893
419,719.9653937763587
420,719.9115619255513
421,719.8599846183321
422,719.8108353772793
423,719.7642400554191
424,719.7202828039669
425,719.6790116104448
426,719.6404429493386
427,719.6045652735488
428,719.5713411721044
429,719.5407081051326
430,719.5125777539878
431,719.4868341885202
432,719.4633312154035
433,719.4418893828076
434,719.4222931418701
435,719.4042886157016
436,719.3875823616371
437,719.3718414646155
438,719.3566952310848
439,719.3417386314176
440,719.3265375051701
441,719.3106354641332
442,719.2935624157229
443,719.2748446224484
444,719.2540161353822
445,719.2306312849367
446,719.2042777361876
447,719.1745894561363
448,719.1412588299609
449,719.1040471713776
450,719.0627930203178
451,719.017417831801
452,718.9679288670959
453,718.9144193110859
454,718.8570658537236
455,718.7961241304096
456,718.7319224860441
457,718.66485453887
458,718.595370983482
459,718.5239709478767
460,718.4511929994436
461,718.3776056704177
462,718.3037972714934
463,718.2303648303094
464,718.1579021728616
465,718.0869873692792
466,718.0181699240065
467,717.9519581753137
468,717.8888073796035
469,717.8291088959711
470,717.7731807638235
471,717.72125984009
472,717.6734956388133
473,717.6299461370673
474,717.5905759900664
475,717.5552577008166
476,717.5237762272658
477,717.4958372513952
478,717.4710789234969
479,717.4490864556235
480,717.4294085955108
481,717.4115748299051
482,717.3951121741172
483,717.3795605995754
484,717.3644864587787
485,717.3494935632333
486,717.3342317606058
487,717.3184029437931
488,717.301764489436
489,717.2841302334522
490,717.2653692252281
491,717.2454026012838
492,717.2241989848964
493,717.2017689010702
494,717.1781587930382
495,717.1534452521316
496,717.1277299602183
497,717.1011356324129
498,717.0738030252896
499,717.0458888668813
500,717.017564367407
501,716.989013860219
502,716.9604331901317
503,716.932027660858
504,716.9040095120215
505,716.8765949336167
506,716.8500006246276
507,716.8244399855905
508,716.8001191940285
509,716.7772335124939
510,716.7559641109721
511,716.7364754784659
512,716.7189133081492
513,716.7034027075258
514,716.6900466954381
515,716.6789250729086
516,716.6700938208164
517,716.6635852040804
518,716.6594087620412
519,716.6575533213347
520,716.657990071711
521,716.6606765756728
522,716.6655613321391
523,716.6725882724307
524,716.6817004707738
525,716.692842449199
526,716.7059607030603
527,716.7210024034139
528,716.737912560651
529,716.7566301626499
530,716.777083893796
531,716.7991880336946
532,716.8228390742369
533,716.8479135126692
534,716.8742671780759
535,716.9017362877083
536,716.9301401818055
537,716.9592854334635
538,716.9889709308484
539,717.0189936372923
540,717.0491549127393
541,717.0792673437453
542,717.1091619269863
543,717.1386952494621
544,717.1677560994613
545,717.1962708238258
546,717.2242067994301
547,717.2515735920008
548,717.2784215976793
549,717.3048380800112
550,717.3309405645313
551,717.3568676752151
552,717.3827677397682
553,717.4087857525064
554,717.4350494560404
555,717.4616553910499
556,717.4886558235653
557,717.5160474822928
558,717.5437629709394
559,717.571665543917
560,717.5995476583696
561,717.6271333710055
562,717.654084310551
563,717.6800087021061
564,717.7044727689886
565,717.7270137739727
566,717.7471539495507
567,717.7644145727011
568,717.7783294795028
569,717.7884574232751
570,717.7943928341416
571,717.7957746995297
572,717.7922934851607
573,717.7836962883914
574,717.7697906717593
575,717.7504477197425
576,717.7256047796616
577,717.6952682069128
578,717.659516325076
579,717.6185027146587
580,717.5724598055917
581,717.5217025585152
582,717.4666318057477
583,717.407736600066
584,717.345594717772
585,717.2808703895535
586,717.2143085119678
587,717.146725010779
588,717.0789935194654
589,717.0120289460928
590,716.946768789698
591,716.8841532385699
592,716.8251051081085
593,716.7705105355387
594,716.721201081139
595,716.6779375582001
596,716.6413956172602
597,716.6121529675573
598,716.5906781824727
599,716.5773211938997
600,716.5723056741374
601,716.57572349649
602,716.5875314286018
603,716.6075502100749
604,716.6354662015103
605,716.6708358238373
606,716.7130929803035
607,716.7615595224682
608,716.8154585745476
609,716.8739302365635
610,716.9360489856936
611,717.0008420847197
612,717.0673084453477
613,717.1344375589152
614,717.2012282305571
615,717.2667069566807
616,717.329945881236
617,717.3900802963946
618,717.4463255611128
619,717.4979931288327
620,717.5445052136918
621,717.5854075764091
622,717.6203799712114
623,717.6492438776828
624,717.6719671749221
625,717.6886654061145
626,717.6995992819996
627,717.7051681181401
628,717.7058990151588
629,717.7024318047357
630,717.6955000912333
631,717.685909032858
632,717.6745107292285
633,717.662178185854
634,717.6497788394036
635,717.6381485976382
636,717.6280673195308
637,717.6202366464489
638,717.6152610619213
639,717.6136329638043
640,717.6157223458192
641,717.6217713759318
642,717.6318937450802
643,717.6460782488305
644,717.6641957838417
645,717.686008848844
646,717.711182737471
647,717.739297856272
648,717.7698628884384
649,717.8023287420054
650,717.8361033314023
651,717.8705672263559
652,717.905090046114
653,717.9390472555706
654,717.9718368859775
655,718.0028957048894
656,718.0317143762178
657,718.0578510804363
658,718.0809429911745
659,718.100715074515
660,718.116985896077
661,718.1296703854853
662,718.1387797693637
663,718.1444191392986
664,718.146783284027
665,718.1461513454974
666,718.1428805551009
667,718.1373989696616
668,718.1301969751707
669,718.1218174067271
670,718.1128443278963
671,718.103890660078
672,718.0955848648258
673,718.0885568127676
674,718.08342295568
675,718.080771029793
676,718.081144733384
677,718.0850290513744
678,718.0928370230213
679,718.1048986878714
680,718.1214527496745
681,718.1426412946864
682,718.1685077589525
683,718.1989982329777
684,718.2339660749317
685,718.2731796674672
686,718.3163330092705
687,718.3630586715243
688,718.4129424691156
689,718.4655390511897
690,718.5203875796656
691,718.5770267379983
692,718.6350084175097
693,718.6939094969287
694,718.7533411570794
695,718.8129551940914
696,718.872446866256
697,718.9315539909763
698,718.9900523351885
699,719.0477477931884
700,719.104466310177
701,719.1600428231336
702,719.214310551775
703,719.2670918036516
704,719.3181911323077
705,719.3673912773963
706,719.4144519111635
707,719.4591109116321
708,719.5010877231165
709,719.5400883291662
710,719.5758113960593
711,719.6079551944371
712,719.6362249585948
713,719.6603404076928
714,719.680043219895
715,719.6951043028854
716,719.7053307645805
717,719.7105725737813
718,719.7107289624722
719,719.7057545982867
720,719.6956654667609
721,719.6805443148154
722,719.6605454357838
723,719.6358984944695
724,719.6069110040423
725,719.5739690163919
726,719.5375355898152
727,719.498146644069
728,719.4564039169753
729,719.4129649194134
730,719.3685300188268
731,719.3238270000969
732,719.2795936098378
733,719.2365586773657
734,719.1954224448926
735,719.1568367650013
736,719.1213858425497
737,719.0895681934244
738,719.0617804849525
739,719.0383039661959
740,719.0192942736228
741,719.0047753991705
742,718.9946384489614
743,718.9886455213377
744,718.9864386712821
745,718.9875535719286
746,718.9914371682933
747,718.9974683780708
748,719.0049807921994
749,719.0132864091908
750,719.0216996435523
751,719.0295610233344
752,719.0362600053357
753,719.0412562009635
754,719.044098144565
755,719.0444386566307
756,719.0420459057791
757,719.0368094937392
758,719.0287412784037
759,719.0179711112097
760,719.0047380416323
761,718.9893777319194
762,718.9723068244043
763,718.954004906682
764,718.9349946835856
765,718.915821081205
766,718.8970302162409
767,718.8791493254917
768,718.862668762087
769,718.8480269900265
770,718.835599184507
771,718.8256896823356
772,718.8185282320485
773,718.8142697966691
774,718.8129975296313
775,718.8147284314056
776,718.8194210678968
777,718.8269845931138
778,718.8372882309062
779,718.8501704193036
780,718.865447012704
781,718.8829181815973
782,718.9023738619751
783,718.9235977619062
784,718.9463700249717
785,718.9704686784345
786,718.9956699826563
787,719.0217477908559
788,719.0484720715988
789,719.0756068732179
790,719.1029081962472
791,719.1301223821882
792,719.1569856081065
793,719.1832248833373
794,719.2085606713622
795,719.2327109990908
796,719.2553967014354
797,719.2763473043327
798,719.2953070186699
799,719.312040427728
800,719.3263376609465
801,719.338019045274
802,719.3469392952085
803,719.3529912189668
804,719.3561087703724
805,719.3562691824123
806,719.3534939418234
807,719.3478484999712
808,719.3394408048437
809,719.3284188942423
810,719.3149678651203
811,719.2993065549191
812,719.2816842506701
813,719.2623776223292
814,719.2416878241986
815,719.2199374155152
816,719.197466585796
817,719.1746282385172
818,719.1517817670162
819,719.1292857304469
820,719.1074899581522
821,719.0867277670897
822,719.0673089274841
823,719.0495137788496
824,719.0335885532502
825,719.0197416268966
826,719.0081402481254
827,718.9989073749866
828,718.9921185446541
829,718.9877990293315
830,718.9859217739461
831,718.9864066945794
832,718.989121831051
833,718.993886642757
834,719.0004774983169
835,719.0086351866929
836,719.0180740910934
837,719.0284925539197
838,719.039583940112
839,719.0510479245139
840,719.0626015122597
841,719.0739892544682
842,719.0849921323413
843,719.0954347136424
844,719.1051903798556
845,719.114184549937
846,719.1223958293367
847,719.1298549598826
848,719.1366414323477
849,719.1428776774858
850,719.1487208570819
851,719.1543524182437
852,719.1599657357011
853,719.1657523327655
854,719.1718873304159
855,719.1785149046007
856,719.1857346098158
857,719.1935894446707
858,719.2020564921643
859,719.2110408616469
860,719.220373497996
861,719.2298132129167
862,719.2390530274181
863,719.2477306080464
864,719.25544229064
865,719.2617599703404
866,719.2662500031582
867,719.2684931802571
868,719.2681047605739
869,719.2647534770987
870,719.2581784350964
871,719.2482029796871
872,719.2347449099389
873,719.2178227252558
874,719.1975577782969
875,719.1741722701724
876,719.1479830629567
877,719.1193913982228
878,719.0888688071021
879,719.0569397391298
880,719.0241616928232
881,718.991103855987
882,718.9583253981497
883,718.9263545877861
884,718.8956698683515
885,718.8666839125491
886,718.8397314141487
887,718.8150609669932
888,718.7928309668092
889,718.7731092257926
890,718.7558759482464
891,718.7410297804337
892,718.7283966937887
893,718.717741403527
894,718.7087808586875
895,718.7011991304029
896,718.6946628363174
897,718.6888360982106
898,718.6833939894872
899,718.678033572237
900,718.6724819451798
901,718.6665010849129
902,718.6598895321433
903,718.6524811500392
904,718.644141322515
905,718.6347610777466
906,718.6242496865864
907,718.6125262812812
908,718.5995109868126
909,718.5851160065004
910,718.5692371158202
911,718.551746099952
912,718.5324847304195
913,718.5112608180767
914,718.4878467323198
915,718.4619806446366
916,718.433370663376
917,718.4017019072955
