acceleration,velocity,displacement
0.04551629074761342,0.0,0.0
0.04471337040144437,2.2557415287264447e-05,5.639353821816112e-09
0.043947632670245346,4.472266605518688e-05,2.2459374157428944e-08
0.04321432530601463,6.651315554925187e-05,5.0268329558538634e-08
0.04250816176510718,8.794377731703232e-05,8.888256277510967e-08
0.04182349046702637,0.0001090266903750657,1.3812517969813418e-07
0.04115446130219563,0.00012977117831737122,1.978246468712434e-07
0.04049518417123873,0.00015018358968572982,2.6781333887201867e-07
0.03983987631601589,0.00017026735480754347,3.47926074995337e-07
0.039182995561108436,0.00019002307277682454,4.3799868189142897e-07
0.038519355675030856,0.00020944866058585936,5.378666152320999e-07
0.03784421950791913,0.00022853955438159685,6.47363668973964e-07
0.037153366415574506,0.00024728895086247027,7.663207952849808e-07
0.036443132731790215,0.00026568807564931145,8.945650519129262e-07
0.03571042705987312,0.00028372646559722726,1.0319186872245609e-06
0.034952724859246526,0.0003013922535770072,1.1781983670181194e-06
0.03416804834191482,0.0003186724468772975,1.3332145421316956e-06
0.03335493809656299,0.00033555319348691696,1.4967709522227492e-06
0.03251242251708682,0.00035202003364032943,1.668664259004561e-06
0.03163998989084351,0.000368058136742312,1.8486838016002213e-06
0.03073756575091374,0.0003836525256527513,2.036611467198987e-06
0.029805495564853318,0.0003987882909816931,2.232221671357598e-06
0.028844531088760342,0.0004134507976450965,2.4352814435142955e-06
0.027855818115728598,0.00042762588494621873,2.645550614162124e-06
0.026840883619910865,0.0004413000603801286,2.862782100493711e-06
0.025801621004438613,0.000454460686536216,3.0867222872227973e-06
0.024740272949150453,0.00046709616002461326,3.3171114988630046e-06
0.023659412222921575,0.00047919608131763127,3.5536845591985657e-06
0.022561921821092023,0.0004907514148286346,3.7961714332351323e-06
0.021450976395305837,0.0005017546393827341,4.044297946787975e-06
0.020330026543952686,0.0005121998901175488,4.297786579163046e-06
0.01920278623323493,0.0005220830933118457,4.556357325020394e-06
0.018073221814513128,0.0005314020953237827,4.819728622179301e-06
0.016945538833607495,0.0005401567854858129,5.0876183423817e-06
0.015824160618309366,0.000548349210348792,5.3597448413403514e-06
0.01471369203254799,0.0005559836735115064,5.635828062305426e-06
0.013618863709614936,0.0005630668124470471,5.915590683795065e-06
0.012544455328769726,0.0005696076422066433,6.198759297458488e-06
0.011495199061752797,0.000575617555804274,6.485065596961217e-06
0.010475665742300333,0.0005811102720052872,6.7742475539136075e-06
0.009490138114186438,0.000586101722969409,7.066050552657282e-06
0.008542478937781832,0.0005906098772324011,7.360228452707734e-06
0.007636005770914199,0.000594654498409575,7.656544546618227e-06
0.006773386466061088,0.0005982568464688189,7.954772382837825e-06
0.005956568323085357,0.0006014393351661055,8.254696428246556e-06
0.00518674976707008,0.0006042251646886444,8.556112553210244e-06
0.004464397865324759,0.0006066379515967431,8.858828332281592e-06
0.0037893093880846953,0.0006087013784100955,9.1626631647833e-06
0.003160708241379798,0.0006104388828174616,9.46744823009019e-06
0.0025773681966440075,0.0006118734019269676,9.773026301276296e-06
0.002037747201923518,0.0006130271807766094,1.0079251446952191e-05
0.0015401189340197403,0.0006139216473105952,1.0385988653973992e-05
0.001082689103565661,0.0006145773493199916,1.0693113403131638e-05
0.0006636876102849497,0.0006150139434984543,1.1000511226336249e-05
0.0002814316378116837,0.0006152502233104784,1.1308077268038482e-05
-6.564153151558758e-05,0.0006153041708370524,1.1615715866575365e-05
-0.00037896992875219277,0.0006151930179719854,1.1923340163777624e-05
-0.0006598858414325791,0.0006149333040294392,1.223087174427798e-05
-0.0009096520170941031,0.0006145409195648076,1.2538240300176543e-05
-0.0011295084216613109,0.0006140311294551187,1.2845383312431524e-05
-0.0013207226737592325,0.0006134185716812636,1.315224573771562e-05
-0.0014846363180210092,0.0006127172319333186,1.3458779688619265e-05
-0.0016226978495225525,0.0006119403983914327,1.3764944096200452e-05
-0.0017364738998891908,0.0006111006054540798,1.407070434716183e-05
-0.0018276337342984315,0.0006102095785455329,1.4376031893161734e-05
-0.0018979085514180343,0.0006092781929741038,1.4680903836041643e-05
-0.0019490337480134302,0.000608316457399246,1.498530249863498e-05
-0.0019826868978648424,0.0006073335272377764,1.5289214994794234e-05
-0.0020004352499985367,0.0006063377467008105,1.5592632813278882e-05
-0.002003703897101993,0.0006053367119140354,1.5895551427932595e-05
-0.001993770434273752,0.0006043373433311914,1.61979699417439e-05
-0.001971785947661293,0.0006033459542357076,1.6499890766135626e-05
-0.001938817688181775,0.0006023683033267469,1.680131933052624e-05
-0.0018959065752904081,0.0006014096222608789,1.7102263811923146e-05
-0.0018441319528827646,0.0006004746126288356,1.7402734870645575e-05
-0.001784676146609668,0.0005995674106039625,1.7702745376453774e-05
-0.0017188826831143287,0.0005986915208965315,1.8002310109328897e-05
-0.0016483044034221973,0.0005978497241248973,1.8301445420584253e-05
-0.00157473963569174,0.0005970439631151188,1.8600168842394257e-05
-0.001500254705590899,0.0005962752145297982,1.8898498636805485e-05
-0.0014271898760378323,0.000595543353384391,1.919645327878403e-05
-0.001358145189911781,0.0005948470196179036,1.9494050872034605e-05
-0.0012959438415676796,0.0005941834973600337,1.979130850127909e-05
-0.0012435734298214297,0.0005935486180421864,2.0088241530129645e-05
-0.0012041088180632699,0.0005929366974802153,2.0384862859010245e-05
-0.0011806230664104366,0.0005923405145090968,2.0681182162007572e-05
-0.0011760937557846465,0.000591751335303548,2.0977205124460734e-05
-0.001193310781470282,0.0005911589841692343,2.127293270432893e-05
-0.0012347895180695946,0.0005905519590943493,2.1568360440144827e-05
-0.0013026917374667432,0.0005899175887804653,2.186347782711353e-05
-0.0013987564988620972,0.000589242226721383,2.2158267780988993e-05
-0.0015242434957924839,0.0005885114767227194,2.245270620685002e-05
-0.0016798904325210867,0.000587710443240641,2.274676168684086e-05
-0.0018658838638599905,0.0005868239996665457,2.304039529756766e-05
-0.0020818413351580993,0.0005858370683667911,2.333356056457599e-05
-0.002326802694869936,0.0005847349073592841,2.362620355850751e-05
-0.002599229211954564,0.000583503399382578,2.3918263135192977e-05
-0.0028970093812659904,0.0005821293397342729,2.4209671319972188e-05
-0.003217470245815575,0.0005806007198275024,2.4500353834862634e-05
-0.003557393810888907,0.0005789070038133263,2.4790230765772842e-05
-0.003913040045862969,0.0005770393953491383,2.5079217365563457e-05
-0.004280180221280728,0.0005749910902823524,2.536722498697133e-05
-0.004654145709155446,0.0005727575087997433,2.5654162136741853e-05
-0.005029897079687798,0.0005703364981025326,2.5939935638467423e-05
-0.005402116173371326,0.0005677284947892678,2.622445188669037e-05
-0.005765320582908161,0.000564936635600198,2.6507618169287737e-05
-0.006113997358024424,0.0005619668061149648,2.6789344029716526e-05
-0.006442752173471849,0.0005588276187320908,2.7069542635928292e-05
-0.00674647135498438,0.0005555303128499767,2.734813211882381e-05
-0.007020495185992593,0.0005520885712147324,2.7625036839839987e-05
-0.0072608002755948226,0.0005485182473493355,2.7900188544481003e-05
-0.007464186537011743,0.0005448370006461838,2.817352735647988e-05
-0.007628461780451586,0.0005410638385668179,2.8445002566283133e-05
-0.007752615348026586,0.0005372185692846984,2.8714573168246013e-05
-0.007836971750300879,0.0005333211725101166,2.8982208103694716e-05
-0.007883314471720313,0.0005293911009546112,2.9247886172060896e-05
-0.007894967721367852,0.0005254465304063392,2.9511595579901134e-05
-0.007876821189673934,0.0005215035831785788,2.9773333108297366e-05
-0.007835283103326091,0.0005175755571053287,3.0033102893368344e-05
-0.007778152148362289,0.0005136721982924066,3.029091483221778e-05
-0.007714407987790941,0.0005097990582583683,3.0546782646355475e-05
-0.0076539298785446444,0.0005059569737917844,3.0800721654368014e-05
-0.007607160757320946,0.000502141701132818,3.105274632309917e-05
-0.007584739333748396,0.0004983437261100507,3.130286767990988e-05
-0.007597125209729103,0.0004945482599741813,3.155109067643094e-05
-0.007654241978081931,0.0004907354181772286,3.1797411595968795e-05
-0.007765160712313326,0.0004868805675046298,3.204181559238926e-05
-0.007937841212143783,0.00048295481702351553,3.22842744385213e-05
-0.008178941623733752,0.00047892562131454614,3.2524744548105815e-05
-0.008493700487671323,0.0004747574607866949,3.2763165318631124e-05
-0.008885889993720005,0.0004704125631663471,3.299945782461938e-05
-0.009357834750834881,0.00046585163198020833,3.323352387340602e-05
-0.009910486431369365,0.00046103455168465724,3.346524541932223e-05
-0.010543542215876842,0.00045592104452284567,3.369448431837411e-05
-0.011255594794421534,0.0004504712602702711,3.392108239457239e-05
-0.012044302834820053,0.0004446462858629607,3.4144861781105695e-05
-0.012906571686066692,0.00043840856723273896,3.436562549437962e-05
-0.0138387342680997,0.00043172224074419736,3.458315819637385e-05
-0.014836722595841966,0.00042455337652821197,3.4797227100691956e-05
-0.015896222049518304,0.0004168701403668719,3.5007582979915724e-05
-0.01701280326516178,0.0004086428840382019,3.5213961236016995e-05
-0.018182029783084724,0.00039984417577614023,3.541608300097058e-05
-0.019399542438654733,0.00039044878272070536,3.561365624059479e-05
-0.020661122753943686,0.00038043361642255575,3.5806376840380606e-05
-0.021962736931970733,0.00036977765150107716,3.5993929657361515e-05
-0.023300560729020467,0.00035846182708582937,3.6175989527008244e-05
-0.024670985179264637,0.0003464689406087581,3.635222221893189e-05
-0.026070604189504267,0.0003337835432665659,3.652228533990072e-05
-0.027496186378092913,0.0003203918456246666,3.668582918712353e-05
-0.028944634265961923,0.00030628164046365286,3.684249755864561e-05
-0.030412934001527905,0.0002914422483967804,3.699192853086072e-05
-0.031898098491169216,0.0002758644902736061,3.7133755215528316e-05
-0.03339710610693341,0.00025954068912408044,3.7267606510377736e-05
-0.03490683622011979,0.00024246470354231714,3.7393107858544334e-05
-0.036424002398421425,0.00022463199388768183,3.750988203290183e-05
-0.037945084899204735,0.00020603972206327528,3.761754996188957e-05
-0.03946626591041119,0.0001866868843608713,3.77157316134956e-05
-0.040983372844710604,0.00016657447467209084,3.7804046953253845e-05
-0.04249183605231691,0.00014570567244783395,3.7882116990033825e-05
-0.043986667219388306,0.00012408604662990765,3.794956491980326e-05
-0.04546246292291046,0.00010172376409433296,3.800601737248432e-05
-0.046913434184402227,7.862978981750478e-05,3.8051105760962276e-05
-0.04833345913796371,5.4818066486913295e-05,3.8084467725038384e-05
-0.049716154727627165,3.0305663020515574e-05,3.810574865741524e-05
-0.051054965178141606,5.112883044073381e-06,3.811460329393139e-05
-0.05234326755850589,-2.0736675140088495e-05,3.8110697345907384e-05
-0.05357449565657179,-4.721611594385791e-05,3.8093709148136395e-05
-0.05474228216584345,-7.429531039946173e-05,3.806333129155057e-05
-0.05584061681040803,-0.0001019410351435246,3.801927220516482e-05
-0.05686401561939665,-0.00013011719325097576,3.796125764806619e-05
-0.05780769510852358,-0.0001587851209329558,3.7889032069520206e-05
-0.05866774514598017,-0.00018790398099658174,3.780235979403782e-05
-0.05944129511179533,-0.0002174312410610256,3.7701025988523417e-05
-0.06012666814331336,-0.00024732323187480276,3.758483737028946e-05
-0.06072351687010724,-0.0002775357781281579,3.745362261778872e-05
-0.061232931522091756,-0.00030802489022620764,3.730723245070013e-05
-0.06165750927505527,-0.0003387475004254944,3.7145539353037205e-05
-0.06200137401417382,-0.0003696622212478017,3.696843692261888e-05
-0.06227013893216841,-0.0004007300994843873,3.6775838842435834e-05
-0.06247080908517325,-0.0004319153364887227,3.656767748344255e-05
-0.06261162490792191,-0.0004631859449869965,3.6343902163073624e-05
-0.06270184983799675,-0.0004945143136734761,3.610447709840851e-05
-0.06275150678040069,-0.0005258776528280755,3.584937910678312e-05
-0.06277107074019711,-0.0005572582972082249,3.557859511927404e-05
-0.06277112869839031,-0.0005886438470678717,3.529211958320502e-05
-0.06276202147623133,-0.0006200271346115271,3.498995183778517e-05
-0.062753484831777,-0.0006514060111885292,3.467209355133516e-05
-0.06275430792236977,-0.0006827829593770659,3.433854630869376e-05
-0.06277202620822644,-0.000714164542909715,3.3989309433122066e-05
-0.06281266307592773,-0.0007455607152307536,3.3624378118586946e-05
-0.06288053139837901,-0.0007769840138493302,3.324374193631692e-05
-0.06297810421608833,-0.000808448672752947,3.284738376466635e-05
-0.0631059619562435,-0.00083996968929603,3.243527917415411e-05
-0.06326282028009088,-0.0008715618848551135,3.200739628061632e-05
-0.06344563739477535,-0.0009032389992738301,3.1563696059584085e-05
-0.06364979394853353,-0.0009350128571096574,3.1104133095488216e-05
-0.06386933410343539,-0.0009668926391226496,3.062865672143014e-05
-0.06409725358231143,-0.0009988842860440862,3.0137212490138454e-05
-0.06432581876445749,-0.0010309900541307785,2.9629743905094738e-05
-0.06454689933620258,-0.0010632082336559435,2.9106194333148056e-05
-0.06475229564385819,-0.0010955330324009587,2.856650901663383e-05
-0.06493404204531772,-0.0011279546168232527,2.8010637104327778e-05
-0.06508467041039087,-0.00116045929493718,2.743853362638767e-05
-0.065197423164754,-0.001193029818330966,2.6850161348070635e-05
-0.06526641131953342,-0.001225645776952038,2.6245492449249883e-05
-0.06528671825574296,-0.001258284059345857,2.562450999017541e-05
-0.06525445398414034,-0.0012909193524058278,2.498720913723749e-05
-0.06516676721209377,-0.0013235246577048864,2.433359813470981e-05
-0.06502182394983279,-0.001356071805495368,2.366369901890975e-05
-0.06481876126847767,-0.0013885319517999456,2.297754807958592e-05
-0.06455762271819442,-0.0014208760477966136,2.227519607968678e-05
-0.06423927859229968,-0.001453075273124237,2.1556708249456568e-05
-0.06386533203929412,-0.0014851014257821354,2.0822164074729977e-05
-0.06343801269888127,-0.0015169272619666792,2.0071656902792773e-05
-0.06296006222578975,-0.001548526780697847,1.9305293392126643e-05
-0.06243461843964681,-0.0015798754508642061,1.852319283423613e-05
-0.06186510503265533,-0.0016109503817322817,1.772548637608701e-05
-0.061255131234074015,-0.001641730440798964,1.6912316170454198e-05
-0.06060840197694448,-0.0016721963241017187,1.6083834479229025e-05
-0.059928636721836986,-0.001702330583776414,1.5240202752259492e-05
-0.05921949544977378,-0.0017321176168193168,1.4381590702110559e-05
-0.058484511667180404,-0.0017615436185985554,1.3508175393256092e-05
-0.05772703234445013,-0.001790596504601463,1.2620140362456087e-05
-0.05695016365311844,-0.0018192658036008552,1.1717674785405507e-05
-0.056156720583049345,-0.001847542524659897,1.0800972703340319e-05
-0.05534917854002687,-0.001875418999440666,9.870232322315178e-06
-0.05452962565507388,-0.0019028887004894413,8.92565539733265e-06
-0.05369971576063463,-0.0019299460358433685,7.967446713249448e-06
-0.05286062371580769,-0.0019565861207124793,6.995813674110486e-06
-0.05201300664057782,-0.0019828045283015756,6.010966011856973e-06
-0.05115697633588088,-0.0020085970240456903,5.013115623770157e-06
-0.05029208931531068,-0.002033959290458488,4.002476545144112e-06
-0.04941736073929521,-0.0020588866529721397,2.9792650592864547e-06
-0.04853130658209891,-0.0020833738198024884,1.9436999410927978e-06
-0.04763201495565884,-0.002107414650186928,8.960028235954438e-07
-0.04671724403890025,-0.0021310019649355676,-1.636013301851802e-07
-0.04578454181778611,-0.0021541274113997394,-1.234883674269007e-06
-0.044831381696971956,-0.002176781392278429,-2.317610875188549e-06
-0.043855306739993445,-0.00219895306438767,-3.411544489355074e-06
-0.042854073380411604,-0.0022206304094177713,-4.516440357806434e-06
-0.04182578393493746,-0.0022418003737466087,-5.632048053597529e-06
-0.0407689971288399,-0.002262449069012553,-6.75811041428732e-06
-0.039682807236137395,-0.0022825620201037977,-7.894363186566409e-06
-0.03856688536112333,-0.002302124443253113,-9.040534802405636e-06
-0.03742148089143003,-0.0023211215348162514,-1.0196346296922978e-05
-0.036247386500482245,-0.0023395387516642295,-1.1361511368543098e-05
-0.035045874834335945,-0.002357362066997934,-1.253573657320864e-05
-0.0338186180494401,-0.002374578190218878,-1.3718721637512843e-05
-0.032567602463559116,-0.002391174745347128,-1.4910159871404345e-05
-0.03129505016771146,-0.0024071404085049455,-1.6109738659867363e-05
-0.030003357551389383,-0.0024224650104347207,-1.731714001460228e-05
-0.028695056705103857,-0.002437139613998844,-1.853204117071067e-05
-0.02737279994795527,-0.002451156578162109,-1.975411521875091e-05
-0.026039362551099805,-0.0024645096187868726,-2.0983031767988155e-05
-0.02469765639872851,-0.0024771938735243296,-2.2218457641065956e-05
-0.023350748152661704,-0.0024892059746621773,-2.3460057603112583e-05
-0.02200187804145417,-0.0025005441312107063,-2.4707495129580804e-05
-0.020654477916317575,-0.0025112082202001494,-2.5960433217433517e-05
-0.019312188563555883,-0.002521199886820118,-2.7218535244188583e-05
-0.017978876080934576,-0.0025305226529812406,-2.8481465879138924e-05
-0.01665864529854906,-0.0025391820333261115,-2.9748892050715763e-05
-0.015355844832216772,-0.002547185655858803,-3.1020483973011994e-05
-0.01407505474506973,-0.0025545433807531246,-3.2295916232164976e-05
-0.012821046669350921,-0.0025612674061067297,-3.357486892887994e-05
-0.011598709384063507,-0.002567372345120083,-3.4857028866686644e-05
-0.01041293917273273,-0.002572875257259282,-3.614209076728149e-05
-0.00926850111699952,-0.002577795617331715,-3.742975848592924e-05
-0.008169872964585372,-0.0025821552108521114,-3.8719746192975194e-05
-0.007121086509708002,-0.0025859779507206846,-4.0011779483368396e-05
-0.006125581659510868,-0.0025892896177629895,-4.1305596375489315e-05
-0.005186085062417616,-0.0025921175344434714,-4.260094816354093e-05
-0.0043045194618384,-0.0025944901855745354,-4.3897600093545436e-05
-0.003481944185398278,-0.0025964368014863444,-4.519533184031066e-05
-0.002718523527781547,-0.0025979869184146395,-4.649393777028591e-05
-0.0020135190422587886,-0.0025991699290571495,-4.779322698215385e-05
-0.0013653031476756605,-0.002600014634604633,-4.9093023123069295e-05
-0.0007713931231030092,-0.0026005488086723277,-5.039316398388854e-05
-0.0002285046997994879,-0.0026007987831280534,-5.169350088183863e-05
0.00026737744715530314,-0.0026007890649412144,-5.299389784385595e-05
0.0007209177985519127,-0.0026005419911297877,-5.42942306078737e-05
0.0011373438542939458,-0.0026000774257165763,-5.559438546208529e-05
0.0015223623100770205,-0.0025994124991754837,-5.68942579433083e-05
0.0018820818130873649,-0.0025985613881446927,-5.8193751415138346e-05
0.0022229440105064335,-0.002597535131688794,-5.9492775545096715e-05
0.0025516620625867605,-0.002596341480170521,-6.0791244698061545e-05
0.0028751627265723905,-0.002594984773973231,-6.208907626159748e-05
0.0032005250375860238,-0.0025934658520321914,-6.338618891809884e-05
0.0035349071641554764,-0.002591781993981756,-6.468250087960232e-05
0.0038854542762821547,-0.0025899269036216465,-6.597792810400318e-05
0.0042591839141676024,-0.002587890744074034,-6.72723825159271e-05
0.004662850247323165,-0.002585660235533661,-6.856577026082903e-05
0.005102793400269114,-0.002583218824621763,-6.985799002586788e-05
0.00558478338517166,-0.002580546930425403,-7.114893146462967e-05
0.006113869358662472,-0.0025776222672394444,-7.243847376404588e-05
0.006694244113172292,-0.002574420238871486,-7.372648439057361e-05
0.0073291316798506,-0.00257091439492323,-7.501281804902229e-05
0.008020703066732972,-0.002567076936236584,-7.629731588181224e-05
0.008770021593088224,-0.002562879255071629,-7.757980492963928e-05
0.009577015681113488,-0.0025582924957530786,-7.886009786734545e-05
0.010440474576767984,-0.002553288123188608,-8.013799302208087e-05
