acceleration,velocity,displacement
0.04870370875897227,0.0,0.0
0.047715827176646464,2.4104883983904683e-05,6.026220995976171e-09
0.04672207109643412,4.771435855217483e-05,2.3981031629996052e-08
0.04572332422764582,7.082570738319483e-05,5.3616048113838466e-08
0.04472038947930755,9.343663580993318e-05,9.468163391212046e-08
0.04371399322692743,0.00011554523148649191,1.4692710073622674e-07
0.0427047906673038,0.00013714992746004972,2.1010089047286213e-07
0.04169337208741678,0.00015824946814872986,2.83950739375057e-07
0.04068026989267095,0.0001788428786437518,3.682238260731774e-07
0.03966596623404409,0.00019892943767543054,4.62666905152973e-07
0.03865090104902351,0.00021850865449619743,5.670264281958799e-07
0.03763548031458671,0.0002375802498371,6.810486542792043e-07
0.03662008431947939,0.00025614414099561653,8.044797519873835e-07
0.03560507579744909,0.0002742004310248487,9.370658949924998e-07
0.03459080781229182,0.0002917494019272839,1.078553353230533e-06
0.033577631331740646,0.000308791511713292,1.2286885816406768e-06
0.03256590245612947,0.00032532739516025953,1.3872183083590648e-06
0.03155598927960733,0.00034135786809419373,1.5538896241726782e-06
0.030548278362889373,0.00035688393500481793,1.7284500749474311e-06
0.02954318078474979,0.0003719067997917277,1.9106477586465676e-06
0.028541137711936747,0.0003864278794158994,2.100231428448474e-06
0.02754262539625119,0.00040044882019294636,2.2969506033506855e-06
0.026548159490670714,0.0004139715164146768,2.5005556875025914e-06
0.02555829857945873,0.0004269981309322092,2.710798099339313e-06
0.024573646835292437,0.000439531117285897,2.9274304113938394e-06
0.02359485574221771,0.0004515732429302745,3.1502065014478823e-06
0.022622624850592417,0.00046312761307847706,3.3788817154500703e-06
0.021657701558830237,0.0004741976946808327,3.613213042389898e-06
0.02070087994739497,0.000484787340057389,3.852959301074453e-06
0.01975299871427045,0.0004949008097228053,4.0978813385195014e-06
0.018814938267645815,0.0005045427939682844,4.3477422394422735e-06
0.01788761702242791,0.0005137184327908029,4.602307546132046e-06
0.016971986928757527,0.0005224333337785993,4.861345487774396e-06
0.01606902823355963,0.0005306935875691786,5.124627218111341e-06
0.01517974344886502,0.0005385057804897848,5.391927060126082e-06
0.014305150498909928,0.0005458770039767285,5.66302275624271e-06
0.01344627505689431,0.0005528148603656795,5.937695722328312e-06
0.012604142141812023,0.0005593274646653561,6.215731303586071e-06
0.011779767092415072,0.0005654234419739129,6.496919030245888e-06
0.010974146061706581,0.0005711119202624433,6.781052870804977e-06
0.010188246206473616,0.0005764025183294883,7.06793148045296e-06
0.009422995802999497,0.0005813053288318566,7.357358442243296e-06
0.008679274585538091,0.0005858308964289909,7.649142498558508e-06
0.007957904638115612,0.0005899901912349043,7.943097770474481e-06
0.007259642147727511,0.0005937945779313651,8.239043962766048e-06
0.006585170253994835,0.0005972557810317958,8.53680655250684e-06
0.005935093131684538,0.0006003858468782156,8.836216959484342e-06
0.005309931342026687,0.0006031971029966434,9.137112696953057e-06
0.0047101183997875695,0.000605702115432097,9.439337501560242e-06
0.004135998429603866,0.0006079136446394449,9.742741441578128e-06
0.003587824732189644,0.0006098446004298932,1.0047181002845462e-05
0.003065759061295663,0.0006115079963782646,1.0352519152047501e-05
0.002569871433575581,0.0006129169040019823,1.0658625377142563e-05
0.0021001403435094,0.0006140844069462536,1.0965375704879623e-05
0.0016564533123075173,0.0006150235553602078,1.1272652695456239e-05
0.0012386077516799141,0.0006157473206262047,1.1580345414452841e-05
0.0008463121685559585,0.0006162685506062636,1.1888349382260958e-05
0.00047918777187984173,0.0006165999255913725,1.2196566501310368e-05
0.00013677056029893098,0.0006167539151744172,1.2504904961501815e-05
-0.0001814860312720333,0.0006167427363066739,1.2813279124372088e-05
-0.00047620785293730236,0.0006165783128356216,1.3121609386657662e-05
-0.0007480960467744032,0.0006162722368606937,1.3429822024081741e-05
-0.00099792224295303,0.0006158357322882618,1.373784901636898e-05
-0.0012265228626510071,0.0006152796210118608,1.404562785469401e-05
-0.0014347925127459265,0.0006146142921680116,1.4353101332988978e-05
-0.0016236765672071878,0.0006138496748980233,1.4660217324755487e-05
-0.001794163144796596,0.0006129952149700223,1.4966928547222499e-05
-0.001947274772059188,0.0006120598554908084,1.5273192314837708e-05
-0.002084060040541976,0.0006110520217876581,1.5578970284157323e-05
-0.00220558552468552,0.0006099796103963513,1.5884228192203325e-05
-0.002312928139197025,0.0006088499819803806,1.6188935590297507e-05
-0.0024071680154447287,0.0006076699579417202,1.6493065575278032e-05
-0.0024893819013280974,0.000606445820462527,1.6796594519879094e-05
-0.0025606370510292283,0.0006051833157244376,1.7099501803925835e-05
-0.0026219855569881013,0.0006038876600724332,1.7401769547875054e-05
-0.00267445907577622,0.0006025635489142422,1.7703382350121724e-05
-0.0027190639178569266,0.0006012151681658339,1.8004327029391742e-05
-0.002756776506406282,0.0005998462080597681,1.830459237344814e-05
-0.0027885392375818848,0.000598459879123771,1.8604168895244026e-05
-0.0028152567708949368,0.0005970589301216518,1.890304859755538e-05
-0.002837792752311358,0.0005956456677408503,1.9201224747021007e-05
-0.0028569669554489798,0.0005942219778139102,1.9498691658409696e-05
-0.002873552837778906,0.0005927893478656032,1.9795444489829576e-05
-0.0028882755457705763,0.0005913488907697158,2.0091479049488406e-05
-0.0029018104501843307,0.000589901369270727,2.038679161449852e-05
-0.0029147823288067105,0.0005884472210759793,2.0681378762085193e-05
-0.002927765318311446,0.0005869865841641998,2.097523721339524e-05
-0.0029412837259835795,0.0005855193219031261,2.1268363689912073e-05
-0.002955813745333025,0.0005840450475352969,2.1560754782271677e-05
-0.002971786083532432,0.0005825631475780805,2.1852406831050022e-05
-0.0029895894950393324,0.0005810728036834376,2.21433158188654e-05
-0.0030095752093146134,0.0005795730125073491,2.24334772729131e-05
-0.0030320622147062544,0.0005780626031513439,2.272288617682777e-05
-0.0030573433146796284,0.0005765402517689974,2.3011536890557857e-05
-0.00308569183618744,0.0005750044929812806,2.3299423076745426e-05
-0.00311736886138341,0.0005734537278068879,2.358653763194247e-05
-0.003152630858139461,0.0005718862278770072,2.3872872620863444e-05
-0.0031917375816782963,0.0005703001357670527,2.415841921177446e-05
-0.003234960112518799,0.0005686934613435034,2.44431676110521e-05
-0.0032825889034951697,0.0005670640740895,2.472710699491035e-05
-0.003334941737130892,0.0005654096914293435,2.501022543629006e-05
-0.00339237153029878,0.0005637278631124861,2.529250982492552e-05
-0.003455273945958304,0.0005620159517434218,2.5573945778639498e-05
-0.0035240947686104407,0.0005602711095647797,2.585451754396655e-05
-0.003599336967887615,0.0005584902516306551,2.6134207884265406e-05
-0.0036815673263071486,0.0005566700255571064,2.6412997953562348e-05
-0.0037714224710661526,0.0005548067781077631,2.6690867154478564e-05
-0.0038696141495429305,0.0005528965189526109,2.6967792978743658e-05
-0.0039769336185001974,0.0005509348820106001,2.724375082898446e-05
-0.0040942550469179086,0.0005489170848442456,2.751871382069817e-05
-0.004222537836157463,0.0005468378866234767,2.7792652563565102e-05
-0.0043628277399041515,0.0005446915452294612,2.8065534921528337e-05
-0.004516256641099084,0.0005424717741342104,2.8337325751369255e-05
-0.00468404083483562,0.0005401716997652268,2.8607986619844114e-05
-0.004867477677111703,0.0005377838201372399,2.887747549981973e-05
-0.005067940465176237,0.0005352999656016679,2.9145746446254457e-05
-0.005286871394592789,0.0005327112626367257,2.9412749253314054e-05
-0.005525772411808311,0.0005300081016851254,2.9678429094394517e-05
-0.005786193803074343,0.0005271801101314047,2.994272614734865e-05
-0.006069720465520604,0.0005242161315642559,3.0205575207772567e-05
-0.006377955974334156,0.0005211042124542922,3.0466905293777204e-05
-0.006712504736902705,0.000517831597276483,3.07266392462099e-05
-0.007074952668029229,0.00051438473292525,3.098469332876033e-05
-0.007466846916674641,0.000510749283029074,3.124097683274891e-05
-0.007889675224101327,0.00050691015249388,3.149539169162965e-05
-0.008344845497926748,0.000502851522313373,3.174783211033146e-05
-0.008833666147613363,0.000498556894401988,3.19981842145103e-05
-0.009357327643751833,0.0004940091459541467,3.2246325724599334e-05
-0.009916885649550707,0.0004891905926308211,3.2492125659245575e-05
-0.010513245959589124,0.0004840830597285361,3.273544407233541e-05
-0.01114715138663563,0.0004786679603919799,3.297613182736554e-05
-0.011819170654289675,0.0004729263798817486,3.3214030412433975e-05
-0.01252968927687255,0.000466839164898958,3.344897179862915e-05
-0.01327890235507789,0.0004603870169909704,3.368077834410164e-05
-0.014066809199133319,0.0004535505891024176,3.3909262745624984e-05
-0.014893209695182222,0.0004463105843788387,3.4134228038995295e-05
-0.015757702328652427,0.00043864785637288007,3.4355467649183225e-05
-0.016659683764508517,0.0004305435098495898,3.4572765490738844e-05
-0.017598349875081788,0.00042197900143969223,3.4785896118561164e-05
-0.018572698116184033,0.00041293623944187576,3.499462492878156e-05
-0.01958153118039124,0.00040339768211773193,3.519870840917146e-05
-0.020623461893086927,0.0003933464338493624,3.539789443816324e-05
-0.02169691934698609,0.00038276633853934417,3.559192263126041e-05
-0.022800156275366707,0.00037164206963375595,3.578052473330369e-05
-0.023931257637286173,0.00035995921615559275,3.596342505475103e-05
-0.02508815035078186,0.00034770436415857575,3.614034094982957e-05
-0.026268614090713925,0.0003348651730482018,3.631098333413127e-05
-0.02747029307184434,0.00032143044625756225,3.6475057238957706e-05
-0.02869070874801138,0.0003073901958025983,3.6632262399472746e-05
-0.029927273359236225,0.0002927357002757864,3.678229387349234e-05
-0.031177304249811934,0.0002774595558735243,3.692484268752967e-05
-0.03243803886652706,0.00026155572009443955,3.705959650652166e-05
-0.033706650327007856,0.0002450195477960558,3.7186240323494286e-05
-0.03498026342668432,0.00022784781935763278,3.730445716528271e-05
-0.036255970941234075,0.00021003876076565318,3.741392881031353e-05
-0.03753085009118675,0.00019159205550754797,3.751433651438183e-05
-0.03880197906362155,0.0001725088482188459,3.760536174031343e-05
-0.04006645351624861,0.00015279174007387834,3.768668688738661e-05
-0.04132140300778801,0.00013244477594286918,3.7757996016390795e-05
-0.04256400729949075,0.00011147342336604949,3.781897556621802e-05
-0.04379151244689611,8.988454342945277e-05,3.7869315057916895e-05
-0.0450012465463564,6.768635368113965e-05,3.7908707782194545e-05
-0.046190634946128496,4.4888383308018424e-05,3.793685146644183e-05
-0.04735721472073936,2.150142089130146e-05,3.795344891749166e-05
-0.0484986482480904,-2.462544850905981e-06,3.7958208636501763e-05
-0.04961273578341119,-2.699039085878138e-05,3.795084540257434e-05
-0.05069742695239193,-5.206793154273216e-05,3.7931080821973964e-05
-0.05175083108020429,-7.767999605088122e-05,3.789864384007556e-05
-0.05277122624943196,-0.00010381051038329029,3.785327121346702e-05
-0.05375706695667951,-0.00013044258368481815,3.779470793994999e-05
-0.05470699023124532,-0.00015755859798179936,3.772270764453334e-05
-0.05561982009800541,-0.00018514030056411204,3.763703291989686e-05
-0.056494570299395426,-0.00021316889816346224,3.753745562021497e-05
-0.0573304452135601,-0.00024162515204170112,3.7423757107663676e-05
-0.05812683890172822,-0.0002704894730705232,3.729572845138562e-05
-0.05888333219472647,-0.0002997420158446369,3.7153170579156826e-05
-0.05959968771305998,-0.0003293627708215835,3.699589438249027e-05
-0.06027584273741338,-0.0003593316534342019,3.6823720776426326e-05
-0.06091189991611113,-0.000389628589097583,3.663648071579338e-05
-0.06150811588869138,-0.00042023359304878364,3.6434015170256785e-05
-0.062064887981772204,-0.0004511268440163995,3.621617506099049e-05
-0.06258273917962612,-0.0004822887508067491,3.5982821162284704e-05
-0.06306230160646319,-0.0005137000110032714,3.5733823971832196e-05
-0.06350429880640729,-0.000545341661106489,3.546906355380476e-05
-0.06390952717272333,-0.0005771951176012716,3.518842935912782e-05
-0.06427883693953003,-0.0006092422086293349,3.489182002757017e-05
-0.06461311318882147,-0.0006414651961614227,3.457914317637248e-05
-0.06491325733584437,-0.0006738467887925892,3.425031518013398e-05
-0.06518016953129334,-0.0007063701455093735,3.3905260946558484e-05
-0.06541473236295947,-0.0007390188709829367,3.3543913692435406e-05
-0.06561779617714651,-0.0007717770031179632,3.316621472391018e-05
-0.06579016629314664,-0.0008046289937355365,3.277211322469681e-05
-0.0659325923398584,-0.0008375596833937877,3.236156605541447e-05
-0.06604575987239417,-0.0008705542714468508,3.1934537566704315e-05
-0.06613028432236781,-0.0009035982824955413,3.149099942821872e-05
-0.06618670722322316,-0.000936677530381939,3.103093047499935e-05
-0.06621549455938901,-0.000969778080827592,3.055431657219697e-05
-0.06621703702438674,-0.001002886213723536,3.0061150498559188e-05
-0.06619165192785324,-0.0010359883859615959,2.9551431848637903e-05
-0.06613958644969178,-0.0010690711955559822,2.9025166953258507e-05
-0.06606102190245253,-0.0011021213476440184,2.8482368817458507e-05
-0.06595607865236129,-0.0011351256227827217,2.7923057074851823e-05
-0.06582482138523604,-0.001168070847792121,2.7347257957208112e-05
-0.06566726448072582,-0.0012009438692586114,2.675500427794543e-05
-0.06548337735057329,-0.0012337315297164361,2.6146335428201667e-05
-0.06527308967867412,-0.001266420646473748,2.552129738415412e-05
-0.0650362965616003,-0.0012989979930338167,2.487994272427723e-05
-0.06477286358855601,-0.0013314502830713557,2.4222330655250938e-05
-0.06448263192145648,-0.0013637641569488588,2.3548527045245885e-05
-0.06416542343369545,-0.0013959261707876469,2.2858604463311758e-05
-0.06382104593234461,-0.0014279227881291569,2.2152642223582556e-05
-0.06344929843551937,-0.0014597403742211228,2.1430726432994985e-05
-0.06304997644347397,-0.001491365192940871,2.0692950041204487e-05
-0.06262287715705331,-0.001522783406341003,1.993941289138402e-05
-0.062167804646148926,-0.0015539810767918035,1.9170221770600816e-05
-0.06168457501501504,-0.0015849441717070945,1.8385490458476093e-05
-0.06117302161938886,-0.0016156585708656955,1.7585339772832894e-05
-0.060633000353170936,-0.0016461100763588354,1.676989761102676e-05
-0.06006439496318144,-0.0016762844251879234,1.593929898564007e-05
-0.059467122315301914,-0.0017061673045075441,1.5093686053216203e-05
-0.058841137545470615,-0.0017357443694727373,1.4233208134721132e-05
-0.0581864390548798,-0.001765001263622825,1.3358021726447242e-05
-0.057503073313386055,-0.0017939236417148915,1.2468290500112812e-05
-0.056791139420389054,-0.0018224971948983353,1.1564185290959506e-05
-0.05605079336176322,-0.0018507076780938734,1.0645884072711453e-05
-0.05528225190357701,-0.0018785409394102084,9.713571918335432e-06
-0.05448579607523615,-0.0019059829514049117,8.767440945631653e-06
-0.053661774216035255,-0.0019330198439777295,7.807690246785993e-06
-0.052810604588492564,-0.0019596379386788614,6.834525801121845e-06
-0.05193277759352903,-0.0019858237842243667,5.848160370396038e-06
-0.05102885765141052,-0.002011564193035602,4.848813376081046e-06
-0.050099484831741856,-0.0020368462786563898,3.836710758158048e-06
-0.049145376313954346,-0.002061657493942814,2.8120848150082474e-06
-0.04816732772769207,-0.0020859856699532255,1.7751740240342375e-06
-0.04716621436673281,-0.0021098190554768317,7.262228426767232e-07
-0.04614299221355983,-0.002133146357121905,-3.345185104729609e-07
-0.045098698676170154,-0.002155956779844337,-1.4067942947145215e-06
-0.044034452921916864,-0.002178240067743859,-2.4903435066115702e-06
-0.04295145567447318,-0.0021999865448929564,-3.584900159770774e-06
-0.04185098831171275,-0.002221187155889503,-4.690193584966389e-06
-0.040734411081410626,-0.002241833505737784,-5.805948750373211e-06
-0.03960316025459831,-0.0022619178985717864,-6.931886601450603e-06
-0.038458744065103606,-0.002281433374651712,-8.067724419756479e-06
-0.037302737338523115,-0.0023003737450026183,-9.213176199670061e-06
-0.03613677479546178,-0.0023187336230361144,-1.0367953041679745e-05
-0.03496254310988724,-0.0023365084525124517,-1.1531763560566886e-05
-0.03378177188998636,-0.0023536945312624203,-1.2704314306510605e-05
-0.032596223807053175,-0.0023702890301866802,-1.388531019687288e-05
-0.031407684124016476,-0.0023862900071694474,-1.5074454956211911e-05
-0.030217949876180462,-0.0024016964156694967,-1.6271451561921648e-05
-0.02902881893297661,-0.002416508107871786,-1.747600269280697e-05
-0.027842079110707126,-0.002430725832382707,-1.8687811177870594e-05
-0.026659497418352454,-0.0024443512265149717,-1.9906580442595015e-05
-0.025482809439034304,-0.0024573868032293183,-2.113201495003109e-05
-0.0243137088169408,-0.0024698359327933123,-2.2363820634036747e-05
-0.023153836838391707,-0.0024817028192071454,-2.3601705322036863e-05
-0.0220047721425044,-0.0024929924714523696,-2.4845379144701742e-05
-0.020868020642140724,-0.0025037106696485308,-2.6094554929976968e-05
-0.019745005760474145,-0.0025138639262491844,-2.7348948578951397e-05
-0.018637059086594507,-0.0025234594424609516,-2.860827942112893e-05
-0.01754541152304337,-0.002532505060113361,-2.9872270546772507e-05
-0.01647118494036812,-0.0025410092092292137,-3.114064911410815e-05
-0.015415384290924063,-0.002548980851537037,-3.2413146629299715e-05
-0.014378890111289169,-0.00255642942013759,-3.3689499197218375e-05
-0.013362451389298813,-0.002563364755512737,-3.496944774113096e-05
-0.012366678869869105,-0.002569797038077529,-3.6252738189528525e-05
-0.011392038978902235,-0.002575736717539722,-3.753912162843284e-05
-0.010438848625976209,-0.0025811944394409417,-3.8828354417678e-05
-0.00950727119033783,-0.0025861809693950204,-4.012019826988699e-05
-0.008597313986483167,-0.002590707115689226,-4.141442029115805e-05
-0.007708827437587591,-0.0025947836510452436,-4.2710792982841666e-05
-0.006841506076027494,-0.0025984212344236472,-4.400909420420889e-05
-0.005994891379806364,-0.002601630333787606,-4.5309107096261705e-05
-0.005168376377689823,-0.00260442115072698,-4.6610619967390355e-05
-0.004361211927871616,-0.0026068035478033704,-4.791342614202294e-05
-0.003572514582427154,-0.002608786979430945,-4.921732377383152e-05
-0.002801275961924002,-0.0026103804270670326,-5.0522115625456016e-05
-0.002046373551712544,-0.0026115923394454416,-5.182760881708413e-05
-0.0013065827851796888,-0.0026124305785296645,-5.313361454657791e-05
-0.0005805902191861899,-0.0026129023717807558,-5.443994778415551e-05
0.00013299243358652786,-0.0026130142712271556,-5.574642694490749e-05
0.0008356136515584172,-0.0026127721197058695,-5.705287354264075e-05
0.0015287670383920663,-0.0026121810245333817,-5.8359111828700564e-05
0.0022139760179180484,-0.002611245338769304,-5.9664968419526235e-05
0.002892778427420349,-0.0026099686501579694,-6.097027191675805e-05
0.003566711100137401,-0.00260835377777608,-6.227485252374156e-05
0.0042372944788562315,-0.0026064027763813315,-6.357854166228091e-05
0.004906017278461323,-0.002604116948442002,-6.488117159348675e-05
0.005574321234197731,-0.0026014968638138373,-6.618257504655071e-05
0.006243586028805049,-0.0025985423869980865,-6.74825848592537e-05
0.006915114566778033,-0.002595252711849191,-6.878103363396552e-05
0.007590118835132932,-0.0025916264034987133,-7.00777534128025e-05
0.008269706635588877,-0.002587661447131033,-7.137257537545993e-05
0.008954869480446126,-0.0025833553031020242,-7.266532956301819e-05
0.009646471917179735,-0.002578704967752618,-7.395584463073184e-05
0.010345242497666487,-0.0025737070391489065,-7.524394763245723e-05
0.011051766544086246,-0.0025683577868884683,-7.652946383896657e-05
0.01176648078680825,-0.0025626532250557447,-7.781221659195262e-05
0.01248966987166916,-0.0025565891873911254,-7.909202719506434e-05
0.013221464675754056,-0.0025501614037542696,-8.036871484285068e-05
0.01396184235155634,-0.002543365576997442,-8.164209658803861e-05
