acceleration,velocity,displacement
0.04870370874091335,0.0,0.0
0.0477158271581754,2.4104883974772187e-05,6.026220993693047e-09
0.04672207107759907,4.77143585337158e-05,2.3981031620815045e-08
0.045723324208498055,7.082570735524008e-05,5.361604809305402e-08
0.04472038945989524,9.343663577233841e-05,9.468163387494864e-08
0.043713993207298726,0.0001155452314391369,1.469271006778175e-07
0.042704790647505333,0.0001371499274028379,2.101008903883112e-07
0.04169337206750291,0.00015824946808158996,2.8395073925941817e-07
0.04068026987270228,0.00017884287856664125,3.68223825921476e-07
0.03966596621408277,0.0001989294375883375,4.626669049602207e-07
0.038650901029128576,0.00021850865439914033,5.670264279570901e-07
0.0376354802948141,0.000237580249730126,6.810486539894067e-07
0.036620084299881936,0.0002561441408788,8.044797516416382e-07
0.03560507577808116,0.00027420043089829073,9.370658945859108e-07
0.034590807793200035,0.000291749401791111,1.0785533527582613e-06
0.0335776313129654,0.0003087915115676524,1.2286885810979521e-06
0.03256590243770494,0.00032532739500531994,1.3872183077411952e-06
0.03155598926157082,0.00034135786793013887,1.55388962347506e-06
0.030548278345279716,0.00035688393483185153,1.7284500741655575e-06
0.029543180767601172,0.00037190679961007176,1.9106477577760383e-06
0.02854113769528335,0.00038642787922579287,2.1002314274850047e-06
0.02754262538011943,0.00040044881999464356,2.296950602290114e-06
0.026548159475079238,0.00041397151620844324,2.5005556863408857e-06
0.025558298564418415,0.0004269981307183177,2.710798098072576e-06
0.024573646820809498,0.00043953111706462465,2.9274304100183117e-06
0.02359485572829526,0.0004515732427019008,3.150206499959943e-06
0.022622624837235122,0.0004631276128432834,3.3788817138462393e-06
0.021657701546050526,0.00047419769443910484,3.6132130406668363e-06
0.0207008799352146,0.00048478733980942114,3.8529592992289675e-06
0.01975299870270962,0.0004949008094689022,4.097881336548548e-06
0.018814938256721623,0.00050454279370876,4.347742237342963e-06
0.017887617012154345,0.000513718432525979,4.602307543901648e-06
0.016971986919150125,0.0005224333335088052,4.8613454854103435e-06
0.016069028224632385,0.0005306935872947509,5.124627215611233e-06
0.015179743440621047,0.0005385057802110643,5.391927057487686e-06
0.01430515049134457,0.0005458770036940556,5.663022753463966e-06
0.013446275049996695,0.000552814860079391,5.937695719407328e-06
0.012604142135563514,0.000559327464375781,6.215731300521121e-06
0.011779767086789265,0.0005654234416813691,6.496919027035409e-06
0.010974146056666195,0.0005711119199672329,6.781052867447559e-06
0.010188246201967384,0.0005764025180318913,7.06793147694734e-06
0.009422995798968386,0.0005813053285321253,7.357358438588344e-06
0.008679274581919963,0.0005858308961273474,7.649142494753213e-06
0.007957904634851434,0.0005899901909315403,7.943097766517934e-06
0.007259642144761357,0.0005937945776264436,8.23904395865743e-06
0.006585170251275444,0.0005972557807254528,8.536806548245405e-06
0.005935093129163753,0.0006003858465705626,8.836216955069408e-06
0.0053099313396594615,0.0006031971026877684,9.137112692383991e-06
0.004710118397539732,0.0006057021151220682,9.439337496836451e-06
0.004135998427456782,0.0006079136443283173,9.742741436699047e-06
0.0035878247301402177,0.0006098446001177166,1.0047180997810556e-05
0.003065759059353227,0.00061150799606509,1.0352519146856258e-05
0.002569871431760344,0.0006129169036878684,1.0658625371794497e-05
0.0021001403418524486,0.0006140844066312716,1.0965375699374283e-05
0.0016564533108430434,0.0006150235550444454,1.1272652689793212e-05
0.0012386077504514328,0.0006157473203097691,1.1580345408631765e-05
0.0008463121676131996,0.0006162685502892853,1.1888349376281529e-05
0.000479187771281857,0.000616599925274009,1.2196566495172352e-05
0.00013677056011409463,0.000616753914856858,1.2504904955205069e-05
-0.00018148603097690116,0.0006167427359891422,1.2813279117916569e-05
-0.00047620785210004306,0.000616578312518373,1.3121609380043447e-05
-0.0007480960453406269,0.0006162722365440127,1.3429822017309044e-05
-0.000997922240869901,0.0006158357319724601,1.3737849009438161e-05
-0.001226522859870351,0.000615279620697275,1.4045627847605594e-05
-0.0014347925092273383,0.0006146142918550005,1.4353101325743663e-05
-0.001623676562919585,0.0006138496745869638,1.4660217317354154e-05
-0.0017941631397182186,0.0006129952146613044,1.4966928539666221e-05
-0.0019472747661807067,0.0006120598551848297,1.5273192307127756e-05
-0.0020840600338649378,0.0006110520214848183,1.5578970276295167e-05
-0.0022055855172254555,0.0006099796100970458,1.5884228184190634e-05
-0.0023129281309803417,0.0006088499816849943,1.6188935582136145e-05
-0.0024071680065087106,0.000607669957650622,1.649306556697005e-05
-0.0024893818917193513,0.000606445820176065,1.679659451142672e-05
-0.0025606370408021296,0.0006051833154429347,1.709950179533147e-05
-0.0026219855462032413,0.0006038876597961834,1.740176953914125e-05
-0.002674459064501959,0.0006025635486435071,1.770338234125117e-05
-0.00271906390616784,0.0006012151679008397,1.8004327020387257e-05
-0.002756776494376946,0.0005998462078007035,1.8304592364312644e-05
-0.0027885392252884286,0.0005984598788707872,1.8604168885980518e-05
-0.0028152567584134912,0.0005970589298748617,1.890304858816693e-05
-0.0028377927397165,0.0005956456675003292,1.9201224737510727e-05
-0.0028569669428121793,0.000594221977579697,1.9498691648780734e-05
-0.0028735528251623106,0.0005927893476377034,1.9795444480085085e-05
-0.0028882755332347806,0.0005913488905481041,2.0091479039631538e-05
-0.002901810437793037,0.0005899013690553471,2.03867916045324e-05
-0.0029147823166251747,0.0005884472208667426,2.068137875201292e-05
-0.0029277653064002634,0.0005869865839609863,2.0975237203219853e-05
-0.0029412837143940234,0.0005855193217057877,2.1268363679636547e-05
-0.002955813734111708,0.0005840450473436613,2.156075477189891e-05
-0.0029717860727244117,0.0005825631473919522,2.1852406820582813e-05
-0.002989589484683453,0.0005810728035026003,2.214331580830645e-05
-0.00300957519944195,0.0005795730123315689,2.2433477262264994e-05
-0.0030320622053463288,0.0005780626029803719,2.272288616609298e-05
-0.003057343305861963,0.0005765402516025698,2.3011536879738716e-05
-0.0030856918279384485,0.0005750044928191197,2.329942306584414e-05
-0.003117368853726401,0.0005734537276487035,2.3586537620961093e-05
-0.0031526308511008482,0.0005718862277224966,2.3872872609803894e-05
-0.0031917375752876023,0.0005703001356158995,2.4158419200638494e-05
-0.0032349601068086538,0.0005686934611953754,2.4443167599841313e-05
-0.0032825888985013106,0.0005670640739440479,2.472710698362617e-05
-0.0033349417328890573,0.0005654096912862003,2.501022542493373e-05
-0.003392371526843153,0.0005637278629712672,2.5292509813498096e-05
-0.0034552739433137466,0.000562015951603728,2.5573945767141846e-05
-0.003524094766792493,0.0005602711094262015,2.5854517532399328e-05
-0.0035993369669024937,0.0005584902514927777,2.6134207872629074e-05
-0.0036815673261595184,0.0005566700254195122,2.6412997941857145e-05
-0.003771422471759124,0.0005548067779700325,2.669086714270453e-05
-0.0038696141510796145,0.0005528965188143228,2.696779296690062e-05
-0.003976933620885259,0.0005509348818713316,2.724375081707203e-05
-0.004094255050156013,0.0005489170847035713,2.751871380871576e-05
-0.0042225378402517225,0.0005468378864809694,2.7792652551511894e-05
-0.004362827744851462,0.0005446915450846936,2.806553490940331e-05
-0.004516256646880809,0.0005424717739867605,2.8337325739171174e-05
-0.004684040841420689,0.0005401716996146852,2.8607986607571535e-05
-0.004867477684450404,0.0005377838199832174,2.887747548747101e-05
-0.0050679404732048745,0.0005352999654438036,2.9145746433827765e-05
-0.005286871403239899,0.0005327112624746924,2.941274924080739e-05
-0.005525772420999324,0.0005300081015186326,2.967842908180572e-05
-0.005786193812731581,0.0005271801099601998,2.9942726134675428e-05
-0.006069720475561729,0.0005242161313881265,3.020557519501251e-05
-0.006377955984670616,0.0005211042122730684,3.046690528092781e-05
-0.006712504747442841,0.00051783159709004,3.072663923326859e-05
-0.007074952678678277,0.0005143847327335097,3.098469331572448e-05
-0.007466846927340942,0.0005107492828320049,3.1240976819615855e-05
-0.007889675234700994,0.0005069101522914944,3.149539167839673e-05
-0.008344845508382107,0.0005028515221057236,3.1747832096996035e-05
-0.008833666157856064,0.000498556894189164,3.1998184201069756e-05
-0.00935732765371819,0.0004940091457362705,3.2246325711051116e-05
-0.009916885659178584,0.0004891905924080463,3.2492125645587196e-05
-0.010513245968819494,0.00048408305950104673,3.2735444058564467e-05
-0.011147151395415686,0.0004786679601599879,3.2976131813479725e-05
-0.011819170662577476,0.0004729263796454896,3.321403039843109e-05
-0.012529689284633935,0.0004668391646586868,3.3448971784507135e-05
-0.013278902362284907,0.00046038701674695705,3.368077832985855e-05
-0.014066809205764232,0.0004535505888549448,3.390926273125902e-05
-0.0148932097012184,0.0004463105841281991,3.4134228024504805e-05
-0.015757702334076796,0.0004386478561193753,3.4355467634566696e-05
-0.016659683769300895,0.00043054350959353087,3.457276547599492e-05
-0.01759834987922044,0.0004219790011814005,3.4785896103688655e-05
-0.018572698119650326,0.00041293623918168285,3.4994624913779426e-05
-0.019581531183171207,0.00040339768185597744,3.519870839403884e-05
-0.02062346189517747,0.00039334643358639025,3.539789442289943e-05
-0.021696919348402767,0.00038276633827549517,3.5591922615864904e-05
-0.02280015627614215,0.00037164206936935893,3.578052471777612e-05
-0.02393125763747012,0.00035995921589095586,3.59634250390912e-05
-0.025088150350436465,0.0003477043638939792,3.6140340934037434e-05
-0.026268614089907567,0.0003348651727838932,3.63109833182069e-05
-0.027470293070654708,0.0003214304459937526,3.647505722290131e-05
-0.02869070874652394,0.00030739019553945794,3.663226238328461e-05
-0.02992727335753799,0.00029273570001344247,3.6782293857172836e-05
-0.031177304247991474,0.00027745955561206013,3.692484267107921e-05
-0.03243803886466984,0.0002615557198338948,3.70595964899407e-05
-0.033706650325193106,0.0002450195475364291,3.718624030678328e-05
-0.03498026342497886,0.0002278478190988861,3.730445714844211e-05
-0.036255970939693835,0.00021003876050771793,3.741392879334376e-05
-0.0375308500898568,0.00019159205525033028,3.751433649728327e-05
-0.03880197906253761,0.00017250884796223166,3.760536172308641e-05
-0.040066453515438645,0.0001527917398177376,3.7686686870031404e-05
-0.041321403007276894,0.00013244477568705873,3.77579959989076e-05
-0.042564007299298656,0.00011147342311041484,3.781897554860697e-05
-0.043791512447040125,8.988454317383014e-05,3.7869315040178026e-05
-0.045001246546850504,6.768635342535749e-05,3.790870776432782e-05
-0.046190634946986664,4.48883830518982e-05,3.793685144844713e-05
-0.04735721472197557,2.150142063465764e-05,3.795344889936877e-05
-0.04849864824971552,-2.4625451082651343e-06,3.7958208618250365e-05
-0.04961273578542986,-2.699039111705148e-05,3.795084538419404e-05
-0.05069742695480414,-5.206793180210998e-05,3.793108080346425e-05
-0.051750831083006925,-7.767999631156275e-05,3.789864382143583e-05
-0.05277122625261723,-0.00010381051064546879,3.7853271194696574e-05
-0.05375706696023498,-0.00013044258394868184,3.779470792104803e-05
-0.05470699023514611,-0.00015755859824752712,3.772270762549898e-05
-0.05561982010221422,-0.0001851403008318672,3.763703290072913e-05
-0.05649457030386251,-0.0002131688984333864,3.7537455600912814e-05
-0.057330445218221754,-0.00024162515231390748,3.742375708822599e-05
-0.058126838906514496,-0.00027048947334509154,3.729572843181124e-05
-0.05888333219955656,-0.0002997420161216093,3.715317055944457e-05
-0.05959968771784997,-0.0003293627711009609,3.699589436263892e-05
-0.060275842742080914,-0.00035933165371594363,3.6823720756434695e-05
-0.06091189992057383,-0.0003896285893816073,3.6636480695660305e-05
-0.06150811589287,-0.0004202335933349683,3.643401514998116e-05
-0.062064887985587486,-0.00045112684430458267,3.621617504057127e-05
-0.0625827391829988,-0.00048228875109672923,3.5982821141720946e-05
-0.06306230160932023,-0.000513700011294809,3.573382395112306e-05
-0.06350429880867721,-0.0005453416613993083,3.546906353294953e-05
-0.06390952717433619,-0.0005771951178950617,3.518842933812594e-05
-0.06427883694041435,-0.0006092422089237494,3.489182000642124e-05
-0.0646131131889011,-0.0006414651964560782,3.457914315507628e-05
-0.06491325733504162,-0.0006738467890870639,3.42503151586905e-05
-0.06518016952953204,-0.0007063701458032073,3.390526092496793e-05
-0.0654147323601697,-0.0007390188712756327,3.354391367069822e-05
-0.06561779617326922,-0.0007717770034089925,3.3166214702027066e-05
-0.06579016628813678,-0.000804628994024344,3.277211320266873e-05
-0.0659325923336864,-0.0008375596836797998,3.2361566033242695e-05
-0.06604575986504915,-0.0008705542717294837,3.193453754439037e-05
-0.06613028431385443,-0.0009035982827742096,3.149099940576445e-05
-0.06618670721356004,-0.0009366775306560632,3.103093045240688e-05
-0.06621549454860101,-0.0009697780810966034,3.055431654946871e-05
-0.06621703701250492,-0.00100288621398688,3.006115047569784e-05
-0.06619165191491487,-0.001035988386218735,2.9551431825646437e-05
-0.06613958643573571,-0.0010690711958063976,2.9025166930140156e-05
-0.06606102188751446,-0.00110212134788721,2.8482368794216753e-05
-0.06595607863647387,-0.0011351256230182072,2.7923057051490397e-05
-0.06582482136842566,-0.001168070848019432,2.7347257933730988e-05
-0.06566726446300954,-0.0012009438694772908,2.6755004254356806e-05
-0.06548337733196198,-0.0012337315299260337,2.6146335404505974e-05
-0.06527308965917712,-0.0012664206466738185,2.5521297360356013e-05
-0.06503629654122534,-0.0012989979932239192,2.487994270038158e-05
-0.0647728635673124,-0.0013314502832510536,2.4222330631262836e-05
-0.0644826318993551,-0.0013637641571177205,2.3548527021170644e-05
-0.06416542341075494,-0.001395926170945248,2.28586044391549e-05
-0.0638210459085929,-0.001427922788275085,2.2152642199349818e-05
-0.06344929841099065,-0.001459740374354981,2.1430726408692302e-05
-0.06304997641821018,-0.0014913651930622811,2.0692950016837985e-05
-0.0626228771311057,-0.00152278340644961,1.993941286696001e-05
-0.062167804619578076,-0.0015539810768872811,1.917022174612579e-05
-0.06168457498789087,-0.0015849441717891483,1.838549043395668e-05
-0.061173021591785934,-0.0016156585709340675,1.7585339748275878e-05
-0.06063300032517469,-0.0016461100764133076,1.6769897586439035e-05
-0.06006439493488975,-0.0016762844252283238,1.5939298961028626e-05
-0.05946712228682508,-0.0017061673045337526,1.5093686028588107e-05
-0.05884113751692671,-0.0017357443694846905,1.4233208110083495e-05
-0.05818643902638845,-0.0017650012636205193,1.3358021701807192e-05
-0.05750307328506378,-0.0017939236416983824,1.2468290475477467e-05
-0.05679113939234771,-0.0018224971948677352,1.1564185266335938e-05
-0.05605079333411,-0.0018507076780493496,1.0645884048106667e-05
-0.055282251876414445,-0.0018785409393519807,9.713571893756335e-06
-0.054485796048666775,-0.001905982951333251,8.767440921085028e-06
-0.053661774190155394,-0.0019330198438929566,7.807690222278475e-06
-0.05281060456338921,-0.0019596379385813426,6.8345257766599e-06
-0.051932777569272094,-0.001985823784114508,5.848160345985938e-06
-0.051028857628052815,-0.0020115641929138394,4.848813351728851e-06
-0.05009948480932066,-0.002036846278523183,3.836710733869596e-06
-0.0491453762924914,-0.002061657493798636,2.8120847907891415e-06
-0.04816732770719514,-0.0020859856697985576,1.775173999889843e-06
-0.04716621434719721,-0.0021098190553121557,7.262228186121646e-07
-0.04614299219496847,-0.002133146356947697,-3.3451853445279865e-07
-0.04509869865849662,-0.0021559567796610632,-1.4067943186049886e-06
-0.04403445290512229,-0.002178240067551968,-2.4903435304082464e-06
-0.04295145565851251,-0.002199986544692877,-3.5849001834694575e-06
-0.04185098829653004,-0.0022211871556816376,-4.6901936085630864e-06
-0.04073441106693905,-0.002241833505522505,-5.805948773864122e-06
-0.03960316024076175,-0.00226191789834943,-6.931886624832106e-06
-0.03845874405181503,-0.0022814333744225744,-8.067724443025107e-06
-0.03730273732568308,-0.0023003737447669487,-9.213176222822489e-06
-0.03613677478296464,-0.0023187336227941105,-1.0367953064712754e-05
-0.03496254309762421,-0.0023365084522642575,-1.1531763583477347e-05
-0.03378177187785181,-0.0023536945310081263,-1.2704314329295444e-05
-0.03259622379494455,-0.0023702890299263256,-1.3885310219529057e-05
-0.031407684111842096,-0.002386290006903022,-1.5074454978736395e-05
-0.030217949863859544,-0.0024016964153969473,-1.627145158431139e-05
-0.02902881892043923,-0.002416508107593022,-1.747600271505888e-05
-0.02784207909789114,-0.0024307258320976047,-1.8687811199981536e-05
-0.02665949740520814,-0.0024443512262233794,-1.990658046456178e-05
-0.02548280942552593,-0.002457386802931063,-2.1132014971850393e-05
-0.024313708803038847,-0.0024698359324882044,-2.236382065570521e-05
-0.02315383682407443,-0.0024817028188949828,-2.3601705343551005e-05
-0.022004772127756263,-0.0024929924711329403,-2.4845379166057987e-05
-0.020868020626949306,-0.0025037106693216165,-2.6094554951171626e-05
-0.01974500574483479,-0.0025138639259145623,-2.734894859998067e-05
-0.018637059070510328,-0.0025234594421183988,-2.860827944198891e-05
-0.017545411506531463,-0.0025325050597626592,-2.9872270567459176e-05
-0.016471184923459566,-0.002541009208870157,-3.114064913461738e-05
-0.01541538427366393,-0.002548980851169438,-3.241314664962728e-05
-0.014378890093736506,-0.002556429419761288,-3.3689499217359964e-05
-0.013362451371534422,-0.0025633647551276057,-3.496944776108219e-05
-0.012366678851987771,-0.002569797037683486,-3.6252738209284965e-05
-0.011392038961004962,-0.0025757367171367345,-3.753912164799002e-05
-0.010438848608171762,-0.0025811944390290286,-3.8828354437031464e-05
-0.009507271172739641,-0.0025861809689742563,-4.0120198289032284e-05
-0.008597313969204667,-0.0025907071152597425,-4.141442031009078e-05
-0.007708827420743766,-0.00259478365060723,-4.271079300155752e-05
-0.006841506059730221,-0.0025984212339773484,-4.4009094222703666e-05
-0.0059948913641628574,-0.0026016303333333216,-4.530910711453133e-05
-0.005168376362796421,-0.0026044211502650612,-4.661061998543093e-05
-0.004361211913821551,-0.0026068035473342157,-4.791342615983075e-05
-0.003572514569308996,-0.0026087869789549983,-4.921732379140306e-05
-0.002801275949824767,-0.0026103804265847816,-5.0522115642788004e-05
-0.002046373540711478,-0.0026115923389574158,-5.182760883417355e-05
-0.0013065827753498231,-0.002612430578036431,-5.313361456342201e-05
-0.0005805902105896795,-0.0026129023712829157,-5.443994780075185e-05
0.0001329924408952977,-0.002613014270725339,-5.5746426961253914e-05
0.0008356136575343838,-0.002612772119200732,-5.7052873558735434e-05
0.001528767043001044,-0.0026121810240255982,-5.835911184454202e-05
0.0022139760211398354,-0.002611245338259563,-5.966496843511331e-05
0.0028927784292549423,-0.0026099686496469645,-6.097027193208994e-05
0.0035667111006003364,-0.002608353777264501,-6.22748525388178e-05
0.004237294477975475,-0.002606402775869857,-6.357854167710139e-05
0.004906017276278823,-0.0026041169479312934,-6.488117160805168e-05
0.005574321230769422,-0.002601496863304531,-6.618257506086064e-05
0.006243586024194635,-0.00259854238649079,-6.748258487330947e-05
0.006915114561056986,-0.002595252711344477,-6.878103364776828e-05
0.007590118828377384,-0.0025916264029971184,-7.007775342635368e-05
0.008269706627879625,-0.002587661446633054,-7.137257538876122e-05
0.008954869471874842,-0.0025833553026081155,-7.266532957607151e-05
0.009646471907844305,-0.0025787049672631856,-7.395584464353933e-05
0.010345242487674123,-0.002573707038664306,-7.524394764502121e-05
0.01105176653354571,-0.0025683577864090007,-7.652946385128953e-05
0.011766480775826753,-0.0025626532245816578,-7.781221660403719e-05
0.012489669860349252,-0.002556589186922614,-7.909202720691326e-05
0.013221464664188963,-0.002550161403291479,-8.036871485446679e-05
0.013961842339831521,-0.002543365576540474,-8.164209659942478e-05
