frame_number,force
0,544.4048627189619
1,544.4210134333262
2,544.4369854052995
3,544.4526835908812
4,544.4680086716031
5,544.4828577525685
6,544.4971251071894
7,544.5107029608623
8,544.5234823039515
9,544.5353537233669
10,544.5462082422828
11,544.5559381588898
12,544.5644378767232
13,544.5716047205487
14,544.5773397332783
15,544.5815484511702
16,544.5841416561606
17,544.5850361047443
18,544.584155232392
19,544.5814298318901
20,544.5767987036646
21,544.5702092756159
22,544.561618188621
23,544.5509918419419
24,544.5383068913429
25,544.5235506925687
26,544.5067216838295
27,544.487829702347
28,544.4668962311858
29,544.4439545731656
30,544.4190499486798
31,544.3922395143418
32,544.3635923001898
33,544.3331890645713
34,544.3011220668047
35,544.267494757682
36,544.232421387371
37,544.196026530371
38,544.1584445281201
39,544.1198188508818
40,544.0803013810005
41,544.0400516196321
42,543.9992358192247
43,543.9580260448026
44,543.9165991684572
45,543.8751358029897
46,543.8338191821192
47,543.7928339960773
48,543.7523651929067
49,543.7125967573655
50,543.67371048061
51,543.635884734352
52,543.5992932630464
53,543.5641040073851
54,543.5304779722848
55,543.4985681524803
56,543.468518528197
57,543.4404631417123
58,543.414525263106
59,543.3908166508736
60,543.3694369109221
61,543.3504729559306
62,543.3339985660533
63,543.3200740515252
64,543.3087460178947
65,543.3000472350011
66,543.2939966108255
67,543.2905992704551
68,543.2898467386111
69,543.291717221984
70,543.2961759856679
71,543.3031758165449
72,543.3126575652576
73,543.3245507571927
74,543.3387742620273
75,543.3552370114085
76,543.3738387551311
77,543.3944708470767
78,543.4170170527551
79,543.4413543707661
80,543.4673538612456
81,543.4948814753433
82,543.5237988807631
83,543.5539642792553
84,543.5852332126699
85,543.6174593546663
86,543.6504952852623
87,543.6841932450625
88,543.7184058655466
89,543.7529868718502
90,543.7877917553409
91,543.8226784145728
92,543.8575077641672
93,543.8921443114535
94,543.9264567005503
95,543.9603182235686
96,543.993607299128
97,544.0262079189508
98,544.058010063278
99,544.0889100850872
100,544.1188110620761
101,544.1476231145092
102,544.1752636866087
103,544.2016577894593
104,544.226738204413
105,544.250445647415
106,544.2727288959369
107,544.2935448805871
108,544.3128587426013
109,544.3306438566101
110,544.3468818162152
111,544.3615623789368
112,544.3746833673604
113,544.3862505243704
114,544.3962773215821
115,544.4047847212589
116,544.4118008932278
117,544.4173608894931
118,544.4215062801953
119,544.4242847551126
120,544.4257496950377
121,544.4259597170557
122,544.4249781969149
123,544.422872770544
124,544.4197148161195
125,544.4155789186431
126,544.4105423203952
127,544.4046843619087
128,544.398085918689
129,544.3908288391158
130,544.382995389233
131,544.3746677103097
132,544.365927294671
133,544.3568544843879
134,544.3475279965978
135,544.3380244788862
136,544.3284180979362
137,544.3187801639824
138,544.3091787924707
139,544.2996786031846
140,544.2903404563187
141,544.2812212245196
142,544.2723735994439
143,544.2638459305476
144,544.2556820927484
145,544.2479213791872
146,544.2405984164251
147,544.2337431016514
148,544.2273805634356
149,544.221531148276
150,544.2162104348537
151,544.2114292770364
152,544.2071938757176
153,544.2035058791147
154,544.2003625116844
155,544.1977567330767
156,544.1956774294073
157,544.1941096385237
158,544.1930348087521
159,544.1924310877899
160,544.1922736361598
161,544.1925349584257
162,544.1931852450325
163,544.1941927179724
164,544.1955239744176
165,544.1971443236007
166,544.1990181130285
167,544.201109040236
168,544.2033804458705
169,544.205795583495
170,544.2083178616786
171,544.2109110547839
172,544.213539480125
173,544.2161681406296
174,544.2187628337726
175,544.2212902293076
176,544.2237179199069
177,544.2260144494447
178,544.22814932285
179,544.2300930000393
180,544.2318168759643
181,544.2332932498107
182,544.2344952877312
183,544.2353969836411
184,544.2359731213645
185,544.236199239936
186,544.236051603232
187,544.2355071754475
188,544.234543604733
189,544.2331392182541
190,544.2312730330855
191,544.2289247884931
192,544.2260750056171
193,544.2227050797964
194,544.2187974088663
195,544.21433555805
196,544.2093044589915
197,544.2036906376829
198,544.1974824642605
199,544.1906704171371
200,544.1832473543901
201,544.1752087860917
202,544.1665531416381
203,544.1572820256646
204,544.1474004552273
205,544.1369170705514
206,544.125844312305
207,544.1141985596195
208,544.1020002241702
209,544.0892737964596
210,544.0760478415178
211,544.0623549428252
212,544.0482315948603
213,544.0337180458163
214,544.01885809286
215,544.0036988332588
216,543.988290375816
217,543.9726855181312
218,543.9569393960676
219,543.9411091122125
220,543.9252533496947
221,543.9094319764198
222,543.8937056432893
223,543.8781353789909
224,543.8627821835862
225,543.847706623042
226,543.8329684269785
227,543.8186260921789
228,543.8047364944199
229,543.7913545108267
230,543.7785326547548
231,543.7663207256792
232,543.7547654776228
233,543.7439103107331
234,543.7337949910656
235,543.7244554030989
236,543.71592333847
237,543.7082263236805
238,543.7013874892187
239,543.6954254821153
240,543.690354423144
241,543.6861839089237
242,543.6829190581927
243,543.6805606003962
244,543.6791050033639
245,543.6785446354024
246,543.6788679556563
247,543.680059725097
248,543.6821012292045
249,543.6849705028948
250,543.6886425489998
251,543.6930895435397
252,543.6982810236445
253,543.7041840568444
254,543.7107633931307
255,543.7179816031688
256,543.7257992070038
257,543.7341747979074
258,543.7430651661068
259,543.7524254269118
260,543.7622091568322
261,543.7723685396807
262,543.7828545227385
263,543.7936169810711
264,543.8046048863747
265,543.8157664762451
266,543.8270494212185
267,543.8384009898048
268,543.8497682144524
269,543.8610980627554
270,543.872337618175
271,543.8834342737806
272,543.8943359415712
273,543.9049912787577
274,543.9153499308812
275,543.9253627901977
276,543.934982266736
277,543.9441625687328
278,543.952859988579
279,543.961033190015
280,543.968643492106
281,543.9756551455414
282,543.9820355971477
283,543.9877557391042
284,543.9927901397442
285,543.9971172526589
286,544.0007196003606
287,544.0035839287157
288,544.005701328973
289,544.0070673251366
290,544.0076819252214
291,544.0075496356342
292,544.0066794385613
293,544.0050847325517
294,544.0027832362571
295,543.9997968549885
296,543.9961515100457
297,543.9918769318208
298,543.9870064190959
299,543.9815765682985
300,543.9756269774912
301,543.9691999303609
302,543.9623400655055
303,543.9550940361381
304,543.947510165057
305,543.9396380992754
306,543.9315284680505
307,543.9232325470771
308,543.9148019301981
309,543.906288208528
310,543.8977426560612
311,543.8892159207759
312,543.8807577204461
313,543.8724165426587
314,543.8642393493016
315,543.8562712869864
316,543.8485554056173
317,543.8411323870074
318,543.8340402847143
319,543.8273142761485
320,543.8209864286393
321,543.8150854820007
322,543.8096366509645
323,543.804661451609
324,543.8001775562165
325,543.7961986806495
326,543.7927345076653
327,543.7897906489143
328,543.7873686475446
329,543.7854660222612
330,543.7840763526858
331,543.7831894052562
332,543.7827912985656
333,543.7828647066343
334,543.7833890980207
335,543.7843410080519
336,543.7856943406799
337,543.7874206952747
338,543.7894897120589
339,543.7918694284963
340,543.7945266385092
341,543.7974272471854
342,543.8005366153877
343,543.8038198909262
344,543.8072423250966
345,543.8107695748934
346,543.8143679921263
347,543.8180049014303
348,543.8216488697224
349,543.8252699696267
350,543.8288400387682
351,543.8323329360908
352,543.8357247957282
353,543.8389942781577
354,543.8421228168589
355,543.8450948565595
356,543.8478980773207
357,543.8505235981785
358,543.8529661546705
359,543.8552242454136
360,543.8573002434856
361,543.859200469027
362,543.860935220536
363,543.8625187635757
364,543.8639692766677
365,543.8653087548455
366,543.8665628718205
367,543.8677608021741
368,543.8689350052995
369,543.8701209727571
370,543.8713569406164
371,543.8726835688757
372,543.8741435913333
373,543.8757814408085
374,543.8776428558133
375,543.8797744752837
376,543.882223427751
377,543.8850369206406
378,543.8882618345224
379,543.8919443262072
380,543.8961294436278
381,543.9008607546422
382,543.9061799915254
383,543.9121267132952
384,543.9187379893381
385,543.9260481098607
386,543.934088330667
387,543.9428866605692
388,543.9524676986168
389,543.962852525433
390,543.974058649365
391,543.9861000050786
392,543.9989870003451
393,544.0127266061266
394,544.0273224852735
395,544.0427751555911
396,544.0590821832001
397,544.0762384018166
398,544.0942361530334
399,544.1130655424614
400,544.1327147071049
401,544.1531700903439
402,544.1744167215926
403,544.1964384976021
404,544.2192184615546
405,544.2427390751501
406,544.2669824786215
407,544.2919307344499
408,544.3175660519797
409,544.3438709912783
410,544.3708286450814
411,544.3984227975938
412,544.4266380583696
413,544.4554599683786
414,544.4848750738311
415,544.5148709622383
416,544.5454362557114
417,544.576560558992
418,544.6082343633936
419,544.6404489115279
420,544.6731960305858
421,544.7064679435132
422,544.7402570672646
423,544.7745558053176
424,544.809356338366
425,544.8446504136933
426,544.8804291310794
427,544.9166827215591
428,544.9534003150399
429,544.9905696937751
430,545.0281770306832
431,545.0662066136927
432,545.1046405591117
433,545.1434585183571
434,545.1826373832907
435,545.2221509959037
436,545.261969868287
437,545.302060918764
438,545.3423872296045
439,545.3829078308831
440,545.4235775141253
441,545.4643466788061
442,545.5051612147005
443,545.5459624232055
444,545.58668698056
445,545.6272669450626
446,545.6676298090379
447,545.7076985947306
448,545.7473919920894
449,545.7866245360663
450,545.8253068216447
451,545.863345755592
452,545.9006448439861
453,545.9371045137142
454,545.9726224650943
455,546.0070940524828
456,546.0404126904322
457,546.0724702841844
458,546.103157684435
459,546.132365167261
460,546.1599829410495
461,546.1859016831254
462,546.2100131089509
463,546.2322105756896
464,546.2523897199338
465,546.2704491275817
466,546.2862910328761
467,546.2998220429049
468,546.3109538823309
469,546.3196041504832
470,546.3256970800602
471,546.3291642846377
472,546.3299454813696
473,546.3279891752767
474,546.3232532917821
475,546.3157057445741
476,546.3053249268385
477,546.2921001156556
478,546.2760317818133
479,546.2571318000911
480,546.2354235578508
481,546.2109419623004
482,546.183733349059
483,546.1538552966734
484,546.1213763532097
485,546.0863756816321
486,546.0489426303918
487,546.0091762349117
488,545.967184654981
489,545.923084552896
490,545.8770004177572
491,545.8290638423643
492,545.7794127600371
493,545.7281906491014
494,545.6755457128331
495,545.6216300427009
496,545.5665987730233
497,545.5106092356958
498,545.4538201241239
499,545.3963906755955
500,545.3384798810315
501,545.2802457304334
502,545.2218445009839
503,545.163430092298
504,545.1051534103212
505,545.0471617989878
506,544.9895985175888
507,544.9326022615169
508,544.8763067239371
509,544.8208401956638
510,544.7663252002103
511,544.7128781608562
512,544.6606090967903
513,544.6096213460453
514,544.5600113140018
515,544.5118682475625
516,544.465274036479
517,544.4203030443076
518,544.3770219716373
519,544.3354897537789
520,544.2957574947006
521,544.2578684388398
522,544.2218579819112
523,544.1877537202745
524,544.155575536037
525,544.125335712963
526,544.0970390773317
527,544.070683157984
528,544.0462583601562
529,544.023748148035
530,544.0031292318845
531,543.9843717575584
532,543.9674394986994
533,543.9522900538672
534,543.938875051675
535,543.9271403669687
536,543.9170263506408
537,543.9084680752078
538,543.9013955979742
539,543.895734243445
540,543.8914049064274
541,543.8883243768106
542,543.8864056861391
543,543.8855584745515
544,543.885689374565
545,543.8867024065456
546,543.8884993805523
547,543.8909803004144
548,543.8940437671067
549,543.8975873786313
550,543.9015081227626
551,543.905702757992
552,543.9100681775951
553,543.9145017521307
554,543.9189016467864
555,543.9231671118437
556,543.9271987471369
557,543.9308987440539
558,543.9341711103109
559,543.9369218830219
560,543.9390593350289
561,543.9404941786097
562,543.94113976948
563,543.9409123123705
564,543.9397310679254
565,543.9375185599675
566,543.9342007824843
567,543.9297074063963
568,543.9239719865817
569,543.9169321694867
570,543.9085299013358
571,543.8987116368845
572,543.8874285488434
573,543.8746367382066
574,543.8602974457747
575,543.8443772654396
576,543.8268483600251
577,543.8076886799288
578,543.7868821832332
579,543.7644190538148
580,543.740295911784
581,543.7145160086709
582,543.6870893984276
583,543.6580330746181
584,543.6273710637878
585,543.5951344647036
586,543.561361423386
587,543.5260970353253
588,543.4893931689546
589,543.451308207471
590,543.4119067086226
591,543.3712589840775
592,543.3294406019611
593,543.2865318183216
594,543.2426169452676
595,543.1977836648679
596,543.152122298841
597,543.1057250454627
598,543.0586851971926
599,543.011096354304
600,542.9630516501527
601,542.9146430027399
602,542.8659604057283
603,542.8170912705597
604,542.7681198297424
605,542.7191266098462
606,542.6701879815455
607,542.6213757931763
608,542.5727570934739
609,542.5243939481387
610,542.4763433532196
611,542.4286572458448
612,542.3813826099645
613,542.3345616720054
614,542.2882321786968
615,542.2424277467037
616,542.1971782714808
617,542.1525103814884
618,542.1084479236877
619,542.0650124666043
620,542.022223807566
621,541.9801004706908
622,541.9386601822935
623,541.8979203114353
624,541.8578982657966
625,541.818611836319
626,541.7800794871729
627,541.7423205901441
628,541.7053556047061
629,541.6692062068944
630,541.6338953712753
631,541.5994474105969
632,541.565887977234
633,541.5332440295971
634,541.5015437657512
635,541.4708165262043
636,541.4410926682802
637,541.4124034151939
638,541.3847806834706
639,541.358256892562
640,541.3328647603718
641,541.3086370879867
642,541.2856065366174
643,541.2638053999384
644,541.2432653754605
645,541.224017338644
646,541.2060911230159
647,541.1895153089595
648,541.1743170234678
649,541.1605217531679
650,541.1481531733718
651,541.1372329965138
652,541.1277808436274
653,541.1198141419646
654,541.1133480500639
655,541.1083954087708
656,541.1049667139922
657,541.1030701053814
658,541.1027113650691
659,541.1038939218954
660,541.1066188590677
661,541.110884926053
662,541.1166885577686
663,541.1240239050114
664,541.1328828794327
665,541.1432552147104
666,541.1551285438229
667,541.1684884910931
668,541.1833187767442
669,541.1996013306949
670,541.2173164113907
671,541.2364427252394
672,541.2569575428798
673,541.2788368095876
674,541.3020552480555
675,541.3265864525206
676,541.3524029739639
677,541.3794763967838
678,541.4077774073819
679,541.4372758541826
680,541.4679407972574
681,541.4997405450355
682,541.5326426763886
683,541.5666140483345
684,541.6016207916243
685,541.6376282977697
686,541.6746012015602
687,541.7125033628968
688,541.7512978507086
689,541.7909469299973
690,541.8314120514075
691,541.8726538418545
692,541.9146320944443
693,541.9573057555392
694,542.0006329060496
695,542.0445707332556
696,542.0890754893722
697,542.1341024341662
698,542.1796057608746
699,542.2255385064764
700,542.2718524482543
701,542.3184979889841
702,542.365424033846
703,542.4125778633448
704,542.4599050073359
705,542.5073491252864
706,542.5548518975884
707,542.6023529325054
708,542.6497896929784
709,542.6970974469324
710,542.744209244333
711,542.7910559244389
712,542.8375661571529
713,542.8836665225735
714,542.9292816327578
715,542.9743342996198
716,543.0187457528194
717,543.0624359111556
718,543.1053237102524
719,543.1473274882338
720,543.1883654295583
721,543.2283560651653
722,543.2672188249171
723,543.3048746365026
724,543.34124656374
725,543.3762604764947
726,543.4098457439225
727,543.4419359419693
728,543.4724695647297
729,543.5013907277289
730,543.5286498500991
731,543.5542043022961
732,543.5780190062547
733,543.6000669753913
734,543.6203297825245
735,543.638797944933
736,543.6554712178358
737,543.6703587906362
738,543.6834793837598
739,543.6948612470937
740,543.7045420632636
741,543.7125687600632
742,543.7189972366424
743,543.7238920083078
744,543.727325775384
745,543.7293789224434
746,543.730138955296
747,543.7296998844371
748,543.7281615646652
749,543.7256290005165
750,543.7222116259616
751,543.7180225652826
752,543.7131778810954
753,543.7077958152589
754,543.7019960283377
755,543.695898842931
756,543.6896244959124
757,543.6832924049277
758,543.6770204552248
759,543.6709243133008
760,543.6651167733394
761,543.6597071411662
762,543.65480065936
763,543.650497976893
764,543.6468946668643
765,543.6440807956255
766,543.6421405454848
767,543.6411518916325
768,543.6411863323348
769,543.6423086698593
770,543.644576838127
771,543.6480417721867
772,543.6527473146733
773,543.6587301554817
774,543.6660198024866
775,543.6746385824418
776,543.6846016716577
777,543.6959171559452
778,543.7085861192872
779,543.7226027611678
780,543.7379545435151
781,543.754622369527
782,543.7725807975671
783,543.7917982930237
784,543.8122375192862
785,543.8338556664794
786,543.8566048143266
787,543.880432324135
788,543.9052812545432
789,543.931090796283
790,543.9577967226024
791,543.9853318534565
792,544.0136265320486
793,544.0426091115785
794,544.0722064490043
795,544.1023444022135
796,544.1329483273321
797,544.1639435734023
798,544.1952559717437
799,544.2268123168227
800,544.2585408345695
801,544.2903716331001
802,544.3222371300861
803,544.3540724508091
804,544.3858157910519
805,544.4174087390757
806,544.4487965511161
807,544.4799283756813
808,544.5107574235192
809,544.5412410818277
810,544.571340972618
811,544.6010229561581
812,544.6302570812654
813,544.6590174848267
814,544.6872822433335
815,544.7150331796144
816,544.742255628472
817,544.7689381657918
818,544.7950723070353
819,544.8206521824962
820,544.8456741973819
821,544.8701366841455
822,544.8940395531974
823,544.9173839472745
824,544.9401719047435
825,544.9624060374683
826,544.9840892290216
827,545.0052243589263
828,545.0258140584627
829,545.0458605032068
830,545.065365246345
831,545.0843290948445
832,545.1027520283237
833,545.1206331586394
834,545.1379707271717
835,545.154762136675
836,545.1710040149937
837,545.186692308106
838,545.2018223994028
839,545.2163892513003
840,545.2303875648682
841,545.2438119531569
842,545.2566571238472
843,545.268918066356
844,545.2805902375418
845,545.2916697389766
846,545.3021534778759
847,545.3120393034292
848,545.321326110468
849,545.3300139033066
850,545.3381038143958
851,545.3455980748275
852,545.3524999360199
853,545.3588135437843
854,545.3645437677646
855,545.3696959911625
856,545.3742758671503
857,545.3782890486975
858,545.381740897914
859,545.3846361805766
860,545.3869787521385
861,545.388771242962
862,545.3900147516566
863,545.3907085555189
864,545.3908498465228
865,545.3904335008187
866,545.3894518894261
867,545.38789473716
868,545.3857490352719
869,545.3829990110858
870,545.3796261560365
871,545.3756093125219
872,545.3709248192841
873,545.3655467137413
874,545.3594469877827
875,545.3525958919238
876,545.3449622820383
877,545.3365140029143
878,545.3272183030683
879,545.3170422751949
880,545.3059533161887
881,545.2939195998462
882,545.2809105543001
883,545.2668973352252
884,545.2518532855278
885,545.2357543732976
886,545.2185796020716
887,545.2003113897024
888,545.1809359130103
889,545.1604434147497
890,545.1388284683699
891,545.1160901960606
892,545.0922324369355
893,545.0672638638034
894,545.0411980476217
895,545.0140534685436
896,544.9858534724756
897,544.9566261728114
898,544.9264042982543
899,544.8952249890987
900,544.8631295459506
901,544.8301631364847
902,544.7963744670201
903,544.7618154257773
904,544.7265407033133
905,544.6906073935531
906,544.6540745774886
907,544.6170028917207
908,544.5794540849796
909,544.5414905666776
910,544.5031749522195
911,544.4645696104806
912,544.4257362198749
913,544.3867353406591
914,544.3476260117324
915,544.3084653793458
916,544.2693083627179
917,544.2302073583479
