frame_number,force
0,544.2317698259781
1,544.2569397830389
2,544.2831357119952
3,544.310112262923
4,544.3376065839933
5,544.3653471417222
6,544.3930633275481
7,544.4204953381535
8,544.4474035750238
9,544.4735766844452
10,544.498837438679
11,544.5230459022828
12,544.5460996118874
13,544.5679307460841
14,544.588500510087
15,544.6077912503425
16,544.6257970680506
17,544.6425137906973
18,544.6579290896645
19,544.6720134283818
20,544.6847124594664
21,544.6959413837267
22,544.7055815435403
23,544.7134791903043
24,544.7194461019388
25,544.7232616551296
26,544.7246760572306
27,544.7234146006585
28,544.7191829158038
29,544.7116732124827
30,544.7005714229739
31,544.6855650853151
32,544.6663518379136
33,544.6426485110528
34,544.6142008485074
35,544.5807937771738
36,544.5422619507492
37,544.4985001932401
38,544.4494734980364
39,544.395226281686
40,544.3358905479112
41,544.271692507606
42,544.2029571186963
43,544.1301100286971
44,544.0536765175548
45,543.9742771923013
46,543.8926203381435
47,543.8094909856601
48,543.7257369359493
49,543.6422521951043
50,543.5599584456801
51,543.479785258123
52,543.4026497339377
53,543.3294362548751
54,543.2609770411498
55,543.1980342682351
56,543.1412844656326
57,543.0913057495546
58,543.0485681518487
59,543.013427010254
60,542.9861191724342
61,542.9667616562632
62,542.9553523890135
63,542.951772723267
64,542.9557915949532
65,542.9670713931762
66,542.9851757532667
67,543.0095794837794
68,543.0396806907125
69,543.0748149437492
70,543.1142711403603
71,543.1573086045178
72,543.2031748620321
73,543.2511234260115
74,543.3004308592731
75,543.3504124379098
76,543.4004359052577
77,543.4499329731058
78,543.4984083317673
79,543.5454460076533
80,543.5907130134581
81,543.6339603694702
82,543.6750216976573
83,543.7138096859827
84,543.7503107870103
85,543.7845785390969
86,543.8167258569291
87,543.8469165254131
88,543.8753559987877
89,543.9022815529347
90,543.9279519125532
91,543.9526366133344
92,543.9766054508142
93,544.0001183563888
94,544.0234159645247
95,544.0467110871901
96,544.0701813448525
97,544.0939632535286
98,544.1181480256741
99,544.1427791924804
100,544.167851967075
101,544.1933141079122
102,544.2190679538477
103,544.2449733259407
104,544.2708511303377
105,544.2964877021622
106,544.3216401092786
107,544.3460426781131
108,544.3694148518853
109,544.391470192817
110,544.4119260318535
111,544.4305130982639
112,544.4469844816362
113,544.4611234207671
114,544.4727495791042
115,544.4817236243746
116,544.4879500927385
117,544.4913786748186
118,544.4920041797892
119,544.489865490939
120,544.48504381846
121,544.4776604804025
122,544.4678742874335
123,544.4558784050945
124,544.4418964453182
125,544.4261776053602
126,544.4089908761741
127,544.3906185279159
128,544.3713491633195
129,544.3514706581276
130,544.3312633506135
131,544.3109938751699
132,544.2909099851331
133,544.2712365834082
134,544.2521730717475
135,544.2338921002521
136,544.2165397919404
137,544.2002374448714
138,544.1850845733403
139,544.1711630116209
140,544.1585417237757
141,544.1472819359603
142,544.1374421809834
143,544.1290827626557
144,544.1222690300574
145,544.1170728376176
146,544.1135717893987
147,544.1118462649357
148,544.111974577514
149,544.1140267767025
150,544.1180576011055
151,544.1240989977706
152,544.1321525192279
153,544.1421818769197
154,544.1541060495388
155,544.1677935730028
156,544.1830588007349
157,544.1996608511643
158,544.2173056359076
159,544.2356509349803
160,544.2543141394107
161,544.2728820913565
162,544.2909223889894
163,544.3079955609583
164,544.323667637317
165,544.3375227916127
166,544.3491758169328
167,544.3582841760277
168,544.3645592528951
169,544.3677763190242
170,544.3677826996806
171,544.3645036987957
172,544.3579459770356
173,544.3481982459142
174,544.3354293348403
175,544.319883905713
176,544.3018762822692
177,544.2817829093891
178,544.2600337897178
179,544.2371029882947
180,544.2134981927933
181,544.1897494531413
182,544.1663974208645
183,544.1439814294373
184,544.1230275708984
185,544.1040367091218
186,544.0874722976793
187,544.0737479570456
188,544.0632149317497
189,544.0561497442956
190,544.0527425955785
191,544.0530872992938
192,544.0571736718719
193,544.0648832450169
194,544.0759889360075
195,544.0901589553959
196,544.1069648151974
197,544.125892924602
198,544.1463590362416
199,544.167724773055
200,544.1893155729971
201,544.2104395373639
202,544.2304067441205
203,544.2485485232427
204,544.2642360478527
205,544.2768975225626
206,544.2860333293825
207,544.2912286536717
208,544.2921632402481
209,544.2886180056508
210,544.2804783413635
211,544.2677341236747
212,544.2504766248119
213,544.2288926230999
214,544.2032560639916
215,544.1739176954619
216,544.1412932003345
217,544.1058504427432
218,544.0680965120989
219,544.0285652487163
220,543.9878058116481
221,543.9463725986369
222,543.9048165533585
223,543.8636777114672
224,543.8234787567673
225,543.7847193328356
226,543.7478708711625
227,543.7133717437412
228,543.6816225651646
229,543.6529814367074
230,543.6277589253324
231,543.6062126834702
232,543.5885418240522
233,543.5748813843296
234,543.5652973370615
235,543.5597825841293
236,543.5582542674383
237,543.5605526806183
238,543.56644207896
239,543.5756136795886
240,543.587691077384
241,543.6022382075445
242,543.6187698833262
243,543.6367648052917
244,543.6556807652163
245,543.6749715729853
246,543.6941050302116
247,543.7125810583686
248,543.7299488972353
249,543.7458222115242
250,543.7598910555334
251,543.771929934615
252,543.781801592085
253,543.7894565726607
254,543.7949290056052
255,543.7983293286363
256,543.7998347934532
257,543.7996786098836
258,543.7981385696822
259,543.7955259265295
260,543.79217513797
261,543.7884348030241
262,543.7846598111299
263,543.7812043921774
264,543.7784154821138
265,543.7766257358593
266,543.7761457456039
267,543.7772554732277
268,543.7801953376754
269,543.785157625851
270,543.7922789078331
271,543.8016340406463
272,543.8132322234497
273,543.8270154112466
274,543.8428591894726
275,543.860576017244
276,543.8799206176315
277,543.900597212261
278,543.9222682360302
279,543.944564129116
280,543.9670937918547
281,543.9894553059115
282,544.0112465897299
283,544.0320757554936
284,544.0515709968118
285,544.0693898044267
286,544.0852272259316
287,544.0988228607788
288,544.109966356686
289,544.1185012891822
290,544.1243273988164
291,544.127401233438
292,544.1277353046665
293,544.1253958734125
294,544.1204994014033
295,544.1132076141201
296,544.1037211213659
297,544.0922716602213
298,544.0791132013298
299,544.0645123267027
300,544.0487384039656
301,544.0320541212456
302,544.0147069170444
303,543.9969217812335
304,543.9788958331574
305,543.9607949891712
306,543.9427529102462
307,543.924872252866
308,543.9072280153354
309,543.8898725365856
310,543.8728415727221
311,543.8561608661204
312,543.8398526554403
313,543.8239416259801
314,543.8084599280786
315,543.7934510899896
316,543.7789727829626
317,543.765098366569
318,543.7519170496063
319,543.7395325070038
320,543.7280599178172
321,543.7176215505025
322,543.7083411814896
323,543.7003377833086
324,543.6937190019147
325,543.6885749246997
326,543.6849725749673
327,543.6829515031462
328,543.6825207561953
329,543.6836573800655
330,543.6863064948225
331,543.6903829270871
332,543.6957743712748
333,543.7023460252245
334,543.7099465919529
335,543.7184154759236
336,543.7275909149006
337,543.7373186322019
338,543.7474603728493
339,543.7579014946225
340,543.7685567390517
341,543.7793734487901
342,543.7903317853861
343,543.8014418640396
344,543.8127380649015
345,543.8242710207631
346,543.8360979284364
347,543.84827195022
348,543.8608315570436
349,543.8737906548295
350,543.887130231126
351,543.9007921310887
352,543.9146754602979
353,543.9286359685568
354,543.9424885128825
355,543.9560123389275
356,543.9689586063936
357,543.9810594662438
358,543.992038055512
359,544.0016188637072
360,544.009537970614
361,544.0155527099573
362,544.0194504251839
363,544.0210561229734
364,544.0202389376751
365,544.016917369763
366,544.0110632773492
367,544.0027046126193
368,543.991926884974
369,543.9788732675037
370,543.9637431952391
371,543.9467893350483
372,543.9283129599249
373,543.908657958144
374,543.8882038600186
375,543.8673583166008
376,543.8465494096776
377,543.8262180524509
378,543.8068106023184
379,543.7887716674638
380,543.7725369539486
381,543.758525897148
382,543.7471337944485
383,543.7387232528301
384,543.7336150169127
385,543.7320786154069
386,543.7343236303142
387,543.740492582973
388,543.7506563248597
389,543.7648124435315
390,543.7828867106865
391,543.8047371966716
392,543.8301604576446
393,543.8588991756433
394,543.8906507348272
395,543.9250763533033
396,543.9618104788929
397,544.0004701677489
398,544.0406641310493
399,544.0820011440045
400,544.1240976281235
401,544.1665844006039
402,544.2091127138395
403,544.2513597032174
404,544.2930332378003
405,544.3338760163116
406,544.3736686970482
407,544.4122319600659
408,544.4494275946194
409,544.4851588495325
410,544.5193703212227
411,544.5520475989837
412,544.5832167531315
413,544.6129435258279
414,544.6413317901969
415,544.6685206165463
416,544.694679307605
417,544.7200000937153
418,544.7446886926864
419,544.7689534571318
420,544.792994225599
421,544.816992184764
422,544.8411019745714
423,544.8654469088112
424,544.8901176314363
425,544.9151739564588
426,544.940649189357
427,544.9665559554314
428,544.9928924817675
429,545.0196484071192
430,545.0468094800312
431,545.0743608285155
432,545.1022887515951
433,545.1305811801652
434,545.159227089136
435,545.1882152168893
436,545.2175324791856
437,545.2471624600663
438,545.2770843001517
439,545.3072721825046
440,545.3376954894701
441,545.3683196355876
442,545.3991075949662
443,545.4300221897238
444,545.4610292073609
445,545.4921013237954
446,545.523222637628
447,545.5543934218066
448,545.5856345559736
449,545.6169911018441
450,545.648534629511
451,545.6803640813589
452,545.712605030342
453,545.7454071194533
454,545.7789393736404
455,545.8133830985981
456,545.8489222607282
457,545.8857315032188
458,545.923962205049
459,545.96372721016
460,546.0050850719037
461,546.0480248616523
462,546.09245268344
463,546.1381809310725
464,546.1849210715661
465,546.2322805076374
466,546.2797639635156
467,546.3267797621381
468,546.3726511477413
469,546.4166324123905
470,546.4579291377296
471,546.4957215337826
472,546.5291897074475
473,546.5575396585302
474,546.5800287916674
475,546.5959897370204
476,546.6048513472526
477,546.6061559257139
478,546.5995720267796
479,546.5849025014949
480,546.5620877829027
481,546.5312046816581
482,546.4924611952085
483,546.4461880254462
484,546.3928276087895
485,546.3329214346384
486,546.2670962686951
487,546.196049675031
488,546.1205350249845
489,546.0413460625957
490,545.9593011033925
491,545.8752270346596
492,545.7899433662303
493,545.7042465994668
494,545.6188951606908
495,545.53459513432
496,545.4519870699256
497,545.3716342289807
498,545.2940127329738
499,545.2195041209521
500,545.1483908211809
501,545.0808549957713
502,545.0169810645868
503,544.9567618974472
504,544.9001082675196
505,544.8468608618866
506,544.7968040404832
507,544.7496805667686
508,544.7052065920996
509,544.6630862074358
510,544.6230248996832
511,544.5847412990038
512,544.54797670057
513,544.5125020053388
514,544.4781219433086
515,544.4446766966743
516,544.4120412972727
517,544.380123363854
518,544.3488598020327
519,544.3182130445546
520,544.2881673667905
521,544.2587258044819
522,544.2299081320953
523,544.2017501248819
524,544.1743039605606
525,544.1476392891636
526,544.1218443525212
527,544.0970265457142
528,544.073311861251
529,544.0508427015583
530,544.0297736783862
531,544.0102653133974
532,543.9924759310326
533,543.9765523263629
534,543.9626199107489
535,543.9507730214094
536,543.9410660031679
537,543.9335055886639
538,543.9280450474026
539,543.9245805397084
540,543.9229500677932
541,543.9229353360352
542,543.9242666874345
543,543.926631031202
544,543.9296823399137
545,543.9330540264547
546,543.9363724729014
547,543.9392711505769
548,543.9414049410876
549,543.9424642740092
550,543.9421885459354
551,543.9403781100183
552,543.9369040433105
553,543.9317149432476
554,543.92484016133
555,543.9163891589783
556,543.9065470650885
557,543.8955669248678
558,543.8837593894058
559,543.8714806432012
560,543.8591192889334
561,543.8470827902836
562,543.8357839056268
563,543.825627316073
564,543.8169964419791
565,543.8102403685256
566,543.8056608868272
567,543.8034998106608
568,543.803926837147
569,543.8070282450809
570,543.8127967211839
571,543.8211226410614
572,543.8317872035741
573,543.8444578735347
574,543.8586866311271
575,543.8739115973281
576,543.8894626596925
577,543.9045716475053
578,543.9183873601222
579,543.9299954074357
580,543.9384424565692
581,543.9427641440103
582,543.9420156537395
583,543.9353037918975
584,543.9218192554487
585,543.9008676609535
586,543.8718978411378
587,543.8345260424602
588,543.7885549653008
589,543.7339869448997
590,543.6710308490218
591,543.6001024655477
592,543.5218183496745
593,543.4369833339373
594,543.3465721182582
595,543.2517054816161
596,543.1536217331036
597,543.0536441819781
598,542.9531456916934
599,542.8535116393713
600,542.7561026582578
601,542.6622184061482
602,542.5730634109099
603,542.4897158669942
604,542.4131000876495
605,542.3439631735675
606,542.2828563802478
607,542.2301216508585
608,542.1858837890162
609,542.1500487251519
610,542.122308215632
611,542.1021510756419
612,542.0888807440675
613,542.081638687363
614,542.0794328694489
615,542.0811702276053
616,542.0856918567677
617,542.0918095006301
618,542.0983419906468
619,542.1041503915575
620,542.1081707028875
621,542.1094429847072
622,542.1071357934798
623,542.1005649654878
624,542.0892061349414
625,542.0727008349172
626,542.0508564507684
627,542.0236406158019
628,541.9911708920592
629,541.9537007727974
630,541.9116031266617
631,541.8653521453343
632,541.8155046774992
633,541.762681579517
634,541.7075494676419
635,541.6508031133855
636,541.5931487014604
637,541.5352881943852
638,541.4779050519737
639,541.4216515198812
640,541.3671376229233
641,541.3149218881765
642,541.2655037416393
643,541.2193175279234
644,541.1767281574803
645,541.1380283947036
646,541.1034377378139
647,541.0731027652128
648,541.0470987879306
649,541.0254326821662
650,541.0080468828173
651,540.9948246558172
652,540.9855968593879
653,540.9801503687546
654,540.9782381110978
655,540.9795902750863
656,540.983925888353
657,540.9909637621375
658,541.0004318400739
659,541.0120742437276
660,541.0256557370861
661,541.0409638222931
662,541.0578090675148
663,541.076024438881
664,541.0954643400391
665,541.1160038322755
666,541.1375382586041
667,541.1599833210863
668,541.1832755314479
669,541.2073728071434
670,541.2322548477891
671,541.2579228945089
672,541.2843985775645
673,541.3117217222475
674,541.3399471230234
675,541.369140401405
676,541.3993731708608
677,541.4307178245584
678,541.463242253059
679,541.4970046412909
680,541.5320482656331
681,541.5683960864696
682,541.6060450351234
683,541.6449601764804
684,541.6850692178153
685,541.7262580093031
686,541.7683677309922
687,541.8111943962565
688,541.8544911059755
689,541.8979731859639
690,541.9413260501658
691,541.9842154590598
692,542.0262997590081
693,542.0672435883843
694,542.1067323755917
695,542.1444867915195
696,542.1802762643545
697,542.2139307928688
698,542.2453505586278
699,542.2745130791881
700,542.3014777503031
701,542.3263876570543
702,542.3494686285571
703,542.371025677969
704,542.3914370860105
705,542.4111463883404
706,542.4306524856165
707,542.4504980744946
708,542.4712565690211
709,542.4935176263817
710,542.5178713778242
711,542.5448915523458
712,542.5751178185342
713,542.6090377766513
714,542.6470691033065
715,542.6895424290283
716,542.7366856151656
717,542.7886101461946
718,542.8453003441523
719,542.9066060481034
720,542.9722392686253
721,543.0417751146326
722,543.114657048238
723,543.1902063301518
724,543.267635406511
725,543.3460649444781
726,543.424544201315
727,543.5020743327486
728,543.5776340666241
729,543.6502069395078
730,543.7188091185717
731,543.7825167576335
732,543.840491836723
733,543.8920054581305
734,543.9364576051787
735,543.9733924628608
736,544.0025086244898
737,544.0236638748622
738,544.0368746663218
739,544.0423107733001
740,544.0402858300035
741,544.0312444918892
742,544.0157468762039
743,543.9944508467541
744,543.9680926759954
745,543.9374666325357
746,543.9034041005589
747,543.8667529404287
748,543.8283578671661
749,543.7890425363347
750,543.749593774967
751,543.7107481063965
752,543.6731805321762
753,543.6374954753359
754,543.6042197662142
755,543.5737974999577
756,543.5465865665218
757,543.5228567269221
758,543.5027892581473
759,543.4864782974186
760,543.4739339898455
761,543.4650874088842
762,543.4597971139515
763,543.4578572363807
764,543.4590070859591
765,543.4629423004642
766,543.469327461049
767,543.4778099271758
768,543.4880344674874
769,543.499658083837
770,543.5123642629372
771,543.5258758109645
772,543.5399654944396
773,543.5544639308982
774,543.5692644713293
775,543.5843250649689
776,543.59966721254
777,543.6153721362039
778,543.6315743270883
779,543.6484527390785
780,543.6662200887591
781,543.6851109563198
782,543.705369554722
783,543.7272380161758
784,543.7509458019523
785,543.7767004773319
786,543.8046797653757
787,543.8350246035202
788,543.8678328948688
789,543.9031537619387
790,543.9409823470328
791,543.9812554463873
792,544.0238483531747
793,544.0685731813476
794,544.1151787848773
795,544.1633523236916
796,544.2127225755175
797,544.2628651604011
798,544.3133098411238
799,544.3635499632758
800,544.4130539309399
801,544.4612784242285
802,544.5076829093776
803,544.5517449086087
804,544.592975458071
805,544.6309341324056
806,544.6652429750053
807,544.6955987310531
808,544.7217829501815
809,544.743669711821
810,544.7612308531826
811,544.7745386586381
812,544.7837660220674
813,544.7891841133473
814,544.7911575740463
815,544.7901372642766
816,544.7866506080658
817,544.7812896702524
818,544.7746972685003
819,544.767551624753
820,544.7605501500199
821,544.7543928537457
822,544.7497656741964
823,544.7473239145364
824,544.7476760002919
825,544.7513678714537
826,544.7588683997432
827,544.7705562690362
828,544.7867088051069
829,544.8074932612268
830,544.8329609749719
831,544.863044592291
832,544.8975582962458
833,544.9362007811698
834,544.978560637791
835,545.0241238787174
836,545.0722834765182
837,545.1223508795836
838,545.173569443806
839,545.2251296398271
840,545.2761858675786
841,545.3258747335175
842,545.3733346471026
843,545.417726513118
844,545.4582551262306
845,545.4941906607382
846,545.5248894688563
847,545.5498132927767
848,545.5685459597141
849,545.5808066943994
850,545.5864593823023
851,545.5855174017679
852,545.5781439085262
853,545.5646476549414
854,545.5454746130499
855,545.5211958811553
856,545.4924925018607
857,545.4601377943766
858,545.4249776409932
859,545.3879090433292
860,545.3498573194701
861,545.3117525072963
862,545.2745057000478
863,545.2389860580308
864,545.2059991683645
865,545.1762673770671
866,545.1504127177517
867,545.128943017463
868,545.1122415856082
869,545.1005606291124
870,545.0940183342038
871,545.0925994954155
872,545.096159565827
873,545.1044319052442
874,545.1170378119562
875,545.1334987771323
876,545.1532503964752
877,545.1756574753267
878,545.2000299815377
879,545.225639573581
880,545.2517364326955
881,545.2775660593558
882,545.3023855770427
883,545.3254789628414
884,545.3461705940161
885,545.3638366709234
886,545.3779144226729
887,545.3879093283082
888,545.3934006898505
889,545.3940457449697
890,545.3895822851614
891,545.3798296771068
892,545.3646883184931
893,545.3441377210061
894,545.3182334206067
895,545.2871027887385
896,545.250939718132
897,545.2099981703674
898,545.164584663544
899,545.1150499034487
900,545.0617799132787
901,545.0051871744913
902,544.9457023867948
903,544.8837673858732
904,544.8198294715562
905,544.7543370105868
906,544.6877359131717
907,544.6204665534657
908,544.5529608179837
909,544.4856390857724
910,544.4189070350271
911,544.3531522762999
912,544.2887409798626
913,544.2260148745668
914,544.1652891238042
915,544.1068514929408
916,544.0509628978342
