frame_number,force
0,544.4505486731143
1,544.4626504272029
2,544.4742163268485
3,544.4851804885557
4,544.4954754786019
5,544.5050327697924
6,544.5137832222958
7,544.5216575841134
8,544.5285870058391
9,544.5345035638427
10,544.5393407861111
11,544.5430341755917
12,544.5455217266401
13,544.5467444308392
14,544.5466467691548
15,544.5451771882286
16,544.542288559371
17,544.5379386191008
18,544.5320903899243
19,544.5247125797977
20,544.515779958622
21,544.5052737099203
22,544.493181755273
23,544.4794990482637
24,544.4642278340931
25,544.4473778710195
26,544.4289666103211
27,544.4090193322047
28,544.3875692357099
29,544.3646574810073
30,544.3403331825883
31,544.3146533519746
32,544.2876827890419
33,544.2594939217801
34,544.2301665948511
35,544.19978780738
36,544.1684514002595
37,544.1362576933807
38,544.1033130737131
39,544.0697295357118
40,544.0356241758114
41,544.0011186428453
42,543.9663385463585
43,543.9314128252109
44,543.8964730795298
45,543.8616528698327
46,543.8270869878579
47,543.7929107043136
48,543.7592589994789
49,543.7262657833302
50,543.6940631124644
51,543.6627804113342
52,543.6325437052342
53,543.6034748723357
54,543.5756909220025
55,543.5493033065542
56,543.5244172733122
57,543.5011312629538
58,543.4795363589843
59,543.4597157918715
60,543.4417445003247
61,543.4256887514262
62,543.411605820784
63,543.3995437336056
64,543.3895410675874
65,543.3816268186141
66,543.3758203301796
67,543.3721312869435
68,543.3705597719162
69,543.3710963856607
70,543.3737224249007
71,543.3784101171701
72,543.3851229074891
73,543.3938157924008
74,543.4044356962137
75,543.4169218842208
76,543.4312064079512
77,543.4472145778496
78,543.4648654589724
79,543.48407238544
80,543.5047434896675
81,543.5267822427911
82,543.550088003107
83,543.5745565696914
84,543.6000807386604
85,543.6265508597164
86,543.6538553906406
87,543.6818814472084
88,543.7105153457763
89,543.7396431358014
90,543.7691511199544
91,543.7989263600806
92,543.8288571677193
93,543.8588335780362
94,543.8887478059762
95,543.9184946834698
96,543.9479720767904
97,543.97708128347
98,544.0057274082042
99,544.0338197168758
100,544.0612719674065
101,544.0880027158008
102,544.1139355956104
103,544.1389995692437
104,544.1631291500767
105,544.1862645950562
106,544.2083520681322
107,544.2293437751093
108,544.2491980701749
109,544.267879533597
110,544.2853590192984
111,544.3016136706327
112,544.3166269028841
113,544.3303883515729
114,544.34289378628
115,544.3541449903179
116,544.3641496072046
117,544.372920955507
118,544.380477814119
119,544.3868441803519
120,544.3920490033266
121,544.3961258950678
122,544.3991128213601
123,544.4010517739397
124,544.4019884253368
125,544.4019717679691
126,544.40105373977
127,544.3992888392455
128,544.3967337331492
129,544.3934468600693
130,544.3894880333648
131,544.3849180469701
132,544.3797982874132
133,544.3741903549712
134,544.368155696499
135,544.3617552522978
136,544.3550491192756
137,544.3480962323176
138,544.3409540652409
139,544.3336783521507
140,544.3263228296277
141,544.3189389999299
142,544.311575915141
143,544.3042799817704
144,544.2970947847747
145,544.2900609297403
146,544.283215902431
147,544.2765939458975
148,544.2702259562043
149,544.2641393981139
150,544.2583582418637
151,544.2529029217199
152,544.2477903165071
153,544.2430337520483
154,544.238643025649
155,544.2346244532989
156,544.2309809406149
157,544.2277120782272
158,544.2248142612546
159,544.2222808311691
160,544.2201022372731
161,544.2182662144105
162,544.2167579733441
163,544.2155604003527
164,544.214654263005
165,544.2140184195672
166,544.2136300298461
167,544.2134647652975
168,544.213497016024
169,544.2137000920726
170,544.2140464165177
171,544.2145077081826
172,544.2150551524306
173,544.215659559122
174,544.2162915075777
175,544.216921479207
176,544.2175199791795
177,544.2180576488149
178,544.2185053699922
179,544.2188343622306
180,544.2190162728807
181,544.2190232613362
182,544.2188280788105
183,544.2184041453008
184,544.2177256248071
185,544.2167674991975
186,544.2155056408428
187,544.2139168843171
188,544.2119790978527
189,544.2096712556964
190,544.2069735130668
191,544.2038672859678
192,544.2003353383479
193,544.196361878766
194,544.1919326678667
195,544.1870351367477
196,544.1816585149048
197,544.1757939651817
198,544.1694347223556
199,544.1625762317918
200,544.1552162848342
201,544.1473551479882
202,544.1389956831531
203,544.1301434559765
204,544.1208068290136
205,544.1109970362327
206,544.1007282357392
207,544.0900175382093
208,544.0788850090539
209,544.0673536427486
210,544.0554493082874
211,544.0432006654835
212,544.0306390525992
213,544.0177983463421
214,544.0047147956711
215,543.9914268313177
216,543.9779748534615
217,543.964401000515
218,543.9507489023845
219,543.937063421784
220,543.9233903869842
221,543.9097763187924
222,543.8962681538737
223,543.8829129660761
224,543.8697576872546
225,543.8568488290557
226,543.8442322071777
227,543.8319526697423
228,543.8200538314131
229,543.8085778147198
230,543.7975649999447
231,543.7870537851313
232,543.7770803582431
233,543.7676784839845
234,543.7588793079755
235,543.7507111807078
236,543.7431995032009
237,543.7363665959151
238,543.7302315923038
239,543.7248103581635
240,543.7201154375373
241,543.7161560254507
242,543.7129379672774
243,543.7104637839728
244,543.7087327217507
245,543.7077408240741
246,543.7074810231184
247,543.7079432471405
248,543.7091145395551
249,543.7109791852516
250,543.7135188400019
251,543.7167126596703
252,543.7205374271172
253,543.724967675982
254,543.7299758117438
255,543.7355322313448
256,543.7416054430831
257,543.7481621885978
258,543.7551675687921
259,543.762585175417
260,543.7703772295921
261,543.7785047277861
262,543.7869275948835
263,543.7956048430261
264,543.8044947341253
265,543.8135549437081
266,543.822742724425
267,543.8320150688775
268,543.8413288726757
269,543.8506410992777
270,543.8599089481434
271,543.869090027393
272,543.8781425317313
273,543.8870254258652
274,543.8956986329594
275,543.904123227024
276,543.912261627674
277,543.9200777953913
278,543.9275374251857
279,543.9346081363842
280,543.9412596562121
281,543.9474639948629
282,543.9531956099394
283,543.9584315584539
284,543.9631516347935
285,543.9673384930045
286,543.970977751575
287,543.9740580789
288,543.9765712579386
289,543.9785122290253
290,543.9798791102004
291,543.9806731947784
292,543.9808989262077
293,543.9805638504404
294,543.9796785459644
295,543.9782565315359
296,543.976314151817
297,543.973870441635
298,543.97094697026
299,543.9675676677432
300,543.9637586358474
301,543.9595479463483
302,543.9549654295183
303,543.9500424555382
304,543.9448117114662
305,543.9393069762003
306,543.9335628955718
307,543.9276147592622
308,543.9214982805912
309,543.9152493795432
310,543.9089039690211
311,543.9024977442853
312,543.896065975613
313,543.889643304346
314,543.8832635428271
315,543.8769594792724
316,543.8707626889509
317,543.864703352882
318,543.8588100849015
319,543.853109767871
320,543.8476274000726
321,543.8423859531983
322,543.8374062437025
323,543.8327068196004
324,543.8283038649174
325,543.8242111237961
326,543.8204398459311
327,543.8169987546603
328,543.8138940386247
329,543.8111293673862
330,543.8087059308975
331,543.8066225024041
332,543.8048755241767
333,543.8034592152524
334,543.8023657000656
335,543.8015851565361
336,543.8011059817954
337,543.8009149731589
338,543.8009975211903
339,543.8013378110375
340,543.8019190280022
341,543.8027235636553
342,543.8037332196022
343,543.8049294070371
344,543.8062933412001
345,543.8078062305485
346,543.8094494608681
347,543.8112047749074
348,543.8130544483749
349,543.8149814631287
350,543.8169696781067
351,543.8190039982098
352,543.8210705410683
353,543.8231568012644
354,543.825251810903
355,543.827346294442
356,543.8294328148727
357,543.8315059081016
358,543.8335622026937
359,543.8356005225402
360,543.8376219703065
361,543.8396299898453
362,543.8416304062664
363,543.8436314429555
364,543.8456437153436
365,543.8476802015722
366,543.8497561904427
367,543.8518892072744
368,543.854098918456
369,543.8564070154697
370,543.8588370791437
371,543.8614144251454
372,543.8641659323366
373,543.8671198563328
374,543.8703056311787
375,543.8737536622982
376,543.8774951137837
377,543.8815616927782
378,543.8859854333149
379,543.8907984815515
380,543.8960328839064
381,543.9017203792317
382,543.907892195994
383,543.9145788556044
384,543.9218099836562
385,543.9296141317762
386,543.9380186137079
387,543.9470493596137
388,543.9567307920638
389,543.9670857258329
390,543.9781352919715
391,543.9898988851855
392,544.0023941326897
393,544.0156368823939
394,544.0296412083765
395,544.0444194317962
396,544.0599821554719
397,544.076338310214
398,544.0934952107426
399,544.1114586189151
400,544.1302328122321
401,544.1498206560432
402,544.170223678205
403,544.1914421448932
404,544.2134751358955
405,544.2363206172804
406,544.2599755092166
407,544.2844357471097
408,544.3096963348911
409,544.3357513898296
410,544.3625941784713
411,544.3902171432923
412,544.4186119194013
413,544.4477693401271
414,544.4776794296187
415,544.5083313800936
416,544.5397135116219
417,544.571813213489
418,544.6046168678955
419,544.6381097584674
420,544.6722759673917
421,544.7070982657264
422,544.7425580013647
423,544.7786349882086
424,544.8153073986017
425,544.8525516594909
426,544.8903423515586
427,544.928652109852
428,544.9674515242885
429,545.0067090388643
430,545.0463908492989
431,545.0864607998524
432,545.1268802808756
433,545.1676081292505
434,545.2086005342833
435,545.2498109518174
436,545.2911900293971
437,545.3326855452576
438,545.3742423636817
439,545.415802408829
440,545.4573046586944
441,545.4986851605441
442,545.5398770691153
443,545.5808107088834
444,545.6214136615738
445,545.6616108796769
446,545.7013248260587
447,545.7404756389991
448,545.7789813213852
449,545.8167579525943
450,545.8537199218363
451,545.8897801820484
452,545.9248505234291
453,545.9588418652637
454,545.9916645641867
455,546.0232287368591
456,546.0534445953359
457,546.0822227939417
458,546.1094747869797
459,546.1351131970279
460,546.1590521939936
461,546.181207885491
462,546.2014987191731
463,546.2198458971528
464,546.236173801724
465,546.2504104307633
466,546.2624878407513
467,546.2723425950367
468,546.2799162142758
469,546.2851556247884
470,546.2880135992583
471,546.2884491832924
472,546.2864281010135
473,546.2819231329023
474,546.2749144592682
475,546.2653899629696
476,546.2533454854973
477,546.2387850313955
478,546.2217209171853
479,546.2021738623052
480,546.1801730209297
481,546.1557559547522
482,546.128968547929
483,546.099864866371
484,546.0685069643176
485,546.0349646414586
486,545.9993151537975
487,545.9616428811687
488,545.9220389540686
489,545.8806008424385
490,545.8374319093543
491,545.7926409331097
492,545.7463416016411
493,545.6986519834743
494,545.6496939794494
495,545.5995927595355
496,545.5484761892181
497,545.4964742502166
498,545.4437184605478
499,545.3903412990162
500,545.3364756390981
501,545.282254196914
502,545.2278089973667
503,545.1732708613928
504,545.1187689158888
505,545.0644301267714
506,545.0103788550848
507,544.9567364359291
508,544.9036207799119
509,544.8511459966833
510,544.7994220399446
511,544.7485543732402
512,544.6986436559075
513,544.649785448835
514,544.6020699401254
515,544.5555816913386
516,544.5103994055835
517,544.4665957191405
518,544.4242370183307
519,544.3833832830857
520,544.3440879584355
521,544.3063978550106
522,544.2703530793644
523,544.235986994149
524,544.203326207021
525,544.1723905861263
526,544.1431932995307
527,544.1157408759514
528,544.09003328426
529,544.0660640293306
530,544.0438202621742
531,544.0232829031648
532,544.004426778256
533,543.9872207689416
534,543.9716279770562
535,543.9576059054419
536,543.945106655268
537,543.934077140532
538,543.9244593200974
539,543.9161904475098
540,543.9092033387049
541,543.9034266574782
542,543.8987852181651
543,543.8952003042336
544,543.8925900005141
545,543.8908695360104
546,543.8899516341539
547,543.8897468678929
548,543.8901640175588
549,543.8911104295144
550,543.8924923731878
551,543.8942153936357
552,543.8961846565818
553,543.8983052830698
554,543.9004826713882
555,543.9026228047959
556,543.9046325447964
557,543.9064199109615
558,543.9078943491047
559,543.90896698976
560,543.9095508986915
561,543.9095613207958
562,543.9089159182286
563,543.9075350028667
564,543.9053417625389
565,543.9022624801693
566,543.8982267451535
567,543.8931676566581
568,543.887022018756
569,543.879730527288
570,543.8712379482295
571,543.8614932873569
572,543.8504499511287
573,543.8380658987901
574,543.8243037857745
575,543.809131098648
576,543.7925202819879
577,543.7744488573727
578,543.7548995339725
579,543.7338603092807
580,543.711324557548
581,543.6872911026354
582,543.661764271409
583,543.6347539235194
584,543.6062754532603
585,543.5763497590901
586,543.545003176543
587,543.5122673709513
588,543.4781791876735
589,543.4427804589303
590,543.4061177675433
591,543.3682421688043
592,543.3292088726323
593,543.2890768891837
594,543.2479086420097
595,543.2057695534779
596,543.1627276076065
597,543.1188528961101
598,543.0742171544038
599,543.0288932951267
600,542.982954946902
601,542.9364760055761
602,542.8895302044774
603,542.8421907095131
604,542.794529744168
605,542.7466182487436
606,542.6985255775925
607,542.650319237669
608,542.6020646713233
609,542.5538250857614
610,542.5056613307958
611,542.457631825342
612,542.409792531762
613,542.362196975841
614,542.3148963089336
615,542.2679394075717
616,542.2213730047631
617,542.1752418465951
618,542.1295888676237
619,542.0844553786703
620,542.039881260768
621,541.9959051589624
622,541.9525646696882
623,541.9098965159119
624,541.8679367053456
625,541.8267206685263
626,541.7862833749803
627,541.7466594268503
628,541.7078831303569
629,541.669988546309
630,541.6330095214212
631,541.5969797023171
632,541.5619325338863
633,541.5279012432179
634,541.4949188099099
635,541.4630179234263
636,541.4322309283856
637,541.402589758997
638,541.3741258641087
639,541.3468701244383
640,541.3208527635036
641,541.296103253587
642,541.2726502179453
643,541.2505213305737
644,541.2297432150543
645,541.2103413440635
646,541.1923399409255
647,541.1757618843365
648,541.1606286172248
649,541.1469600607371
650,541.1347745345605
651,541.1240886850875
652,541.1149174230809
653,541.1072738722542
654,541.1011693293708
655,541.0966132351841
656,541.0936131542937
657,541.0921747612775
658,541.0923018304359
659,541.0939962271132
660,541.097257899719
661,541.1020848729163
662,541.1084732434954
663,541.1164171808731
664,541.1259089338694
665,541.136938844662
666,541.1494953700203
667,541.1635651093547
668,541.1791328387018
669,541.1961815492973
670,541.2146924889726
671,541.2346452045034
672,541.2560175833547
673,541.2787858937622
674,541.3029248225299
675,541.3284075102584
676,541.3552055840751
677,541.3832891882446
678,541.4126270130555
679,541.4431863219553
680,541.4749329762737
681,541.5078314565573
682,541.5418448798991
683,541.5769350135522
684,541.613062286034
685,541.6501857975243
686,541.688263331569
687,541.7272513699957
688,541.7671051124362
689,541.8077785010479
690,541.8492242502454
691,541.8913938808383
692,541.9342377578167
693,541.9777051308288
694,542.0217441760194
695,542.0663020375187
696,542.1113248668058
697,542.1567578586559
698,542.2025452832524
699,542.2486305148558
700,542.2949560578013
701,542.3414635707652
702,542.3880938905556
703,542.4347870572141
704,542.4814823425606
705,542.528118284306
706,542.5746327276833
707,542.6209628764199
708,542.667045354681
709,542.7128162813218
710,542.7582113575846
711,542.8031659694464
712,542.8476153060132
713,542.891494495433
714,542.9347387597417
715,542.9772835900034
716,543.0190649430634
717,543.0600194610648
718,543.1000847145388
719,543.1391994693705
720,543.1773039772389
721,543.2143402881964
722,543.250252583058
723,543.2849875224414
724,543.3184946087388
725,543.3507265569892
726,543.3816396704015
727,543.4111942159401
728,543.4393547948026
729,543.4660907019254
730,543.4913762681911
731,543.5151911788862
732,543.5375207621175
733,543.5583562411654
734,543.5776949451057
735,543.5955404726013
736,543.6119028047673
737,543.6267983644692
738,543.6402500210799
739,543.6522870412304
740,543.6629449871742
741,543.6722655649291
742,543.6802964245418
743,543.6870909149867
744,543.6927077965279
745,543.6972109138156
746,543.7006688335338
747,543.7031544510585
748,543.7047445710964
749,543.7055194672757
750,543.7055624251424
751,543.7049592723337
752,543.7037978992912
753,543.7021677737926
754,543.7001594525624
755,543.6978640930798
756,543.695372968581
757,543.6927769894033
758,543.6901662341573
759,543.6876294943962
760,543.6852538362153
761,543.6831241816224
762,543.6813229120052
763,543.6799294958792
764,543.6790201431659
765,543.6786674881018
766,543.6789403023374
767,543.6799032390353
768,543.6816166080071
769,543.6841361811549
770,543.6875130267672
771,543.6917933707549
772,543.697018482906
773,543.7032245866772
774,543.7104427917401
775,543.7186990490462
776,543.7280141283452
777,543.7384036179883
778,543.7498779467882
779,543.7624424278732
780,543.7760973249004
781,543.7908379415499
782,543.8066547356036
783,543.8235334587304
784,543.841455322252
785,543.8603971879654
786,543.8803317820053
787,543.9012279290623
788,543.9230508040763
789,543.9457621987735
790,543.9693208010405
791,543.993682485774
792,544.0188006160515
793,544.0446263531078
794,544.0711089731127
795,544.0981961885404
796,544.1258344720711
797,544.1539693811953
798,544.18254588173
799,544.2115086682361
800,544.2408024789224
801,544.2703724021806
802,544.3001641715791
803,544.3301244460653
804,544.3602010721971
805,544.3903433252955
806,544.4205021265151
807,544.4506302332526
808,544.4806824010706
809,544.5106155161372
810,544.5403886978263
811,544.5699633716285
812,544.5993033129471
813,544.6283746626632
814,544.6571459155865
815,544.6855878831174
816,544.7136736317259
817,544.7413783992872
818,544.7686794919643
819,544.7955561650431
820,544.8219894914682
821,544.8479622215705
822,544.8734586369002
823,544.8984644007205
824,544.9229664077388
825,544.946952635842
826,544.970412002694
827,544.9933342300325
828,545.0157097184479
829,545.0375294352813
830,545.0587848177679
831,545.0794676926598
832,545.0995702125417
833,545.119084808217
834,545.1380041560705
835,545.1563211592642
836,545.1740289418323
837,545.1911208548096
838,545.207590493281
839,545.2234317228562
840,545.2386387138808
841,545.2532059816938
842,545.2671284312016
843,545.2804014038076
844,545.2930207242696
845,545.304982744504
846,545.3162843809343
847,545.3269231418165
848,545.3368971410392
849,545.3462050953069
850,545.3548463024244
851,545.3628205994991
852,545.3701283009151
853,545.3767701167827
854,545.3827470533736
855,545.388060297924
856,545.3927110908539
857,545.3967005885802
858,545.4000297197952
859,545.4026990378601
860,545.4047085722317
861,545.4060576824888
862,545.406744919032
863,545.4067678945621
864,545.4061231701718
865,545.4048061596357
866,545.4028110553414
867,545.4001307789885
868,545.3967569594421
869,545.3926799390986
870,545.3878888092364
871,545.3823714743548
872,545.3761147451659
873,545.3691044592985
874,545.3613256278809
875,545.3527626054142
876,545.3433992800282
877,545.3332192812228
878,545.3222062022809
879,545.310343834514
880,545.2976164102986
881,545.2840088514814
882,545.2695070192515
883,545.2540979611117
884,545.2377701504477
885,545.2205137146885
886,545.2023206491224
887,545.1831850144746
888,545.163103116789
889,545.1420736678633
890,545.1200979240259
891,545.0971798010626
892,545.0733259637543
893,545.0485458892433
894,545.0228519037645
895,544.9962591922166
896,544.9687857800677
897,544.9404524874598
898,544.9112828559716
899,544.8813030491956
900,544.8505417290424
901,544.8190299104599
902,544.7868007978088
903,544.7538896061975
904,544.7203333704559
905,544.6861707434833
906,544.6514417850917
907,544.6161877425227
908,544.5804508242667
909,544.5442739692446
910,544.5077006137227
911,544.4707744586501
912,544.4335392405771
913,544.396038509869
914,544.358315420216
915,544.3204125330393
916,544.2823716392642
917,544.2442335994433
