frame_number,force
0,544.4756640135015
1,544.4824282050063
2,544.4883802212245
3,544.4934883641191
4,544.4977216491764
5,544.5010500133815
6,544.5034445288759
7,544.5048776205093
8,544.5053232852129
9,544.5047573109498
10,544.5031574930412
11,544.5005038458618
12,544.4967788081552
13,544.4919674404407
14,544.486057613222
15,544.4790401849932
16,544.4709091692961
17,544.4616618901974
18,544.4512991255241
19,544.4398252371395
20,544.4272482875399
21,544.4135801420108
22,544.3988365554303
23,544.383037242571
24,544.3662059305932
25,544.3483703924537
26,544.329562460164
27,544.3098180170963
28,544.2891769687749
29,544.2676831917357
30,544.2453844601065
31,544.2223323496356
32,544.1985821190841
33,544.1741925691613
34,544.1492258793947
35,544.1237474233805
36,544.0978255628409
37,544.0715314209917
38,544.0449386359134
39,544.0181230948243
40,543.991162650273
41,543.9641368193113
42,543.9371264667752
43,543.9102134739571
44,543.883480394179
45,543.8570100970354
46,543.8308854033162
47,543.8051887128419
48,543.780001627683
49,543.7554045734707
50,543.7314764217011
51,543.7082941160056
52,543.6859323053311
53,543.664462986915
54,543.6439551619069
55,543.6244745064515
56,543.6060830609241
57,543.5888389397212
58,543.5727960636016
59,543.5580039161362
60,543.544507325454
61,543.5323462721915
62,543.5215557243486
63,543.5121654996302
64,543.5042001558152
65,543.4976789096875
66,543.4926155850004
67,543.4890185897412
68,543.4868909226299
69,543.4862302083868
70,543.487028760945
71,543.489273673493
72,543.4929469339886
73,543.4980255645321
74,543.50448178279
75,543.5122831835947
76,543.5213929389022
77,543.5317700143584
78,543.5433694007528
79,543.5561423586519
80,543.5700366745644
81,543.5849969270843
82,543.6009647615588
83,543.6178791719194
84,543.6356767883775
85,543.6542921697311
86,543.6736580990121
87,543.6937058811304
88,543.7143656410841
89,543.7355666213002
90,543.7572374767922
91,543.779306567004
92,543.8017022433597
93,543.8243531315815
94,543.8471884078298
95,543.8701380677353
96,543.8931331874855
97,543.9161061762425
98,543.9389910191871
99,543.9617235104122
100,543.9842414747624
101,544.0064849776383
102,544.0283965217568
103,544.0499212299534
104,544.0710070133041
105,544.0916047241162
106,544.1116682935708
107,544.131154853915
108,544.1500248450282
109,544.1682421049753
110,544.1857739439404
111,544.2025912008463
112,544.2186682820686
113,544.2339831818633
114,544.2485174843684
115,544.2622563472721
116,544.275188467475
117,544.287306029309
118,544.2986046360643
119,544.3090832257142
120,544.3187439717916
121,544.327592170375
122,544.3356361140596
123,544.342886953663
124,544.3493585483578
125,544.355067305039
126,544.3600320079759
127,544.3642736400166
128,544.367815196727
129,544.3706814948945
130,544.3728989768889
131,544.3744955124116
132,544.3755001991184
133,544.3759431634753
134,544.3758553630862
135,544.3752683916825
136,544.3742142879283
137,544.3727253490872
138,544.3708339504184
139,544.3685723709892
140,544.3659726264558
141,544.3630663092789
142,544.3598844367483
143,544.3564573070406
144,544.3528143633491
145,544.3489840660351
146,544.3449937728805
147,544.3408696278235
148,544.3366364588143
149,544.3323176854971
150,544.327935237338
151,544.3235094826518
152,544.3190591687975
153,544.3146013737056
154,544.3101514689396
155,544.30572309464
156,544.3013281467888
157,544.2969767771003
158,544.2926774054826
159,544.2884367445548
160,544.2842598353334
161,544.2801500929814
162,544.2761093614362
163,544.2721379757355
164,544.2682348309795
165,544.264397456997
166,544.2606220978766
167,544.2569037955128
168,544.2532364762296
169,544.2496130394608
170,544.2460254474684
171,544.2424648151897
172,544.2389214994691
173,544.2353851871338
174,544.2318449816011
175,544.2282894879553
176,544.2247068966581
177,544.2210850661411
178,544.2174116044064
179,544.2136739495461
180,544.2098594490225
181,544.205955437701
182,544.2019493148294
183,544.1978286201868
184,544.1935811094482
185,544.1891948286025
186,544.1846581871745
187,544.1799600300724
188,544.1750897080093
189,544.1700371466105
190,544.1647929145047
191,544.1593482908855
192,544.1536953331229
193,544.1478269449077
194,544.1417369451577
195,544.1354201375304
196,544.1288723799627
197,544.1220906532651
198,544.1150731275652
199,544.1078192253468
200,544.1003296799262
201,544.09260658835
202,544.084653457787
203,544.0764752444404
204,544.0680783839086
205,544.0594708118903
206,544.0506619742587
207,544.0416628257491
208,544.0324858166897
209,544.023144867358
210,544.0136553297342
211,544.0040339366808
212,543.9942987388428
213,543.9844690297529
214,543.9745652597762
215,543.9646089396871
216,543.9546225348574
217,543.9446293512135
218,543.9346534142603
219,543.9247193425495
220,543.9148522169149
221,543.9050774466174
222,543.895420633322
223,543.8859074336996
224,543.8765634213863
225,543.8674139490297
226,543.8584840111662
227,543.8497981087137
228,543.8413801158587
229,543.8332531500566
230,543.8254394458302
231,543.8179602331028
232,543.8108356209535
233,543.8040844878209
234,543.7977243792358
235,543.7917714140644
236,543.7862402000683
237,543.7811437594574
238,543.776493465045
239,543.7722989875217
240,543.7685682542294
241,543.765307419637
242,543.762520847556
243,543.7602111049347
244,543.7583789668384
245,543.75702343198
246,543.7561417479201
247,543.7557294448031
248,543.7557803762754
249,543.7562867661292
250,543.7572392592986
251,543.7586269760948
252,543.7604375689295
253,543.7626572811741
254,543.7652710081774
255,543.7682623607345
256,543.7716137314208
257,543.7753063642249
258,543.7793204279178
259,543.7836350935343
260,543.788228616195
261,543.7930784212441
262,543.7981611943784
263,543.8034529751409
264,543.8089292528834
265,543.8145650642292
266,543.820335091272
267,543.8262137601743
268,543.8321753402272
269,543.8381940436412
270,543.8442441263306
271,543.8502999898475
272,543.8563362844859
273,543.8623280134095
274,543.8682506374441
275,543.8740801799721
276,543.879793331228
277,543.8853675512066
278,543.8907811703245
279,543.8960134869386
280,543.9010448608116
281,543.905856801639
282,543.9104320518251
283,543.9147546628083
284,543.918810064318
285,543.9225851259462
286,543.9260682103734
287,543.9292492176085
288,543.9321196197207
289,543.9346724857035
290,543.936902496256
291,543.938805948398
292,543.9403807499554
293,543.9416264040261
294,543.9425439835259
295,543.943136095894
296,543.9434068381074
297,543.9433617423288
298,543.9430077127465
299,543.9423529543849
300,543.9414068948304
301,543.9401800999128
302,543.9386841843976
303,543.936931718735
304,543.9349361328824
305,543.9327116181622
306,543.9302730280234
307,543.9276357784423
308,543.9248157484897
309,543.9218291813771
310,543.9186925861775
311,543.9154226403989
312,543.9120360936213
313,543.9085496724396
314,543.9049799870654
315,543.901343440107
316,543.897656138146
317,543.8939338066734
318,543.8901917088215
319,543.8864445682957
320,543.8827064969884
321,543.8789909278604
322,543.8753105537851
323,543.8716772731345
324,543.8681021429173
325,543.8645953401973
326,543.861166132404
327,543.8578228570219
328,543.8545729109942
329,543.8514227499975
330,543.8483778975694
331,543.8454429639557
332,543.8426216744699
333,543.8399169070738
334,543.8373307387778
335,543.8348645003449
336,543.8325188386435
337,543.8302937858009
338,543.8281888340474
339,543.8262030149182
340,543.8243349813966
341,543.8225830916862
342,543.8209454935437
343,543.8194202084275
344,543.818005215021
345,543.8166985319091
346,543.8154982993107
347,543.8144028598816
348,543.8134108386799
349,543.8125212223785
350,543.8117334377173
351,543.8110474290809
352,543.8104637349923
353,543.8099835632034
354,543.809608863844
355,543.8093423997785
356,543.8091878130632
357,543.8091496863184
358,543.809233597942
359,543.8094461702209
360,543.8097951095007
361,543.8102892376877
362,543.8109385145284
363,543.8117540503129
364,543.8127481088248
365,543.8139341004805
366,543.8153265656844
367,543.8169411485228
368,543.8187945609773
369,543.8209045378474
370,543.8232897825814
371,543.8259699043059
372,543.8289653465538
373,543.8322973084353
374,543.8359876591928
375,543.8400588471698
376,543.8445338042083
377,543.8494358464038
378,543.8547885720296
379,543.8606157573209
380,543.8669412506804
381,543.8737888657605
382,543.8811822738359
383,543.8891448959445
384,543.8976997954858
385,543.9068695722763
386,543.9166762593674
387,543.9271412240587
388,543.9382850743785
389,543.9501275718849
390,543.9626875511088
391,543.9759828455152
392,543.9900302195797
393,544.0048453064919
394,544.0204425510267
395,544.0368351571976
396,544.0540350403337
397,544.0720527831788
398,544.0908975955355
399,544.1105772769438
400,544.1310981819643
401,544.1524651877832
402,544.1746816639626
403,544.197749444146
404,544.2216687994064
405,544.2464384127853
406,544.272055354529
407,544.298515057655
408,544.3258112936913
409,544.3539361486006
410,544.3828799989699
411,544.4126314885394
412,544.4431775050543
413,544.4745031572571
414,544.5065917516043
415,544.539424768125
416,544.5729818349081
417,544.6072407010721
418,544.6421772086061
419,544.677765264014
420,544.7139768111131
421,544.7507818065566
422,544.7881481996217
423,544.8260419174857
424,544.8644268567199
425,544.9032648812039
426,544.9425158262546
427,544.9821375085165
428,545.0220857410945
429,545.062314353536
430,545.1027752165421
431,545.1434182715924
432,545.1841915659077
433,545.225041293354
434,545.2659118419955
435,545.30674584905
436,545.3474842640042
437,545.3880664206033
438,545.4284301183369
439,545.4685117138802
440,545.5082462227865
441,545.5475674316094
442,545.5864080205905
443,545.6246996970385
444,545.6623733394637
445,545.6993591523828
446,545.7355868314779
447,545.7709857385295
448,545.8054850853404
449,545.839014125789
450,545.8715023552123
451,545.9028797164145
452,545.9330768115852
453,545.9620251192641
454,545.9896572153162
455,546.0159069968279
456,546.0407099079246
457,546.0640031666846
458,546.0857259924869
459,546.1058198332698
460,546.1242285923205
461,546.1408988543419
462,546.1557801105803
463,546.1688249826417
464,546.1799894443454
465,546.1892330407094
466,546.196519103035
467,546.2018149589788
468,546.205092136294
469,546.2063265585657
470,546.2054987308665
471,546.2025939129862
472,546.1976022778144
473,546.1905190524889
474,546.1813446400103
475,546.1700847191292
476,546.1567503205024
477,546.141357877424
478,546.123929249854
479,546.1044917209348
480,546.0830779656509
481,546.0597259917174
482,546.0344790531759
483,546.007385537526
484,545.9784988274992
485,545.9478771387189
486,545.9155833345066
487,545.8816847190288
488,545.8462528099408
489,545.8093630916956
490,545.77109475083
491,545.7315303947312
492,545.6907557555645
493,545.648859381145
494,545.6059323145818
495,545.5620677645641
496,545.5173607682337
497,545.4719078486936
498,545.4258066693014
499,545.3791556869321
500,545.3320538063653
501,545.2846000378776
502,545.2368931599277
503,545.1890313884611
504,545.1411120539196
505,545.0932312866862
506,545.0454837115143
507,544.9979621514447
508,544.9507573416771
509,544.9039576538117
510,544.8576488308062
511,544.8119137329546
512,544.7668320951996
513,544.7224802961532
514,544.6789311393333
515,544.6362536472764
516,544.5945128693613
517,544.5537697042814
518,544.5140807380843
519,544.4754980985911
520,544.4380693268948
521,544.4018372665713
522,544.3668399711089
523,544.3331106297827
524,544.3006775117938
525,544.2695639281286
526,544.2397882104057
527,544.2113637059363
528,544.1842987882317
529,544.1585968821828
530,544.1342565032256
531,544.1112713100462
532,544.0896301706995
533,544.0693172422548
534,544.0503120641589
535,544.032589665456
536,544.016120685894
537,544.0008715108339
538,543.9868044197983
539,543.9738777484268
540,543.9620460635444
541,543.9512603509434
542,543.9414682153222
543,543.9326140915665
544,543.9246394662216
545,543.9174831077385
546,543.911081304035
547,543.9053681060706
548,543.9002755762956
549,543.8957340408499
550,543.891672344248
551,543.8880181051343
552,543.8846979716237
553,543.8816378748065
554,543.8787632791588
555,543.8759994288868
556,543.8732715896238
557,543.8705052853121
558,543.8676265303639
559,543.8645620572522
560,543.8612395396278
561,543.857587810944
562,543.8535370784253
563,543.8490191319935
564,543.8439675475656
565,543.8383178840674
566,543.832007873577
567,543.8249776041588
568,543.8171696950351
569,543.8085294637644
570,543.7990050850802
571,543.7885477410731
572,543.7771117624657
573,543.7646547607817
574,543.7511377512595
575,543.736525266442
576,543.7207854604466
577,543.7038902038782
578,543.6858151691517
579,543.6665399057111
580,543.6460479043479
581,543.6243266495687
582,543.6013676588024
583,543.5771665071671
584,543.5517228364948
585,543.5250403472982
586,543.4971267724305
587,543.4679938314375
588,543.437657165021
589,543.4061362495136
590,543.3734542916567
591,543.3396381042952
592,543.3047179639103
593,543.2687274512527
594,543.231703276647
595,543.1936850917467
596,543.1547152896732
597,543.1148387956786
598,543.0741028507915
599,543.0325567911643
600,542.9902518258979
601,542.9472408159671
602,542.9035780566446
603,542.8593190655866
604,542.8145203785032
605,542.7692393540925
606,542.7235339897322
607,542.6774627492713
608,542.6310844041361
609,542.5844578887888
610,542.537642171315
611,542.4906961395332
612,542.4436785025682
613,542.3966477074047
614,542.3496618695153
615,542.302778716255
616,542.2560555413531
617,542.2095491686284
618,542.1633159229953
619,542.117411606863
620,542.0718914800575
621,542.0268102413669
622,541.9822220098108
623,541.9381803038668
624,541.8947380172372
625,541.8519473902056
626,541.8098599760817
627,541.768526602591
628,541.7279973283794
629,541.6883213950636
630,541.649547175421
631,541.6117221183501
632,541.5748926911506
633,541.5391043195277
634,541.5044013255811
635,541.4708268639929
636,541.4384228566929
637,541.4072299263804
638,541.3772873293616
639,541.3486328881895
640,541.3213029245754
641,541.2953321929806
642,541.2707538152556
643,541.2475992167258
644,541.2258980641924
645,541.2056782063332
646,541.1869656169266
647,541.1697843412395
648,541.1541564458714
649,541.1401019723539
650,541.127638894881
651,541.1167830826379
652,541.1075482672522
653,541.099946015813
654,541.0939857096436
655,541.0896745286094
656,541.0870174403404
657,541.0860171935217
658,541.0866743144006
659,541.0889871058653
660,541.0929516488183
661,541.0985618060097
662,541.1058092288295
663,541.1146833676974
664,541.1251714865984
665,541.1372586820697
666,541.1509279066903
667,541.1661599969455
668,541.1829337051998
669,541.2012257353689
670,541.221010781739
671,541.2422615703529
672,541.2649489024781
673,541.289041699832
674,541.3145070513766
675,541.3413102616024
676,541.3694149003276
677,541.3987828541403
678,541.4293743796086
679,541.4611481582423
680,541.4940613529849
681,541.5280696659029
682,541.563127396854
683,541.5991875031974
684,541.6362016608969
685,541.6741203275534
686,541.7128928079635
687,541.7524673227538
688,541.7927910804763
689,541.8338103532767
690,541.8754705559908
691,541.9177163283808
692,541.9604916201669
693,542.003739778433
694,542.0474036368595
695,542.0914256061001
696,542.1357477645943
697,542.1803119492495
698,542.2250598456998
699,542.2699330781
700,542.3148732985271
701,542.3598222761033
702,542.4047219860532
703,542.4495146990683
704,542.4941430714546
705,542.5385502365324
706,542.5826798976963
707,542.6264764234929
708,542.6698849450113
709,542.7128514557807
710,542.7553229143067
711,542.7972473493925
712,542.838573968455
713,542.8792532690692
714,542.9192371539568
715,542.9584790496208
716,542.9969340288159
717,543.034558936997
718,543.071312522782
719,543.1071555723106
720,543.1420510471606
721,543.1759642251978
722,543.208862843418
723,543.240717241592
724,543.2715005053537
725,543.3011886072862
726,543.3297605445041
727,543.3571984711391
728,543.3834878239642
729,543.408617439188
730,543.4325796583191
731,543.4553704209828
732,543.4769893426401
733,543.4974397752687
734,543.5167288491989
735,543.534867494501
736,543.551870440668
737,543.5677561938246
738,543.5825469912478
739,543.5962687334966
740,543.6089508948141
741,543.6206264126622
742,543.6313315573285
743,543.6411057826186
744,543.6499915587668
745,543.658034188861
746,543.6652816102686
747,543.6717841827736
748,543.6775944653149
749,543.6827669832282
750,543.6873579877446
751,543.6914252092855
752,543.6950276059773
753,543.6982251087854
754,543.7010783646721
755,543.7036484791383
756,543.7059967594774
757,543.7081844601145
758,543.7102725315167
759,543.7123213742161
760,543.7143905994038
761,543.7165387973635
762,543.7188233148353
763,543.7213000423505
764,543.7240232125841
765,543.7270452107151
766,543.7304163975969
767,543.7341849462841
768,543.7383966921983
769,543.7430949969494
770,543.748320625582
771,543.7541116368467
772,543.760503286072
773,543.7675279403373
774,543.7752150058462
775,543.783590867553
776,543.7926788411298
777,543.8024991373031
778,543.8130688385465
779,543.8244018881478
780,543.8365090917807
781,543.8493981318699
782,543.8630735951358
783,543.8775370136268
784,543.8927869192518
785,543.908818911419
786,543.9256257370171
787,543.9431973817414
788,543.9615211716849
789,543.9805818841791
790,544.0003618670494
791,544.020841165647
792,544.0419976570689
793,544.063807190853
794,544.0862437352598
795,544.109279528184
796,544.1328852317753
797,544.1570300899157
798,544.1816820877076
799,544.2068081120517
800,544.2323741122631
801,544.2583452595288
802,544.2846861039106
803,544.311360727571
804,544.3383328929316
805,544.365566184492
806,544.393024143083
807,544.4206703914692
808,544.4484687504645
809,544.4763833450008
810,544.5043786998059
811,544.5324198245165
812,544.5604722882056
813,544.5885022834111
814,544.6164766798406
815,544.6443630680088
816,544.6721297931683
817,544.6997459800476
818,544.7271815491317
819,544.7544072254694
820,544.7813945411131
821,544.8081158322291
822,544.8345442317486
823,544.8606536583261
824,544.8864188023949
825,544.9118151101858
826,544.9368187666147
827,544.9614066779553
828,544.9855564552082
829,545.0092463990402
830,545.0324554870207
831,545.0551633636031
832,545.0773503329838
833,545.0989973547106
834,545.1200860417744
835,545.1405986609087
836,545.1605181348955
837,545.1798280467068
838,545.1985126452392
839,545.2165568522781
840,545.2339462702748
841,545.2506671905201
842,545.2667066012909
843,545.2820521954744
844,545.2966923770239
845,545.3106162654258
846,545.3238136972225
847,545.3362752235792
848,545.3479921029063
849,545.3589562876755
850,545.3691604048271
851,545.3785977295154
852,545.3872621522675
853,545.3951481399
854,545.4022506907924
855,545.4085652853884
856,545.4140878330066
857,545.4188146160769
858,545.4227422328107
859,545.425867539238
860,545.4281875916209
861,545.4296995904552
862,545.4304008274238
863,545.43028863667
864,545.4293603516618
865,545.4276132688315
866,545.4250446191189
867,545.4216515484381
868,545.4174311078395
869,545.4123802538033
870,545.4064958588057
871,545.3997747321399
872,545.392213650863
873,545.3838094005312
874,545.3745588250976
875,545.3644588850963
876,545.353506723128
877,545.3416997356609
878,545.329035650182
879,545.3155126067239
880,545.301129242718
881,545.2858847800076
882,545.2697791126907
883,545.2528128943168
884,545.2349876229108
885,545.2163057224628
886,545.1967706198615
887,545.1763868165859
888,545.1551599546106
889,545.1330968758865
890,545.1102056746158
891,545.0864957415447
892,545.0619777997128
893,545.0366639313436
894,545.0105675956647
895,544.983703637435
896,544.9560882859598
897,544.9277391445034
898,544.8986751702031
899,544.868916644813
900,544.83848513686
901,544.8074034560414
902,544.7756956008815
903,544.7433867006836
904,544.7105029526228
905,544.6770715545218
906,544.6431206336604
907,544.6086791719925
908,544.5737769282906
909,544.5384443578788
910,544.5027125307245
911,544.4666130487541
912,544.430177963419
913,544.3934396947159
914,544.356430952958
915,544.3191846644706
916,544.2817339020177
917,544.2441118202928
