frame_number,force
0,544.4756640210239
1,544.4824282126478
2,544.4883802289839
3,544.4934883719947
4,544.4977216571655
5,544.5010500214812
6,544.5034445370829
7,544.5048776288202
8,544.5053232936234
9,544.5047573194557
10,544.5031575016379
11,544.5005038545445
12,544.4967788169184
13,544.4919674492784
14,544.4860576221275
15,544.4790401939596
16,544.470909178316
17,544.4616618992633
18,544.4512991346277
19,544.4398252462722
20,544.4272482966924
21,544.4135801511727
22,544.3988365645909
23,544.383037251719
24,544.3662059397167
25,544.3483704015408
26,544.3295624692029
27,544.309818026075
28,544.2891769776819
29,544.2676832005602
30,544.2453844688387
31,544.2223323582666
32,544.1985821276058
33,544.1741925775666
34,544.1492258876776
35,544.1237474315359
36,544.0978255708649
37,544.0715314288816
38,544.0449386436679
39,544.0181231024437
40,543.9911626577588
41,543.9641368266655
42,543.9371264740009
43,543.9102134810583
44,543.8834804011603
45,543.8570101039021
46,543.830885410074
47,543.8051887194972
48,543.7800016342426
49,543.7554045799415
50,543.7314764280899
51,543.7082941223194
52,543.6859323115772
53,543.6644629931005
54,543.6439551680392
55,543.6244745125383
56,543.6060830669733
57,543.5888389457407
58,543.5727960695998
59,543.5580039221215
60,543.5445073314343
61,543.5323462781738
62,543.5215557303392
63,543.5121655056341
64,543.5042001618364
65,543.4976789157292
66,543.4926155910654
67,543.4890185958313
68,543.4868909287463
69,543.4862302145302
70,543.4870287671149
71,543.4892736796878
72,543.4929469402059
73,543.4980255707691
74,543.504481789043
75,543.5122831898594
76,543.5213929451738
77,543.5317700206319
78,543.5433694070235
79,543.5561423649159
80,543.5700366808185
81,543.5849969333256
82,543.6009647677848
83,543.6178791781279
84,543.6356767945662
85,543.654292175898
86,543.6736581051556
87,543.693705887249
88,543.7143656471766
89,543.7355666273658
90,543.7572374828303
91,543.779306573015
92,543.8017022493444
93,543.8243531375413
94,543.8471884137664
95,543.8701380736508
96,543.8931331933824
97,543.9161061821231
98,543.9389910250543
99,543.9617235162683
100,543.98424148061
101,544.0064849834797
102,544.0283965275949
103,544.0499212357911
104,544.0710070191449
105,544.0916047299631
106,544.1116682994265
107,544.1311548597815
108,544.1500248509074
109,544.1682421108686
110,544.1857739498487
111,544.2025912067702
112,544.218668288009
113,544.2339831878214
114,544.2485174903456
115,544.2622563532694
116,544.2751884734931
117,544.2873060353477
118,544.2986046421229
119,544.309083231792
120,544.3187439778881
121,544.3275921764895
122,544.335636120191
123,544.3428869598101
124,544.3493585545193
125,544.3550673112132
126,544.3600320141611
127,544.3642736462115
128,544.3678152029306
129,544.3706815011067
130,544.3728989831096
131,544.3744955186411
132,544.3755002053573
133,544.3759431697246
134,544.3758553693472
135,544.3752683979568
136,544.374214294218
137,544.3727253553943
138,544.3708339567453
139,544.368572377338
140,544.3659726328284
141,544.3630663156772
142,544.3598844431739
143,544.3564573134948
144,544.3528143698331
145,544.3489840725498
146,544.3449937794265
147,544.3408696344018
148,544.3366364654256
149,544.332317692142
150,544.327935244017
151,544.323509489365
152,544.319059175545
153,544.3146013804876
154,544.3101514757561
155,544.3057231014914
156,544.3013281536753
157,544.2969767840224
158,544.292677412441
159,544.2884367515504
160,544.2842598423667
161,544.2801501000537
162,544.2761093685484
163,544.2721379828887
164,544.2682348381744
165,544.2643974642339
166,544.2606221051552
167,544.2569038028324
168,544.253236483589
169,544.2496130468584
170,544.2460254549022
171,544.2424648226578
172,544.2389215069693
173,544.235385194664
174,544.2318449891591
175,544.2282894955385
176,544.2247069042635
177,544.2210850737646
178,544.2174116120432
179,544.2136739571908
180,544.20985945667
181,544.2059554453459
182,544.2019493224664
183,544.19782862781
184,544.193581117052
185,544.1891948361806
186,544.1846581947209
187,544.1799600375808
188,544.1750897154733
189,544.1700371540237
190,544.1647929218607
191,544.1593482981783
192,544.1536953403469
193,544.1478269520582
194,544.1417369522303
195,544.1354201445216
196,544.1288723868695
197,544.1220906600854
198,544.1150731342984
199,544.107819231994
200,544.1003296864897
201,544.0926065948336
202,544.0846534641953
203,544.0764752507789
204,544.0680783901832
205,544.0594708181072
206,544.0506619804247
207,544.0416628318712
208,544.0324858227749
209,544.0231448734131
210,544.0136553357657
211,544.0040339426946
212,543.9942987448436
213,543.9844690357447
214,543.9745652657625
215,543.964608945671
216,543.9546225408418
217,543.9446293572006
218,543.934653420252
219,543.9247193485476
220,543.9148522229219
221,543.905077452636
222,543.8954206393555
223,543.8859074397518
224,543.8765634274612
225,543.8674139551315
226,543.8584840172998
227,543.8497981148845
228,543.8413801220721
229,543.8332531563187
230,543.8254394521472
231,543.817960239481
232,543.8108356273988
233,543.8040844943389
234,543.7977243858322
235,543.7917714207451
236,543.7862402068388
237,543.7811437663225
238,543.7764934720083
239,543.7722989945854
240,543.7685682613941
241,543.7653074269015
242,543.7625208549181
243,543.760211112391
244,543.7583789743838
245,543.7570234396085
246,543.7561417556246
247,543.7557294525759
248,543.7557803841079
249,543.7562867740124
250,543.7572392672238
251,543.7586269840534
252,543.7604375769133
253,543.7626572891749
254,543.7652710161868
255,543.7682623687448
256,543.7716137394239
257,543.7753063722133
258,543.7793204358846
259,543.7836351014729
260,543.7882286240988
261,543.7930784291062
262,543.798161202192
263,543.8034529828985
264,543.8089292605777
265,543.8145650718525
266,543.8203350988169
267,543.8262137676338
268,543.8321753475949
269,543.8381940509113
270,543.8442441334979
271,543.8502999969073
272,543.8563362914341
273,543.8623280202427
274,543.8682506441595
275,543.8740801865673
276,543.879793337701
277,543.8853675575554
278,543.890781176547
279,543.8960134930323
280,543.901044866774
281,543.9058568074673
282,543.9104320575168
283,543.9147546683608
284,543.9188100697289
285,543.9225851312129
286,543.9260682154934
287,543.9292492225792
288,543.9321196245395
289,543.9346724903677
290,543.936902500763
291,543.9388059527456
292,543.9403807541423
293,543.9416264080522
294,543.9425439873919
295,543.9431360996015
296,543.9434068416585
297,543.9433617457262
298,543.9430077159931
299,543.9423529574835
300,543.9414068977843
301,543.9401801027253
302,543.9386841870723
303,543.9369317212758
304,543.934936135294
305,543.9327116204504
306,543.9302730301948
307,543.9276357805047
308,543.9248157504519
309,543.9218291832495
310,543.9186925879718
311,543.9154226421282
312,543.9120360952999
313,543.9085496740829
314,543.9049799886898
315,543.9013434417291
316,543.8976561397826
317,543.8939338083411
318,543.8901917105364
319,543.886444570074
320,543.8827064988458
321,543.8789909298126
322,543.8753105558475
323,543.8716772753224
324,543.8681021452459
325,543.8645953426815
326,543.8611661350592
327,543.8578228598632
328,543.8545729140363
329,543.851422753255
330,543.8483779010559
331,543.845442967684
332,543.8426216784518
333,543.8399169113198
334,543.8373307432971
335,543.8348645051444
336,543.8325188437284
337,543.8302937911745
338,543.8281888397116
339,543.8262030208729
340,543.8243349876399
341,543.8225830982146
342,543.8209455003528
343,543.8194202155113
344,543.8180052223727
345,543.8166985395208
346,543.8154983071736
347,543.8144028679867
348,543.8134108470176
349,543.8125212309386
350,543.8117334464893
351,543.8110474380534
352,543.8104637441533
353,543.8099835725402
354,543.8096088733431
355,543.8093424094264
356,543.8091878228458
357,543.8091496962218
358,543.8092336079523
359,543.8094461803244
360,543.809795119684
361,543.8102892479379
362,543.8109385248326
363,543.8117540606589
364,543.8127481192014
365,543.8139341108765
366,543.8153265760893
367,543.816941158927
368,543.8187945713713
369,543.8209045482225
370,543.8232897929296
371,543.8259699146196
372,543.8289653568257
373,543.8322973186589
374,543.8359876693621
375,543.8400588572795
376,543.8445338142539
377,543.8494358563813
378,543.8547885819356
379,543.8606157671519
380,543.8669412604326
381,543.87378887543
382,543.8811822834191
383,543.889144905438
384,543.8976998048863
385,543.9068695815804
386,543.9166762685716
387,543.9271412331594
388,543.9382850833729
389,543.9501275807703
390,543.9626875598832
391,543.9759828541769
392,543.9900302281276
393,544.0048453149253
394,544.0204425593455
395,544.0368351654022
396,544.0540350484246
397,544.0720527911566
398,544.0908976034009
399,544.1105772846979
400,544.1310981896083
401,544.1524651953182
402,544.1746816713895
403,544.1977494514659
404,544.2216688066211
405,544.2464384198968
406,544.2720553615395
407,544.2985150645671
408,544.325811300508
409,544.3539361553245
410,544.3828800056039
411,544.4126314950862
412,544.4431775115168
413,544.4745031636378
414,544.5065917579058
415,544.5394247743491
416,544.5729818410563
417,544.6072407071456
418,544.6421772146065
419,544.677765269944
420,544.7139768169761
421,544.7507818123574
422,544.788148205366
423,544.8260419231802
424,544.864426862372
425,544.9032648868218
426,544.9425158318472
427,544.9821375140932
428,545.022085746665
429,545.0623143591098
430,545.1027752221289
431,545.1434182772015
432,545.1841915715484
433,545.2250412990355
434,545.2659118477269
435,545.3067458548402
436,545.3474842698619
437,545.3880664265373
438,545.4284301243559
439,545.4685117199926
440,545.5082462290006
441,545.5475674379331
442,545.5864080270314
443,545.6246997036033
444,545.6623733461579
445,545.6993591592114
446,545.7355868384448
447,545.7709857456374
448,545.8054850925911
449,545.8390141331827
450,545.8715023627475
451,545.902879724089
452,545.9330768193962
453,545.962025127208
454,545.9896572233883
455,546.0159070050227
456,546.0407099162358
457,546.0640031751054
458,546.0857260010097
459,546.1058198418864
460,546.1242286010219
461,546.1408988631185
462,546.1557801194222
463,546.1688249915385
464,546.1799894532867
465,546.1892330496844
466,546.1965191120329
467,546.2018149679886
468,546.2050921453049
469,546.2063265675673
470,546.2054987398485
471,546.2025939219386
472,546.1976022867274
473,546.1905190613529
474,546.1813446488164
475,546.1700847278693
476,546.156750329169
477,546.1413578860107
478,546.123929258356
479,546.1044917293485
480,546.0830779739739
481,546.0597259999486
482,546.034479061315
483,546.0073855455736
484,545.9784988354563
485,545.9478771465876
486,545.9155833422894
487,545.8816847267292
488,545.8462528175621
489,545.8093630992415
490,545.7710947583043
491,545.7315304021375
492,545.6907557629064
493,545.6488593884259
494,545.6059323218046
495,545.5620677717316
496,545.517360775348
497,545.4719078557566
498,545.4258066763149
499,545.3791556938974
500,545.3320538132832
501,545.284600044749
502,545.2368931667534
503,545.1890313952415
504,545.1411120606555
505,545.0932312933783
506,545.0454837181638
507,544.997962158053
508,544.9507573482456
509,544.9039576603413
510,544.8576488372979
511,544.8119137394099
512,544.76683210162
513,544.7224803025409
514,544.6789311456906
515,544.6362536536063
516,544.5945128756675
517,544.5537697105677
518,544.514080744355
519,544.4754981048509
520,544.4380693331486
521,544.4018372728243
522,544.3668399773668
523,544.3331106360517
524,544.3006775180804
525,544.2695639344394
526,544.2397882167467
527,544.2113637123136
528,544.1842987946515
529,544.158596888651
530,544.134256509748
531,544.1112713166283
532,544.0896301773466
533,544.0693172489719
534,544.0503120709504
535,544.0325896723265
536,544.0161206928474
537,544.0008715178743
538,543.9868044269296
539,543.9738777556529
540,543.9620460708693
541,543.9512603583709
542,543.9414682228562
543,543.9326140992112
544,543.9246394739812
545,543.9174831156174
546,543.9110813120377
547,543.9053681142012
548,543.900275584558
549,543.8957340492478
550,543.8916723527856
551,543.8880181138154
552,543.8846979804521
553,543.8816378837852
554,543.8787632882904
555,543.8759994381735
556,543.8732715990674
557,543.8705052949142
558,543.867626540125
559,543.8645620671718
560,543.861239549704
561,543.8575878211736
562,543.8535370888042
563,543.8490191425161
564,543.843967558226
565,543.838317894859
566,543.8320078844931
567,543.8249776151928
568,543.81716970618
569,543.8085294750134
570,543.7990050964265
571,543.7885477525103
572,543.7771117739876
573,543.764654772382
574,543.7511377629318
575,543.7365252781798
576,543.7207854722437
577,543.7038902157287
578,543.68581518105
579,543.6665399176522
580,543.6460479163273
581,543.6243266615822
582,543.6013676708465
583,543.5771665192387
584,543.5517228485912
585,543.5250403594168
586,543.4971267845693
587,543.4679938435944
588,543.4376571771942
589,543.4061362617017
590,543.3734543038591
591,543.339638116512
592,543.3047179761418
593,543.2687274634991
594,543.2317032889079
595,543.1936851040216
596,543.1547153019612
597,543.1148388079785
598,543.074102863101
599,543.0325568034801
600,542.9902518382158
601,542.947240828282
602,542.9035780689503
603,542.8593190778765
604,542.8145203907701
605,542.769239366329
606,542.7235340019311
607,542.6774627614262
608,542.6310844162414
609,542.5844579008392
610,542.537642183306
611,542.4906961514612
612,542.4436785144306
613,542.3966477191994
614,542.3496618812411
615,542.302778727911
616,542.2560555529387
617,542.2095491801429
618,542.1633159344375
619,542.1174116182318
620,542.0718914913513
621,542.0268102525839
622,541.9822220209493
623,541.9381803149246
624,541.8947380282115
625,541.8519474010931
626,541.8098599868783
627,541.7685266132922
628,541.7279973389805
629,541.6883214055592
630,541.6495471858059
631,541.6117221286189
632,541.5748927012984
633,541.5391043295499
634,541.504401335474
635,541.4708268737538
636,541.4384228663203
637,541.4072299358739
638,541.3772873387221
639,541.3486328974186
640,541.3213029336754
641,541.2953322019545
642,541.2707538241067
643,541.2475992254576
644,541.225898072809
645,541.2056782148387
646,541.1869656253252
647,541.1697843495355
648,541.1541564540687
649,541.1401019804566
650,541.127638902893
651,541.1167830905626
652,541.1075482750932
653,541.0999460235732
654,541.0939857173257
655,541.089674536216
656,541.0870174478739
657,541.0860172009844
658,541.0866743217949
659,541.0889871131927
660,541.0929516560799
661,541.0985618132056
662,541.1058092359592
663,541.1146833747604
664,541.1251714935938
665,541.1372586889964
666,541.1509279135473
667,541.1661600037315
668,541.1829337119138
669,541.2012257420099
670,541.2210107883058
671,541.242261576844
672,541.2649489088922
673,541.2890417061674
674,541.3145070576318
675,541.3413102677756
676,541.3694149064173
677,541.3987828601457
678,541.4293743855293
679,541.4611481640783
680,541.4940613587363
681,541.5280696715699
682,541.5631274024373
683,541.5991875086979
684,541.6362016663161
685,541.6741203328934
686,541.7128928132266
687,541.752467327943
688,541.7927910855952
689,541.8338103583294
690,541.8754705609814
691,541.9177163333138
692,541.9604916250471
693,542.0037397832656
694,542.04740364165
695,542.0914256108547
696,542.1357477693196
697,542.1803119539521
698,542.225059850387
699,542.2699330827794
700,542.3148733032064
701,542.3598222807899
702,542.4047219907543
703,542.4495147037902
704,542.494143076203
705,542.5385502413129
706,542.5826799025141
707,542.6264764283525
708,542.6698849499163
709,542.7128514607346
710,542.7553229193124
711,542.7972473544525
712,542.8385739735705
713,542.8792532742407
714,542.919237159184
715,542.9584790549034
716,542.9969340341535
717,543.034558942389
718,543.0713125282276
719,543.1071555778086
720,543.1420510527101
721,543.175964230798
722,543.2088628490682
723,543.2407172472919
724,543.2715005111033
725,543.301188613086
726,543.3297605503548
727,543.3571984770422
728,543.3834878299218
729,543.4086174452028
730,543.4325796643944
731,543.4553704271225
732,543.4769893488483
733,543.4974397815495
734,543.5167288555557
735,543.5348675009369
736,543.5518704471859
737,543.5677562004269
738,543.5825469979363
739,543.5962687402729
740,543.6089509016789
741,543.6206264196156
742,543.6313315643703
743,543.6411057897478
744,543.6499915659822
745,543.6580341961609
746,543.6652816176505
747,543.6717841902342
748,543.6775944728496
749,543.6827669908315
750,543.6873579954098
751,543.6914252170053
752,543.6950276137437
753,543.6982251165896
754,543.7010783725043
755,543.7036484869882
756,543.7059967673337
757,543.7081844679651
758,543.7102725393493
759,543.7123213820175
760,543.7143906071603
761,543.7165388050607
762,543.7188233224591
763,543.7213000498866
764,543.7240232200181
765,543.7270452180329
766,543.7304164047848
767,543.7341849533293
768,543.7383966990888
769,543.7430950036742
770,543.7483206321308
771,543.7541116432094
772,543.7605032922389
773,543.7675279463
774,543.7752150115973
775,543.783590873087
776,543.7926788464428
777,543.8024991423928
778,543.8130688434119
779,543.8244018927887
780,543.8365090961976
781,543.8493981360637
782,543.8630735991084
783,543.8775370173811
784,543.8927869227915
785,543.908818914748
786,543.9256257401394
787,543.943197384661
788,543.9615211744062
789,543.9805818867065
790,544.000361869387
791,544.0208411677987
792,544.041997659039
793,544.0638071926458
794,544.0862437368799
795,544.1092795296363
796,544.132885233065
797,544.1570300910485
798,544.1816820886893
799,544.2068081128892
800,544.2323741129642
801,544.2583452601021
802,544.2846861043655
803,544.3113607279175
804,544.3383328931801
805,544.3655661846527
806,544.393024143166
807,544.4206703914842
808,544.448468750421
809,544.4763833449081
810,544.5043786996731
811,544.5324198243533
812,544.560472288022
813,544.5885022832175
814,544.6164766796476
815,544.644363067827
816,544.6721297930093
817,544.6997459799228
818,544.7271815490528
819,544.7544072254481
820,544.7813945411606
821,544.8081158323565
822,544.8345442319666
823,544.8606536586445
824,544.8864188028233
825,544.9118151107327
826,544.936818767288
827,544.961406678762
828,544.9855564561549
829,545.009246400133
830,545.0324554882651
831,545.0551633650043
832,545.0773503345459
833,545.0989973564369
834,545.1200860436679
835,545.1405986629723
836,545.1605181371316
837,545.1798280491181
838,545.1985126478286
839,545.2165568550487
840,545.23394627323
841,545.2506671936636
842,545.2667066046268
843,545.2820521990071
844,545.2966923807581
845,545.3106162693666
846,545.3238137013753
847,545.33627522795
848,545.3479921075013
849,545.3589562925014
850,545.3691604098908
851,545.3785977348239
852,545.3872621578275
853,545.3951481457183
854,545.4022506968751
855,545.4085652917411
856,545.4140878396346
857,545.4188146229847
858,545.4227422400019
859,545.4258675467153
860,545.4281875993862
861,545.4296995985094
862,545.4304008357664
863,545.4302886452988
864,545.429360360573
865,545.4276132780194
866,545.4250446285762
867,545.4216515581556
868,545.4174311178068
869,545.4123802640087
870,545.4064958692362
871,545.3997747427818
872,545.3922136617015
873,545.3838094115501
874,545.3745588362798
875,545.3644588964233
876,545.3535067345807
877,545.3416997472196
878,545.3290356618273
879,545.3155126184363
880,545.3011292544784
881,545.2858847917977
882,545.2697791244933
883,545.2528129061155
884,545.2349876346904
885,545.216305734209
886,545.196770631561
887,545.1763868282262
888,545.1551599661796
889,545.1330968873726
890,545.110205686008
891,545.0864957528323
892,545.0619778108854
893,545.0366639423908
894,545.0105676065767
895,544.9837036482024
896,544.9560882965737
897,544.9277391549556
898,544.8986751804856
899,544.8689166549186
900,544.8384851467823
901,544.8074034657748
902,544.7756956104208
903,544.7433867100243
904,544.7105029617605
905,544.6770715634524
906,544.6431206423804
907,544.6086791804993
908,544.5737769365821
909,544.538444365955
910,544.5027125385866
911,544.466613056405
912,544.4301779708628
913,544.3934397019573
914,544.3564309600023
915,544.3191846713232
916,544.281733908684
917,544.2441118267786
