frame_number,force
0,701.0280760027149
1,700.9297055247389
2,700.8314520604134
3,700.7334319393183
4,700.6357601368269
5,700.5385496311769
6,700.4419107990211
7,700.3459508574238
8,700.2507733569632
9,700.1564777285838
10,700.0631588862063
11,699.970906887196
12,699.8798066531299
13,699.789937753739
14,699.7013742571545
15,699.6141846493724
16,699.5284318249568
17,699.444173149379
18,699.3614605912032
19,699.2803409200066
20,699.2008559637993
21,699.1230429180116
22,699.0469346971181
23,698.9725603197843
24,698.8999453187466
25,698.8291121671311
26,698.7600807136239
27,698.6928686201369
28,698.6274917972086
29,698.5639648336949
30,698.5023014180271
31,698.4425147485513
32,698.3846179301094
33,698.3286243528812
34,698.2745480480424
35,698.2224040139441
36,698.1722085068235
37,698.1239792912409
38,698.0777358468704
39,698.0334995295107
40,697.9912936851268
41,697.9511437165711
42,697.9130771035042
43,697.8771233768692
44,697.8433140498794
45,697.8116825080015
46,697.78226386114
47,697.7550947621503
48,697.73021319653
49,697.707658248105
50,697.687469844593
51,697.6696884856783
52,697.6543549555063
53,697.6415100215966
54,697.6311941225937
55,697.623447047386
56,697.6183076078024
57,697.6158133069524
58,697.6160000058021
59,697.6189015914641
60,697.6245496511525
61,697.6329731554476
62,697.6441981534865
63,697.6582474812487
64,697.6751404829146
65,697.6948927450384
66,697.7175158441439
67,697.7430171095727
68,697.771399404008
69,697.8026609236261
70,697.8367950188475
71,697.87379003616
72,697.9136291818561
73,697.9562904092631
74,698.0017463316598
75,698.0499641635611
76,698.1009056935486
77,698.1545272921735
78,698.2107799585381
79,698.2696094089525
80,698.3309562105145
81,698.3947559616048
82,698.4609395203705
83,698.5294332812333
84,698.600159497863
85,698.6730366487095
86,698.7479798386166
87,698.8249012279135
88,698.9037104789672
89,698.9843152094985
90,699.0666214418889
91,699.1505340379819
92,699.2359571093534
93,699.3227943938383
94,699.4109495904627
95,699.5003266468957
96,699.5908299960101
97,699.6823647409414
98,699.7748367908125
99,699.8681529516534
100,699.9622209785912
101,700.0569495958684
102,700.1522484907972
103,700.2480282870101
104,700.3442005017046
105,700.4406774904809
106,700.537372381315
107,700.6341989969071
108,700.7310717635429
109,700.827905605082
110,700.9246158220151
111,701.0211179570196
112,701.1173276498084
113,701.2131604850516
114,701.3085318377828
115,701.4033567212842
116,701.4975496431055
117,701.5910244753853
118,701.683694345686
119,701.7754715537924
120,701.8662675182202
121,701.9559927538162
122,702.0445568796798
123,702.1318686555375
124,702.2178360449695
125,702.3023663052624
126,702.3853661053737
127,702.4667416745242
128,702.5463989835057
129,702.6242439591588
130,702.7001827306835
131,702.774121905471
132,702.8459688720535
133,702.9156321280843
134,702.9830216315639
135,703.0480491735781
136,703.1106287703436
137,703.1706770713851
138,703.2281137796593
139,703.2828620788903
140,703.3348490632184
141,703.3840061641536
142,703.4302695697334
143,703.473580631114
144,703.5138862527755
145,703.5511392637663
146,703.5852987681991
147,703.6163304727563
148,703.6442069872153
149,703.6689080918878
150,703.6904209649073
151,703.7087403632266
152,703.7238687532217
153,703.7358163884609
154,703.7446013330128
155,703.7502494291954
156,703.7527942095494
157,703.7522767542068
158,703.7487454963905
159,703.7422559797501
160,703.7328705707973
161,703.720658127825
162,703.7056936252924
163,703.6880577308424
164,703.6678363316826
165,703.6451200085504
166,703.6200034588245
167,703.5925848742849
168,703.5629652817752
169,703.5312478556125
170,703.4975372094104
171,703.4619386732084
172,703.4245575606502
173,703.3854984309693
174,703.3448643512354
175,703.3027561649386
176,703.2592717732952
177,703.2145054360244
178,703.168547099028
179,703.121481757346
180,703.0733888627401
181,703.0243417860189
182,702.9744073443974
183,702.9236454034134
184,702.8721085613705
185,702.819841922486
186,702.7668829630852
187,702.7132614929798
188,702.658999711441
189,702.6041123543476
190,702.5486069269468
191,702.4924840156729
192,702.4357376722219
193,702.378355862723
194,702.3203209741416
195,702.2616103695242
196,702.2021969837275
197,702.1420499516258
198,702.0811352612355
199,702.0194164249689
200,701.9568551633761
201,701.8934120967854
202,701.8290474406541
203,701.7637217000824
204,701.6973963581696
205,701.6300345522574
206,701.5616017319792
207,701.4920662934428
208,701.4214001845394
209,701.3495794768295
210,701.2765848995706
211,701.2024023317211
212,701.1270232488026
213,701.0504451232865
214,700.9726717790774
215,700.8937137020422
216,700.8135883089573
217,700.7323201766267
218,700.6499412316905
219,700.566490900425
220,700.4820162170003
221,700.3965718881582
222,700.3102203119679
223,700.2230315480863
224,700.1350832369654
225,700.0464604661674
226,699.9572555836262
227,699.8675679597786
228,699.7775037020191
229,699.6871753253661
230,699.596701382638
231,699.5062060561826
232,699.4158187119766
233,699.3256734166022
234,699.2359084186024
235,699.1466655975619
236,699.0580898860892
237,698.9703286711514
238,698.8835311816788
239,698.7978478690528
240,698.7134297862751
241,698.6304279707374
242,698.5489928347381
243,698.4692735670502
244,698.3914175479375
245,698.3155697795332
246,698.2418723337979
247,698.1704638209394
248,698.1014788813012
249,698.035047702799
250,697.9712955644277
251,697.9103424052015
252,697.8523024179148
253,697.7972836682204
254,697.7453877410085
255,697.6967094173157
256,697.6513363858903
257,697.6093489939576
258,697.5708200413031
259,697.5358146204358
260,697.5043900039975
261,697.4765955796177
262,697.4524728321085
263,697.432055372573
264,697.4153690129153
265,697.4024318821721
266,697.3932545783949
267,697.3878403474392
268,697.3861852787984
269,697.3882785085101
270,697.3941024192503
271,697.4036328274594
272,697.4168391473046
273,697.4336845226503
274,697.4541259214362
275,697.4781141912048
276,697.5055940787817
277,697.5365042205134
278,697.5707771116865
279,697.6083390647038
280,697.6491101655189
281,697.6930042373883
282,697.7399288208884
283,697.789785179416
284,697.8424683393082
285,697.897867172479
286,697.9558645271484
287,698.0163374096169
288,698.079157217776
289,698.1441900253058
290,698.211296914218
291,698.2803343525048
292,698.3511546130479
293,698.4236062296275
294,698.4975344859523
295,698.5727819340127
296,698.6491889382544
297,698.7265942416892
298,698.8048355491661
299,698.8837501218395
300,698.9631753753431
301,699.0429494721807
302,699.1229118967199
303,699.2029039998109
304,699.2827695001645
305,699.3623549311377
306,699.4415100238934
307,699.5200880204696
308,699.5979459128636
309,699.674944606572
310,699.7509490088619
311,699.8258280432386
312,699.8994545924085
313,699.9717053730144
314,700.0424607469411
315,700.1116044758531
316,700.1790234271864
317,700.2446072404985
318,700.3082479629777
319,700.3698396624777
320,700.4292780261868
321,700.486459953256
322,700.541283150319
323,700.5936457394109
324,700.6434458879573
325,700.6905814703991
326,700.7349497710753
327,700.7764472383096
328,700.8149692998592
329,700.8504102496548
330,700.8826632150731
331,700.9116202129829
332,700.9371723016407
333,700.959209834031
334,700.9776228159201
335,700.9923013683283
336,701.0031362899065
337,701.0100197109712
338,701.0128458283771
339,701.011511708973
340,701.0059181489955
341,700.9959705772027
342,700.981579990226
343,700.9626639090231
344,700.9391473455968
345,700.9109637696945
346,700.878056065743
347,700.8403774700074
348,700.7978924766006
349,700.7505776991663
350,700.6984226739527
351,700.6414305903879
352,700.579618937244
353,700.5130200553727
354,700.44168159085
355,700.3656668442889
356,700.2850550125727
357,700.1999413184263
358,700.1104370219184
359,700.0166693073104
360,699.9187810393489
361,699.8169303852502
362,699.7112903020724
363,699.6020478933015
364,699.4894036422209
365,699.3735705321899
366,699.2547730652742
367,699.1332461911018
368,699.0092341577343
369,698.8829892961217
370,698.7547707496909
371,698.6248431609102
372,698.4934753270461
373,698.3609388376557
374,698.2275067065343
375,698.0934520106483
376,697.9590465477205
377,697.824559522685
378,697.6902562716689
379,697.5563970308949
380,697.4232357570346
381,697.2910190050325
382,697.159984869218
383,697.0303619935119
384,696.9023686567249
385,696.7762119394275
386,696.6520869794745
387,696.5301763232875
388,696.410649378826
389,696.2936619740699
390,696.1793560227977
391,696.0678592982101
392,695.9592853144634
393,695.8537333157182
394,695.7512883713872
395,695.6520215750882
396,695.5559903437862
397,695.463238812718
398,695.3737983206446
399,695.287687978587
400,695.2049153133928
401,695.1254769756564
402,695.0493595007395
403,694.9765401126327
404,694.9069875624745
405,694.8406629952824
406,694.7775208391771
407,694.7175097113162
408,694.6605733343312
409,694.6066514563352
410,694.5556807663928
411,694.5075957957343
412,694.4623297935351
413,694.4198155654936
414,694.3799862640919
415,694.3427761212794
416,694.3081211171757
417,694.2759595817743
418,694.2462327297098
419,694.2188851299142
420,694.1938651119706
421,694.1711251097593
422,694.1506219417788
423,694.1323170273654
424,694.1161765389672
425,694.1021714919601
426,694.0902777745353
427,694.0804761207636
428,694.0727520300011
429,694.0670956354227
430,694.063501524123
431,694.0619685116577
432,694.0624993753977
433,694.0651005528858
434,694.0697818122754
435,694.0765559012335
436,694.0854381789857
437,694.0964462346693
438,694.1095994945179
439,694.1249188203773
440,694.1424261022565
441,694.1621438479979
442,694.184094773766
443,694.2083013997368
444,694.2347856558788
445,694.263568502906
446,694.2946695732564
447,694.3281068363108
448,694.3638962911267
449,694.4020516889341
450,694.4425842866365
451,694.4855026315495
452,694.5308123764077
453,694.5785161223374
454,694.6286132864184
455,694.6810999901098
456,694.7359689653819
457,694.7932094766812
458,694.8528072583495
459,694.9147444680739
460,694.9789996570737
461,695.045547757415
462,695.1143600868485
463,695.1854043721662
464,695.2586447929074
465,695.3340420476225
466,695.411553444269
467,695.4911330145786
468,695.5727316498253
469,695.6562972531133
470,695.7417749019972
471,695.8291070155517
472,695.9182335218215
473,696.0090920239426
474,696.1016179649603
475,696.1957447920366
476,696.2914041206432
477,696.3885258987891
478,696.4870385703351
479,696.5868692351702
480,696.6879438028622
481,696.7901871355674
482,696.8935231757014
483,696.9978750544665
484,697.1031651789464
485,697.209315297783
486,697.3162465478
487,697.4238794858518
488,697.5321341116253
489,697.6409298882214
490,697.7501857678739
491,697.859820229791
492,697.9697513357651
493,698.0798968070224
494,698.190174123058
495,698.3005006405726
496,698.4107937289273
497,698.520970917998
498,698.6309500545951
499,698.7406494643782
500,698.8499881174181
501,698.9588857971077
502,699.0672632734825
503,699.1750424826247
504,699.2821467136513
505,699.3885008040306
506,699.494031342662
507,699.5986668785015
508,699.7023381311406
509,699.8049781990406
510,699.9065227609343
511,700.0069102656299
512,700.1060821047085
513,700.2039827615483
514,700.3005599294434
515,700.3957645919095
516,700.4895510596766
517,700.5818769609537
518,700.6727031838326
519,700.7619937717601
520,700.8497157743528
521,700.9358390560577
522,701.0203360644751
523,701.1031815594387
524,701.1843523040544
525,701.2638267201635
526,701.3415845128089
527,701.4176062706824
528,701.4918730517456
529,701.5643659649518
530,701.6350657598095
531,701.7039524351707
532,701.7710048773068
533,701.8362005355642
534,701.8995151420723
535,701.9609224805872
536,702.0203942089195
537,702.0778997394501
538,702.1334061823073
539,702.1868783550138
540,702.2382788604436
541,702.2875682322962
542,702.3347051450502
543,702.3796466840014
544,702.4223486701
545,702.4627660333209
546,702.5008532272813
547,702.536564677266
548,702.5698552540025
549,702.6006807660801
550,702.6289984642589
551,702.6547675508954
552,702.6779496877034
553,702.6985094952984
554,702.7164150382071
555,702.7316382888481
556,702.7441555633224
557,702.7539479211098
558,702.7610015204702
559,702.7653079216736
560,702.7668643311155
561,702.7656737810127
562,702.7617452417417
563,702.755093666523
564,702.7457399702823
565,702.7337109456842
566,702.7190391199462
567,702.7017625568817
568,702.6819246097712
569,702.6595736315832
570,702.634762649372
571,702.607549009468
572,702.5779939996261
573,702.5461624540383
574,702.512122347439
575,702.4759443853002
576,702.4377015978281
577,702.3974689457581
578,702.3553229456217
579,702.311341320968
580,702.265602683799
581,702.2181862476278
582,702.1691715710687
583,702.1186383296101
584,702.0666661135435
585,702.0133342515526
586,701.9587216616391
587,701.9029067332098
588,701.8459672454693
589,701.7879803270266
590,701.7290224599933
591,701.6691695299226
592,701.6084969216668
593,701.5470796606212
594,701.4849925982539
595,701.4223106397388
596,701.3591090097377
597,701.2954635502152
598,701.2314510422561
599,701.1671495427032
600,701.1026387261246
601,701.0380002230073
602,700.9733179460358
603,700.9086783974288
604,700.8441709509437
605,700.7798881022122
606,700.7159256810742
607,700.6523830197917
608,700.5893630713412
609,700.5269724724815
610,700.4653215473056
611,700.4045242483201
612,700.3446980332009
613,700.2859636760866
614,700.2284450130838
615,700.1722686228903
616,700.1175634447317
617,700.0644603367186
618,700.0130915783075
619,699.9635903211419
620,699.9160899931784
621,699.8707236611691
622,699.8276233558888
623,699.7869193633005
624,699.7487394841921
625,699.7132082656148
626,699.6804462098382
627,699.6505689697818
628,699.6236865427002
629,699.5999024751944
630,699.5793130919917
631,699.5620067588247
632,699.5480631870558
633,699.5375527854562
634,699.5305360634683
635,699.5270630902558
636,699.5271730141139
637,699.53089364659
638,699.5382411146394
639,699.5492195825009
640,699.563821043174
641,699.5820251779996
642,699.6037992822912
643,699.6290982550895
644,699.6578646514272
645,699.6900287957626
646,699.7255089555371
647,699.7642115740229
648,699.8060315615891
649,699.8508526442608
650,699.8985477680834
651,699.9489795573942
652,700.0020008247942
653,700.0574551306331
654,700.1151773902193
655,700.1749945274811
656,700.2367261740167
657,700.3001854122886
658,700.3651795614936
659,700.4315110046568
660,700.4989780555806
661,700.5673758639625
662,700.6364973558544
663,700.7061342047132
664,700.7760778263071
665,700.8461203893647
666,700.9160558329961
667,700.9856808810314
668,701.0547960424228
669,701.1232065861611
670,701.190723479209
671,701.2571642769183
672,701.3223539570647
673,701.3861256906115
674,701.4483215443616
675,701.5087931127913
676,701.5674020783562
677,701.6240207010125
678,701.6785322385241
679,701.7308312996871
680,701.7808241329626
681,701.8284288527851
682,701.8735756045788
683,701.9162066673221
684,701.9562764901608
685,701.9937516583412
686,702.0286107843401
687,702.0608443221032
688,702.090454304648
689,702.117454007162
690,702.1418675390629
691,702.1637293694856
692,702.183083791289
693,702.1999843287052
694,702.2144930931056
695,702.2266800903277
696,702.2366224823108
697,702.2444038063015
698,702.2501131568796
699,702.2538443388091
700,702.2556950010216
701,702.2557657630043
702,702.2541593441867
703,702.2509797048286
704,702.2463312042012
705,702.2403177794879
706,702.233042147367
707,702.2246050297649
708,702.2151044057049
709,702.2046347922138
710,702.193286558334
711,702.1811452768831
712,702.1682911185072
713,702.1547982917523
714,702.1407345313821
715,702.1261606353517
716,702.111130049521
717,702.0956884992283
718,702.0798736683363
719,702.0637149285496
720,702.0472331237905
721,702.0304404157433
722,702.0133401970215
723,701.9959270774209
724,701.9781869467508
725,701.9600971158821
726,701.9416265366797
727,701.9227361011557
728,701.9033790198066
729,701.8835012782582
730,701.8630421700512
731,701.8419349020668
732,701.8201072681188
733,701.7974823855054
734,701.7739794883367
735,701.7495147700829
736,701.7240022663657
737,701.6973547680426
738,701.6694847542445
739,701.6403053349335
740,701.6097311923384
741,701.5776795102203
742,701.5440708796272
743,701.5088301700025
744,701.4718873553306
745,701.4331782865056
746,701.3926454034612
747,701.3502383835126
748,701.3059147248229
749,701.2596402649584
750,701.2113896341268
751,701.1611466417363
752,701.1089045944127
753,701.0546665440132
754,700.998445465296
755,700.940264364255
756,700.8801563193064
757,700.8181644582204
758,700.7543418737129
759,700.688751479929
760,700.621465811201
761,700.5525667642935
762,700.4821452862927
763,700.4103010117992
764,700.3371418539948
765,700.2627835537984
766,700.1873491901179
767,700.1109686531033
768,700.0337780818019
769,699.9559192676205
770,699.8775390253826
771,699.7987885345336
772,699.7198226541557
773,699.640799216545
774,699.561878304931
775,699.4832215214918
776,699.4049912522304
777,699.3273499354569
778,699.2504593406351
779,699.1744798644232
780,699.0995698508143
781,699.0258849416525
782,698.9535774618989
783,698.8827958412642
784,698.813684071503
785,698.7463811976944
786,698.6810208420673
787,698.6177307596952
788,698.5566324262686
789,698.4978406589685
790,698.4414632720415
791,698.3876007690393
792,698.3363460738324
793,698.2877843019054
794,698.2419925717361
795,698.1990398540015
796,698.1589868550867
797,698.1218859311961
798,698.0877810298888
799,698.0567076567208
800,698.0286928656079
801,698.0037552721253
802,697.9819050888667
803,697.9631441813891
804,697.9474661428784
805,697.9348563859506
806,697.925292250694
807,697.9187431286875
808,697.9151706031932
809,697.9145286060578
810,697.916763592045
811,697.9218147314468
812,697.9296141221164
813,697.9400870226353
814,697.9531521090677
815,697.9687217583196
816,697.9867023612848
817,698.0069946687653
818,698.0294941727941
819,698.0540915254413
820,698.0806729962726
821,698.1091209681329
822,698.1393144687561
823,698.171129733295
824,698.2044407911029
825,698.2391200694487
826,698.2750390068323
827,698.3120686683994
828,698.3500803554223
829,698.3889462005362
830,698.4285397411425
831,698.468736465088
832,698.5094143246844
833,698.5504542166346
834,698.5917404262796
835,698.6331610348632
836,698.6746082885545
837,698.7159789279523
838,698.7571744768077
839,698.7981014887692
840,698.8386717512622
841,698.878802446254
842,698.9184162685469
843,698.9574415031263
844,698.9958120636495
845,699.0334674942462
846,699.0703529367162
847,699.1064190653354
848,699.1416219919159
849,699.1759231442843
850,699.2092891216328
851,699.2416915300747
852,699.2731068015573
853,699.3035159995599
854,699.3329046156244
855,699.3612623609106
856,699.388582955951
857,699.4148639197276
858,699.4401063567763
859,699.4643147389318
860,699.4874966769557
861,699.5096626770926
862,699.5308258789363
863,699.5510017737256
864,699.5702079055452
865,699.5884635608559
866,699.6057894535621
867,699.6222074134511
868,699.6377400858476
869,699.6524106499983
870,699.6662425627286
871,699.6792593322623
872,699.6914843254635
873,699.7029406107879
874,699.7136508385764
875,699.7236371591656
876,699.7329211774245
877,699.7415239404893
878,699.7494659544083
879,699.7567672251344
880,699.7634473192235
881,699.7695254392638
882,699.7750205085313
883,699.779951258991
884,699.7843363169227
885,699.7881942812788
886,699.7915437909022
887,699.7944035770552
888,699.7967924972592
889,699.7987295463299
890,699.8002338416611
891,699.8013245817839
892,699.8020209788007
893,699.8023421660068
894,699.8023070825085
895,699.8019343376084
896,699.8012420590686
897,699.8002477305689
898,699.798968024593
899,699.7974186375912
900,699.7956141342536
901,699.7935678068596
902,699.7912915545226
903,699.7887957866567
904,699.7860893552843
905,699.783179520846
906,699.7800719549126
907,699.7767707804857
908,699.7732786472665
909,699.7695968363284
910,699.765725386721
911,699.7616632361145
912,699.7574083688446
913,699.7529579670248
914,699.7483085625244
915,699.7434561887221
916,699.7383965312943
