frame_number,force
0,701.0280760005799
1,700.8855427849297
2,700.7439450478179
3,700.6041969361557
4,700.4671710370308
5,700.3336802715105
6,700.2044626495483
7,700.0801691586466
8,699.9613546078901
9,699.8484710110066
10,699.7418630816065
11,699.6417655259468
12,699.5483019792879
13,699.4614856128662
14,699.3812215977284
15,699.3073116993949
16,699.2394612620634
17,699.1772887098983
18,699.1203374721655
19,699.068089991908
20,699.0199832549745
21,698.9754251115078
22,698.9338105970849
23,698.8945375102397
24,698.8570206218493
25,698.8207040235901
26,698.78507127512
27,698.7496532303142
28,698.7140336872341
29,698.6778532147827
30,698.6408116123279
31,698.6026694748091
32,698.5632492489078
33,698.5224359470124
34,698.4801774065975
35,698.4364837917847
36,698.3914260149174
37,698.3451328682441
38,698.2977868026705
39,698.2496184032923
40,698.2008996772678
41,698.1519363168744
42,698.1030591552834
43,698.0546150806882
44,698.0069576911391
45,697.9604379785497
46,697.9153953715644
47,697.8721495444474
48,697.8309934496817
49,697.7921879712264
50,697.755958400318
51,697.722492697181
52,697.6919413518957
53,697.6644186391264
54,697.6400051014293
55,697.6187510925683
56,697.6006811484554
57,697.5857989215988
58,697.574092494028
59,697.565540022115
60,697.5601157472537
61,697.5577963696439
62,697.558567637724
63,697.5624308019429
64,697.5694084192198
65,697.579548987053
66,697.5929300523176
67,697.6096596662111
68,697.6298761884142
69,697.6537464137225
70,697.6814618887474
71,697.7132332591065
72,697.7492825972276
73,697.7898338319256
74,697.8351015538385
75,697.8852786073107
76,697.9405230171155
77,698.0009449151862
78,698.0665942064727
79,698.137449741818
80,698.2134107397721
81,698.2942911236769
82,698.3798173500373
83,698.4696301926044
84,698.5632907414309
85,698.6602905485486
86,698.7600654822363
87,698.8620125429295
88,698.9655086880819
89,699.0699306115898
90,699.174674407251
91,699.2791740748922
92,699.3829178779728
93,699.485461655901
94,699.5864383664416
95,699.6855633907462
96,699.7826354643386
97,699.877533472399
98,699.9702097144769
99,700.0606805417895
100,700.1490154406335
101,700.2353256369432
102,700.3197531550492
103,700.4024610764968
104,700.4836255714255
105,700.5634300388737
106,700.6420613097551
107,700.7197074513574
108,700.7965564884398
109,700.8727953850048
110,700.9486087974476
111,701.0241773098942
112,701.0996750495596
113,701.1752667168412
114,701.2511041537663
115,701.3273226636956
116,701.4040374045605
117,701.4813402719157
118,701.5592977151694
119,701.6379498416144
120,701.7173109314
121,701.7973711607162
122,701.8780990420378
123,701.9594439705245
124,702.0413383631659
125,702.1236991493282
126,702.2064287005036
127,702.2894155102184
128,702.3725349355938
129,702.4556501235866
130,702.5386130340172
131,702.621265385592
132,702.7034394022022
133,702.7849583481249
134,702.8656369488239
135,702.9452818582886
136,703.0236923141041
137,703.1006610190033
138,703.1759751750446
139,703.2494175483331
140,703.320767450256
141,703.389801529138
142,703.456294272114
143,703.5200181800973
144,703.5807437315934
145,703.6382394430126
146,703.6922724444837
147,703.7426099033139
148,703.7890213292401
149,703.8312814350369
150,703.8691730358476
151,703.9024895684466
152,703.9310370725849
153,703.9546356753297
154,703.9731206783352
155,703.9863433580954
156,703.9941716489368
157,703.9964910120202
158,703.9932059519665
159,703.9842427051436
160,703.969553464878
161,703.9491221258579
162,703.9229710655019
163,703.8911681075289
164,703.853832657459
165,703.8111401463333
166,703.7633243571795
167,703.7106777464026
168,703.653550230466
169,703.5923469388181
170,703.5275251977068
171,703.4595906901166
172,703.3890925252141
173,703.3166169299445
174,703.2427793738933
175,703.1682150350993
176,703.0935675770644
177,703.0194762889561
178,702.9465617855774
179,702.8754106605026
180,702.8065596990717
181,702.7404804494615
182,702.6775650601194
183,702.6181142638154
184,702.5623282461456
185,702.5103009636158
186,702.4620183007759
187,702.4173602270555
188,702.3761068049533
189,702.3379475763545
190,702.3024936339909
191,702.2692916407093
192,702.2378391257588
193,702.2076004313485
194,702.1780226643546
195,702.1485510094807
196,702.1186428396657
197,702.0877801773504
198,702.0554801832291
199,702.0213035114598
200,701.9848605803325
201,701.9458159912657
202,701.9038914019495
203,701.8588671029023
204,701.8105824168306
205,701.7589349226674
206,701.7038784588765
207,701.6454198894727
208,701.5836146775084
209,701.5185613344999
210,701.4503947790971
211,701.3792786234372
212,701.3053965078827
213,701.228942819452
214,701.1501133606031
215,701.0690966830148
216,700.9860667998914
217,700.9011778277749
218,700.8145608498803
219,700.7263230386488
220,700.63654887995
221,700.5453032003132
222,700.4526355886625
223,700.3585857090992
224,700.2631889447
225,700.166481868544
226,700.0685072456557
227,699.9693185426001
228,699.8689841111064
229,699.7675912351822
230,699.665250097255
231,699.5620974861625
232,699.4582998450508
233,699.3540551784657
234,699.2495934679567
235,699.1451755103989
236,699.0410903630395
237,698.9376517658229
238,698.8351939801373
239,698.7340674356764
240,698.6346344573856
241,698.5372652199164
242,698.442333975141
243,698.3502154911612
244,698.261281529672
245,698.1758971482999
246,698.0944167012952
247,698.0171795599515
248,697.9445056416841
249,697.8766907446569
250,697.8140014975938
251,697.7566696112543
252,697.7048851797289
253,697.6587890117097
254,697.6184642602165
255,697.5839278708781
256,697.5551225620643
257,697.5319101666927
258,697.5140671462095
259,697.5012829176682
260,697.4931614227836
261,697.4892262453291
262,697.4889295576422
263,697.4916651384941
264,697.4967855411047
265,697.5036231630044
266,697.5115145381502
267,697.5198267805406
268,697.5279848898365
269,697.5354985745585
270,697.5419872192966
271,697.5472015317762
272,697.5510403475242
273,697.5535612287646
274,697.5549839422187
275,697.5556865230969
276,697.5561942462812
277,697.557162310921
278,697.5593533533149
279,697.5636110230066
280,697.5708308274803
281,697.5819293751582
282,697.5978131335243
283,697.6193478789384
284,697.6473300303156
285,697.6824609079608
286,697.7253246504647
287,697.7763701775402
288,697.8358973072251
289,697.9040469443336
290,697.9807951412154
291,698.065950780082
292,698.1591566216352
293,698.2598935034027
294,698.3674875686504
295,698.4811205442129
296,698.5998431861541
297,698.7225920126358
298,698.8482093517362
299,698.9754665805694
300,699.1030902121561
301,699.2297901765676
302,699.354289295919
303,699.4753527062597
304,699.5918159445004
305,699.7026105847625
306,699.8067865822057
307,699.9035307816414
308,699.9921813325802
309,700.0722379899621
310,700.1433684293438
311,700.2054107494444
312,700.2583723177149
313,700.3024251210636
314,700.337897874403
315,700.365265290179
316,700.3851350212159
317,700.3982327744208
318,700.4053859667463
319,700.4075061345645
320,700.4055701918043
321,700.4006006088605
322,700.3936446438026
323,700.3857528329429
324,700.3779569827052
325,700.371247920355
326,700.3665533252268
327,700.3647160894935
328,700.3664737894085
329,700.372439930751
330,700.3830876617532
331,700.3987366444966
332,700.4195437603748
333,700.4454982727423
334,700.476421892698
335,700.5119738308334
336,700.5516604531135
337,700.5948487696941
338,700.640782770898
339,700.6886015795739
340,700.7373584957875
341,700.7860402330818
342,700.8335858888723
343,700.8789053736999
344,700.9208971680064
345,700.958465438125
346,700.990536681847
347,701.0160760641302
348,701.0341033980939
349,701.0437084289703
350,701.0440648644314
351,701.0344425914296
352,701.0142177385986
353,700.9828805850467
354,700.9400416314267
355,700.8854363022612
356,700.8189286634456
357,700.7405142348854
358,700.6503215870279
359,700.548612111795
360,700.4357772656748
361,700.3123327164773
362,700.1789091604126
363,700.0362400201898
364,699.8851466244806
365,699.7265216821537
366,699.5613118952349
367,699.3905004598587
368,699.2150900439296
369,699.0360866639645
370,698.854484767111
371,698.6712537721887
372,698.4873263063571
373,698.3035883659841
374,698.1208716208373
375,697.9399480334724
376,697.7615268332595
377,697.5862536797681
378,697.4147116473723
379,697.2474235233202
380,697.0848548499894
381,696.9274171520425
382,696.7754708591619
383,696.6293275490257
384,696.4892512904648
385,696.3554590771344
386,696.2281205789523
387,696.1073575914728
388,695.9932435344734
389,695.8858031812206
390,695.7850126400142
391,695.6907995763145
392,695.6030437434977
393,695.5215779715296
394,695.4461897664202
395,695.3766236311133
396,695.3125841928005
397,695.2537402068606
398,695.1997294590661
399,695.1501644743433
400,695.1046387504246
401,695.0627330294657
402,695.0240210651742
403,694.9880745490708
404,694.9544672197728
405,694.9227784735261
406,694.8925969158578
407,694.8635242814563
408,694.8351800652284
409,694.807207065012
410,694.779277810315
411,694.7511015478585
412,694.7224311623908
413,694.6930692454257
414,694.6628725425786
415,694.6317542087035
416,694.5996836464323
417,694.5666841289485
418,694.5328287813227
419,694.4982356608027
420,694.4630625661076
421,694.4275019075332
422,694.3917756758574
423,694.3561304178651
424,694.3208321718749
425,694.2861614268962
426,694.2524082419756
427,694.2198676672831
428,694.1888355416905
429,694.159604613854
430,694.1324608187388
431,694.1076795572193
432,694.0855220153808
433,694.0662318079222
434,694.0500323420716
435,694.0371251730652
436,694.0276893477296
437,694.0218814974492
438,694.0198363485458
439,694.0216673290912
440,694.0274670036083
441,694.0373071542929
442,694.0512384558511
443,694.0692898352806
444,694.0914677301095
445,694.1177555339484
446,694.1481135327205
447,694.182479586841
448,694.2207707224034
449,694.262885688213
450,694.3087084349925
451,694.3581123693575
452,694.4109651024148
453,694.4671332570971
454,694.5264867815866
455,694.588902209883
456,694.6542644426554
457,694.7224668641528
458,694.7934098800864
459,694.8669981459345
460,694.9431368042648
461,695.0217270285391
462,695.1026611930545
463,695.1858181000937
464,695.2710588387105
465,695.3582239170141
466,695.4471322157879
467,695.5375820416069
468,695.6293541781106
469,695.7222164664696
470,695.815929229206
471,695.910250882105
472,696.0049433397511
473,696.0997771623805
474,696.1945366344322
475,696.2890250381896
476,696.3830703394136
477,696.4765313830674
478,696.5693045076222
479,696.6613302542826
480,696.7525996323135
481,696.8431592407809
482,696.9331144730221
483,697.0226300949739
484,697.1119277157466
485,697.201280007936
486,697.291001885965
487,697.3814391391834
488,697.4729552389381
489,697.5659172125075
490,697.6606815692925
491,697.7575812222933
492,697.8569141614332
493,697.9589343258282
494,698.0638447304419
495,698.1717925324607
496,698.2828654997094
497,698.3970893047592
498,698.5144251589805
499,698.6347674675006
500,698.7579414220306
501,698.8837007356132
502,699.0117259771422
503,699.141624097041
504,699.2729297426489
505,699.4051088714939
506,699.537564986605
507,699.6696480739295
508,699.8006661099427
509,699.92989889242
510,700.0566138999252
511,700.1800838169621
512,700.2996052083141
513,700.414517616163
514,700.5242221935575
515,700.6281989743566
516,700.7260220268105
517,700.8173719844426
518,700.9020457196203
519,700.9799631598996
520,701.0511713696087
521,701.1158459672205
522,701.1742897582897
523,701.2269282712011
524,701.2743018257852
525,701.3170538945633
526,701.3559157892042
527,701.3916880316302
528,701.4252190815384
529,701.4573823416026
530,701.4890524838461
531,701.5210820943702
532,701.554279454443
533,701.5893880390648
534,701.6270680869974
535,701.6678804467713
536,701.7122728857715
537,701.7605691488152
538,701.8129611644355
539,701.8695047866968
540,701.9301192679275
541,701.9945903661499
542,702.0625767603173
543,702.1336193526844
544,702.2071530134094
545,702.2825202779514
546,702.3589864500668
547,702.4357555683824
548,702.5119868015307
549,702.5868109902576
550,702.6593471610308
551,702.7287188707633
552,702.7940702620548
553,702.8545817493475
554,702.9094852813051
555,702.9580790701028
556,702.9997415318082
557,703.033944008815
558,703.0602617276144
559,703.0783824122016
560,703.0881120236239
561,703.0893772473878
562,703.0822246075855
563,703.0668163814738
564,703.0434236998615
565,703.0124172798024
566,702.9742562130872
567,702.9294752482328
568,702.8786710733248
569,702.8224881463515
570,702.7616045727748
571,702.6967184127153
572,702.6285346569915
573,702.5577530106499
574,702.4850566250756
575,702.4111020064967
576,702.3365104205454
577,702.2618611524829
578,702.1876869423933
579,702.1144717532769
580,702.0426507217772
581,701.9726117488884
582,701.9046978605097
583,701.8392093464491
584,701.7764048179425
585,701.7165006541667
586,701.6596687430177
587,701.6060328595795
588,701.5556643386
589,701.5085777707054
590,701.4647273096921
591,701.4240039887253
592,701.3862343532925
593,701.3511807277205
594,701.3185434419221
595,701.2879652675997
596,701.2590381203203
597,701.2313118204557
598,701.2043044700242
599,701.1775138736115
600,701.1504294202255
601,701.1225439272765
602,701.0933651072625
603,701.062426487217
604,701.0292976918138
605,700.9935939787173
606,700.9549848699797
607,700.9132017002039
608,700.8680438820486
609,700.8193836888042
610,700.7671694210704
611,700.7114269364192
612,700.6522595885649
613,700.5898466247066
614,700.5244401044627
615,700.4563604808048
616,700.3859910700278
617,700.3137716660906
618,700.2401915345284
619,700.1657820077281
620,700.0911089006468
621,700.0167649000482
622,699.943361888823
623,699.8715229062861
624,699.8018732774749
625,699.7350305134306
626,699.6715929124535
627,699.6121272641193
628,699.5571564768076
629,699.5071481412663
630,699.4625049483684
631,699.4235575650073
632,699.390560178511
633,699.363688606998
634,699.3430407480324
635,699.3286391852811
636,699.3204358730247
637,699.3183188482614
638,699.3221208305497
639,699.3316293880744
640,699.3465981456975
641,699.3667583753744
642,699.3918303034704
643,699.4215335707037
644,699.45559641024
645,699.4937632325539
646,699.5358004308946
647,699.581500332203
648,699.6306832881374
649,699.6831979353134
650,699.7389196688781
651,699.7977473782125
652,699.8595985117681
653,699.9244026040658
654,699.9920935199129
655,700.0626008075571
656,700.1358406390304
657,700.2117068373425
658,700.2900625014613
659,700.3707327848294
660,700.4534994336965
661,700.5380976750496
662,700.6242158944387
663,700.711498268195
664,700.7995502218822
665,700.8879463842237
666,700.9762405763365
667,701.0639772367323
668,701.1507035182642
669,701.2359811691863
670,701.3193972962029
671,701.4005732276712
672,701.4791709187841
673,701.5548966052959
674,701.6275016832486
675,701.6967810696536
676,701.7625695517471
677,701.824736794388
678,701.8831817375964
679,701.9378271326686
680,701.9886149486762
681,702.0355032710198
682,702.0784650453215
683,702.1174886019502
684,702.1525794550209
685,702.1837626007122
686,702.211084558058
687,702.2346146355628
688,702.2544451982235
689,702.2706909299676
690,702.2834872255859
691,702.2929879364671
692,702.2993627306795
693,702.3027942750765
694,702.3034752933493
695,702.3016053449646
696,702.2973870186668
697,702.2910212749186
698,702.2827019477465
699,702.2726098161194
700,702.2609069901323
701,702.2477324898416
702,702.233199776519
703,702.2173966639123
704,702.2003876137314
705,702.1822180549132
706,702.1629201460622
707,702.1425193398131
708,702.1210411925027
709,702.0985180460657
710,702.0749954037627
711,702.0505379450484
712,702.0252351450167
713,701.9992063766557
714,701.9726051859858
715,701.9456221963161
716,701.918485946528
717,701.891461031793
718,701.8648432108605
719,701.8389515517844
720,701.8141180688461
721,701.7906755867267
722,701.7689447011451
723,701.7492206358679
724,701.7317605765846
725,701.7167718635982
726,701.7044013657885
727,701.694726398527
728,701.6877475820578
729,701.6833839972211
730,701.681470882673
731,701.6817599951647
732,701.6839226836231
733,701.6875556876269
734,701.6921895868429
735,701.6972996736955
736,701.7023188514261
737,701.7066520487797
738,701.7096916126261
739,701.7108331443709
740,701.7094912218173
741,701.7051143811559
742,701.697198673726
743,701.68529911775
744,701.66903845546
745,701.6481128125237
746,701.6222941653049
747,701.591429908738
748,701.5554401269969
749,701.5143132533083
750,701.4681006613617
751,701.4169104936072
752,701.3609008601439
753,701.3002725100243
754,701.2352611550814
755,701.1661297412562
756,701.09316105103
757,701.0166510393069
758,700.936903219407
759,700.8542242258001
760,700.7689204680954
761,700.6812956906841
762,700.5916493304186
763,700.5002757362503
764,700.407464401556
765,700.3135012556611
766,700.2186708325968
767,700.1232589299367
768,700.0275552653849
769,699.9318556207747
770,699.8364630097908
771,699.7416875212067
772,699.647844662515
773,699.5552522079722
774,699.4642256982804
775,699.3750728499886
776,699.2880872226214
777,699.203541551745
778,699.1216811939616
779,699.0427181816398
780,698.9668264394264
781,698.8941386637391
782,698.824745117598
783,698.7586942140928
784,698.6959944499401
785,698.6366171485693
786,698.5804995566168
787,698.5275480027675
788,698.4776410089781
789,698.4306324120188
790,698.3863546799454
791,698.344622698466
792,698.3052383544508
793,698.2679961753425
794,698.2326900389344
795,698.1991206643688
796,698.1671034098816
797,698.136475883454
798,698.1071049574526
799,698.0788929124715
800,698.0517825784729
801,698.0257614293871
802,698.0008645665393
803,697.9771764260154
804,697.9548309760892
805,697.9340102069698
806,697.914940815883
807,697.8978890838415
808,697.8831540101975
809,697.8710588241627
810,697.8619410257421
811,697.856141136577
812,697.853990398687
813,697.8557977647565
814,697.8618366581038
815,697.8723320937314
816,697.8874488046251
817,697.9072810188669
818,697.9318445106918
819,697.9610714991547
820,697.9948088628163
821,698.0328199428516
822,698.0747899053943
823,698.1203342937014
824,698.1690101584703
825,698.2203290810708
826,698.2737714263209
827,698.3288011536825
828,698.384880445579
829,698.4414833755478
830,698.4981079513011
831,698.5542861255675
832,698.6095916577685
833,698.6636459247982
834,698.7161218836499
835,698.7667464024615
836,698.8153011443403
837,698.8616221455358
838,698.9055981842401
839,698.9471679976676
840,698.9863164006221
841,699.0230694043134
842,699.0574885169244
843,699.0896644903904
844,699.1197108092282
845,699.1477571770125
846,699.1739431908097
847,699.1984123646971
848,699.2213066840128
849,699.2427619108533
850,699.2629038670166
851,699.2818458675016
852,699.2996874198222
853,699.3165143224387
854,699.3324003714342
855,699.3474108918862
856,699.3616081431277
857,699.3750583218259
858,699.3878395124271
859,699.4000496135166
860,699.4118130662455
861,699.4232851948185
862,699.434653196609
863,699.4461332685386
864,699.4579639068896
865,699.4703959077966
866,699.4836799089602
867,699.4980524494092
868,699.5137215675657
869,699.5308529498942
870,699.5495575373001
871,699.5698812852872
872,699.591797566158
873,699.615202595293
874,699.6399142053077
875,699.6656741515183
876,699.6921538796287
877,699.7189634325528
878,699.7456630360463
879,699.7717768815761
880,699.7968086272308
881,699.8202580940996
882,699.8416385546315
883,699.8604939456499
884,699.876415351012
885,699.8890562095995
886,699.8981458380678
887,699.9035008789508
888,699.9050341806336
889,699.9027605610813
890,699.8967990498181
891,699.8873714697231
892,699.8747974248178
893,699.8594858335445
894,699.8419231884529
895,699.822658841721
896,699.8022877973156
897,699.78143165763
898,699.7607185002214
899,699.7407625483561
900,699.7221444966651
901,699.705393225113
902,699.6909694699777
903,699.6792519655646
904,699.6705266414791
905,699.6649795005643
906,699.6626936418954
907,699.66365051263
908,699.6677349999219
909,699.6747435602688
910,699.6843943297922
911,699.6963381355491
912,699.710169560468
913,699.7254376083838
914,699.7416558763659
915,699.7583123383364
916,699.774878914951
917,699.7908210599326
