frame_number,force
0,701.0280760000684
1,700.8855427844245
2,700.7439450473203
3,700.604196935667
4,700.4671710365521
5,700.3336802710431
6,700.2044626490932
7,700.0801691582045
8,699.9613546074615
9,699.8484710105918
10,699.7418630812053
11,699.6417655255589
12,699.5483019789128
13,699.4614856125035
14,699.3812215973779
15,699.3073116990568
16,699.239461261738
17,699.1772887095863
18,699.1203374718672
19,699.0680899916237
20,699.0199832547036
21,698.9754251112491
22,698.933810596837
23,698.8945375100012
24,698.8570206216186
25,698.8207040233655
26,698.7850712748999
27,698.7496532300975
28,698.7140336870203
29,698.6778532145721
30,698.6408116121214
31,698.6026694746083
32,698.5632492487148
33,698.522435946829
34,698.4801774064256
35,698.4364837916261
36,698.3914260147737
37,698.3451328681167
38,698.2977868025599
39,698.2496184031986
40,698.2008996771906
41,698.1519363168127
42,698.1030591552358
43,698.0546150806534
44,698.0069576911159
45,697.9604379785368
46,697.9153953715602
47,697.8721495444503
48,697.8309934496896
49,697.7921879712371
50,697.7559584003292
51,697.7224926971902
52,697.6919413519005
53,697.6644186391236
54,697.6400051014152
55,697.6187510925394
56,697.6006811484081
57,697.5857989215298
58,697.5740924939342
59,697.5655400219939
60,697.5601157471036
61,697.557796369464
62,697.5585676375138
63,697.5624308017026
64,697.5694084189498
65,697.579548986754
66,697.5929300519906
67,697.6096596658575
68,697.6298761880358
69,697.6537464133214
70,697.681461888326
71,697.7132332586671
72,697.7492825967726
73,697.789833831457
74,697.8351015533588
75,697.8852786068223
76,697.9405230166209
77,698.0009449146872
78,698.0665942059711
79,698.1374497413153
80,698.2134107392693
81,698.2942911231745
82,698.3798173495361
83,698.4696301921056
84,698.5632907409362
85,698.6602905480601
86,698.7600654817566
87,698.8620125424611
88,698.9655086876276
89,699.0699306111522
90,699.1746744068322
91,699.2791740744932
92,699.3829178775936
93,699.4854616555415
94,699.5864383661014
95,699.6855633904244
96,699.7826354640337
97,699.8775334721099
98,699.9702097142027
99,700.0606805415289
100,700.1490154403848
101,700.2353256367044
102,700.319753154818
103,700.4024610762708
104,700.4836255712015
105,700.5634300386488
106,700.6420613095265
107,700.7197074511225
108,700.7965564881965
109,700.872795384751
110,700.9486087971816
111,701.0241773096135
112,701.0996750492616
113,701.1752667165237
114,701.2511041534267
115,701.3273226633322
116,701.4040374041725
117,701.4813402715029
118,701.5592977147319
119,701.6379498411526
120,701.7173109309148
121,701.7973711602087
122,701.8780990415094
123,701.9594439699766
124,702.0413383626002
125,702.1236991487461
126,702.2064286999064
127,702.2894155096077
128,702.3725349349717
129,702.455650122956
130,702.5386130333812
131,702.6212653849542
132,702.7034394015664
133,702.7849583474948
134,702.8656369482037
135,702.9452818576824
136,703.0236923135154
137,703.1006610184348
138,703.1759751744984
139,703.2494175478105
140,703.3207674497579
141,703.3898015286649
142,703.4562942716653
143,703.5200181796724
144,703.5807437311911
145,703.6382394426313
146,703.6922724441217
147,703.7426099029694
148,703.7890213289112
149,703.8312814347211
150,703.869173035542
151,703.902489568148
152,703.9310370722893
153,703.9546356750336
154,703.9731206780352
155,703.9863433577884
156,703.9941716486206
157,703.9964910116936
158,703.9932059516296
159,703.9842427047978
160,703.9695534645247
161,703.9491221254983
162,703.9229710651375
163,703.8911681071614
164,703.8538326570903
165,703.811140145965
166,703.7633243568133
167,703.7106777460401
168,703.6535502301087
169,703.5923469384674
170,703.5275251973633
171,703.4595906897803
172,703.3890925248846
173,703.3166169296213
174,703.2427793735762
175,703.1682150347888
176,703.0935675767614
177,703.0194762886618
178,702.9465617852929
179,702.8754106602289
180,702.8065596988098
181,702.7404804492123
182,702.6775650598838
183,702.6181142635944
184,702.5623282459397
185,702.5103009634254
186,702.4620183006008
187,702.417360226895
188,702.3761068048062
189,702.3379475762194
190,702.3024936338663
191,702.2692916405937
192,702.237839125651
193,702.2076004312478
194,702.1780226642601
195,702.1485510093914
196,702.1186428395804
197,702.0877801772676
198,702.0554801831469
199,702.0213035113762
200,701.9848605802454
201,701.9458159911724
202,701.9038914018472
203,701.858867102789
204,701.8105824167048
205,701.7589349225287
206,701.7038784587251
207,701.6454198893091
208,701.5836146773333
209,701.5185613343142
210,701.4503947789024
211,701.3792786232356
212,701.3053965076763
213,701.228942819243
214,701.1501133603941
215,701.0690966828079
216,700.9860667996879
217,700.9011778275758
218,700.8145608496862
219,700.7263230384601
220,700.6365488797667
221,700.5453032001345
222,700.4526355884873
223,700.3585857089257
224,700.2631889445257
225,700.1664818683655
226,700.0685072454692
227,699.9693185424018
228,699.8689841108923
229,699.7675912349486
230,699.6652500969986
231,699.5620974858808
232,699.4582998447416
233,699.3540551781282
234,699.2495934675908
235,699.1451755100051
236,699.0410903626191
237,698.9376517653775
238,698.8351939796688
239,698.7340674351871
240,698.634634456878
241,698.5372652193935
242,698.442333974606
243,698.3502154906171
244,698.2612815291217
245,698.1758971477464
246,698.094416700741
247,698.0171795593985
248,697.9445056411345
249,697.8766907441131
250,697.8140014970592
251,697.7566696107319
252,697.704885179222
253,697.6587890112211
254,697.6184642597485
255,697.5839278704324
256,697.5551225616412
257,697.5319101662919
258,697.5140671458302
259,697.5012829173085
260,697.4931614224415
261,697.4892262450022
262,697.4889295573279
263,697.4916651381893
264,697.4967855408067
265,697.5036231627106
266,697.511514537858
267,697.5198267802473
268,697.527984889539
269,697.5354985742534
270,697.5419872189811
271,697.5472015314476
272,697.5510403471804
273,697.5535612284039
274,697.5549839418399
275,697.5556865226993
276,697.5561942458646
277,697.5571623104863
278,697.5593533528636
279,697.5636110225404
280,697.5708308270015
281,697.5819293746694
282,697.5978131330282
283,697.6193478784382
284,697.6473300298145
285,697.6824609074616
286,697.7253246499705
287,697.7763701770538
288,697.8358973067485
289,697.9040469438689
290,697.9807951407645
291,698.0659507796463
292,698.1591566212157
293,698.2598935029993
294,698.3674875682619
295,698.4811205438378
296,698.5998431857909
297,698.7225920122823
298,698.8482093513902
299,698.9754665802284
300,699.1030902118167
301,699.2297901762267
302,699.3542892955742
303,699.4753527059087
304,699.5918159441413
305,699.7026105843939
306,699.8067865818265
307,699.9035307812505
308,699.9921813321771
309,700.0722379895462
310,700.1433684289152
311,700.2054107490034
312,700.2583723172623
313,700.3024251206007
314,700.3378978739315
315,700.365265289701
316,700.3851350207331
317,700.3982327739343
318,700.4053859662571
319,700.4075061340735
320,700.4055701913126
321,700.4006006083691
322,700.3936446433125
323,700.385752832455
324,700.3779569822206
325,700.371247919875
326,700.3665533247529
327,700.3647160890265
328,700.3664737889486
329,700.3724399302978
330,700.3830876613052
331,700.3987366440523
332,700.4195437599321
333,700.445498272299
334,700.4764218922517
335,700.5119738303815
336,700.551660452654
337,700.5948487692252
338,700.6407827704186
339,700.6886015790831
340,700.7373584952844
341,700.7860402325656
342,700.8335858883424
343,700.8789053731567
344,700.9208971674508
345,700.958465437559
346,700.990536681273
347,701.0160760635515
348,701.0341033975137
349,701.0437084283922
350,701.0440648638593
351,701.0344425908676
352,701.0142177380508
353,700.9828805845166
354,700.9400416309176
355,700.8854363017763
356,700.8189286629876
357,700.7405142344562
358,700.650321586629
359,700.5486121114274
360,700.4357772653383
361,700.3123327161711
362,700.1789091601358
363,700.036240019941
364,699.8851466242584
365,699.7265216819558
366,699.5613118950585
367,699.3905004597003
368,699.215090043786
369,699.0360866638321
370,698.8544847669863
371,698.6712537720684
372,698.4873263062381
373,698.3035883658631
374,698.1208716207116
375,697.9399480333393
376,697.7615268331166
377,697.5862536796137
378,697.414711647205
379,697.2474235231384
380,697.0848548497918
381,696.9274171518279
382,696.7754708589288
383,696.6293275487722
384,696.4892512901893
385,696.3554590768357
386,696.2281205786303
387,696.1073575911275
388,695.9932435341054
389,695.8858031808307
390,695.785012639604
391,695.6907995758861
392,695.6030437430533
393,695.5215779710713
394,695.4461897659507
395,695.3766236306358
396,695.3125841923182
397,695.2537402063767
398,695.1997294585834
399,695.1501644738642
400,695.1046387499506
401,695.0627330289985
402,695.0240210647155
403,694.9880745486223
404,694.9544672193367
405,694.9227784731046
406,694.8925969154532
407,694.8635242810708
408,694.8351800648638
409,694.8072070646697
410,694.7792778099958
411,694.7511015475629
412,694.7224311621184
413,694.6930692451756
414,694.6628725423494
415,694.6317542084932
416,694.5996836462386
417,694.5666841287687
418,694.532828781154
419,694.4982356606423
420,694.463062565952
421,694.4275019073785
422,694.3917756756999
423,694.3561304177014
424,694.3208321717021
425,694.286161426712
426,694.2524082417788
427,694.2198676670732
428,694.1888355414676
429,694.159604613618
430,694.1324608184898
431,694.1076795569576
432,694.0855220151067
433,694.0662318076361
434,694.0500323417735
435,694.0371251727554
436,694.0276893474082
437,694.0218814971159
438,694.0198363482004
439,694.0216673287337
440,694.027467003239
441,694.0373071539128
442,694.051238455462
443,694.0692898348849
444,694.0914677297101
445,694.1177555335485
446,694.148113532323
447,694.1824795864491
448,694.2207707220197
449,694.2628856878404
450,694.3087084346333
451,694.3581123690143
452,694.4109651020896
453,694.4671332567915
454,694.526486781302
455,694.5889022096203
456,694.654264442415
457,694.7224668639344
458,694.7934098798893
459,694.8669981457576
460,694.9431368041065
461,695.0217270283978
462,695.1026611929286
463,695.1858180999819
464,695.2710588386115
465,695.3582239169264
466,695.4471322157098
467,695.537582041537
468,695.6293541780474
469,695.7222164664115
470,695.8159292291509
471,695.9102508820507
472,696.0049433396956
473,696.099777162322
474,696.1945366343685
475,696.2890250381189
476,696.383070339334
477,696.476531382977
478,696.5693045075193
479,696.6613302541654
480,696.7525996321805
481,696.843159240631
482,696.933114472855
483,697.0226300947894
484,697.1119277155447
485,697.2012800077171
486,697.29100188573
487,697.3814391389336
488,697.4729552386746
489,697.5659172122307
490,697.6606815690023
491,697.7575812219897
492,697.8569141611157
493,697.9589343254964
494,698.0638447300952
495,698.1717925320977
496,698.2828654993288
497,698.3970893043601
498,698.5144251585626
499,698.6347674670642
500,698.7579414215766
501,698.8837007351428
502,699.0117259766579
503,699.1416240965458
504,699.2729297421466
505,699.4051088709889
506,699.5375649861018
507,699.6696480734321
508,699.8006661094553
509,699.9298988919468
510,700.0566138994699
511,700.1800838165284
512,700.2996052079051
513,700.4145176157815
514,700.5242221932059
515,700.6281989740366
516,700.7260220265239
517,700.8173719841908
518,700.9020457194043
519,700.9799631597197
520,701.0511713694644
521,701.1158459671107
522,701.1742897582119
523,701.2269282711516
524,701.2743018257586
525,701.3170538945533
526,701.355915789204
527,701.3916880316327
528,701.4252190815366
529,701.4573823415899
530,701.4890524838167
531,701.5210820943198
532,701.554279454368
533,701.589388038963
534,701.6270680868674
535,701.6678804466134
536,701.7122728855863
537,701.7605691486036
538,701.8129611641983
539,701.8695047864348
540,701.9301192676418
541,701.9945903658415
542,702.0625767599878
543,702.1336193523358
544,702.2071530130444
545,702.2825202775726
546,702.3589864496771
547,702.4357555679849
548,702.5119868011288
549,702.5868109898547
550,702.6593471606295
551,702.7287188703656
552,702.7940702616621
553,702.8545817489602
554,702.9094852809225
555,702.9580790697232
556,702.999741531429
557,703.0339440084327
558,703.0602617272258
559,703.0783824118031
560,703.0881120232127
561,703.0893772469618
562,703.0822246071438
563,703.0668163810159
564,703.0434236993881
565,703.0124172793153
566,702.9742562125889
567,702.9294752477268
568,702.8786710728156
569,702.8224881458445
570,702.7616045722756
571,702.6967184122285
572,702.6285346565214
573,702.5577530102009
574,702.485056624652
575,702.4111020061019
576,702.3365104201823
577,702.261861152153
578,702.1876869420972
579,702.1144717530142
580,702.0426507215467
581,701.9726117486885
582,701.9046978603384
583,701.8392093463042
584,701.7764048178215
585,701.7165006540669
586,701.6596687429363
587,701.6060328595137
588,701.5556643385465
589,701.5085777706616
590,701.4647273096562
591,701.424003988696
592,701.3862343532684
593,701.3511807277001
594,701.3185434419041
595,701.2879652675823
596,701.2590381203009
597,701.2313118204318
598,701.204304469993
599,701.1775138735708
600,701.1504294201733
601,701.122543927211
602,701.093365107182
603,701.0624264871199
604,701.0292976916987
605,700.9935939785834
606,700.9549848698261
607,700.9132017000294
608,700.8680438818517
609,700.8193836885835
610,700.7671694208248
611,700.711426936148
612,700.6522595882678
613,700.589846624384
614,700.5244401041156
615,700.4563604804355
616,700.3859910696391
617,700.3137716656859
618,700.2401915341111
619,700.1657820073015
620,700.091108900214
621,700.0167648996123
622,699.9433618883872
623,699.8715229058533
624,699.8018732770475
625,699.7350305130111
626,699.6715929120439
627,699.6121272637214
628,699.557156476423
629,699.5071481408962
630,699.4625049480137
631,699.4235575646682
632,699.3905601781871
633,699.3636886066889
634,699.3430407477373
635,699.328639184999
636,699.3204358727548
637,699.3183188480026
638,699.322120830301
639,699.3316293878345
640,699.3465981454652
641,699.3667583751483
642,699.3918303032485
643,699.421533570484
644,699.4555964100206
645,699.4937632323325
646,699.5358004306692
647,699.5815003319716
648,699.6306832878989
649,699.6831979350671
650,699.7389196686236
651,699.7977473779488
652,699.8595985114943
653,699.9244026037805
654,699.9920935196149
655,700.0626008072448
656,700.1358406387027
657,700.2117068369979
658,700.2900625010986
659,700.3707327844473
660,700.4534994332939
661,700.5380976746261
662,700.6242158939943
663,700.7114982677301
664,700.7995502213979
665,700.8879463837217
666,700.9762405758187
667,701.0639772362013
668,701.150703517723
669,701.2359811686382
670,701.3193972956516
671,701.4005732271202
672,701.479170918237
673,701.554896604756
674,701.6275016827186
675,701.6967810691359
676,701.7625695512442
677,701.8247367939019
678,701.8831817371291
679,701.9378271322213
680,701.9886149482494
681,702.0355032706136
682,702.0784650449353
683,702.1174886015826
684,702.1525794546703
685,702.1837626003768
686,702.2110845577362
687,702.2346146352528
688,702.2544451979238
689,702.2706909296768
690,702.2834872253022
691,702.2929879361886
692,702.2993627304043
693,702.3027942748024
694,702.3034752930747
695,702.3016053446883
696,702.297387018388
697,702.2910212746374
698,702.2827019474627
699,702.2726098158329
700,702.260906989843
701,702.247732489549
702,702.2331997762222
703,702.2173966636104
704,702.2003876134227
705,702.1822180545954
706,702.1629201457334
707,702.1425193394715
708,702.1210411921472
709,702.0985180456962
710,702.0749954033791
711,702.0505379446505
712,702.0252351446043
713,701.9992063762282
714,701.9726051855431
715,701.945622195858
716,701.9184859460545
717,701.8914610313042
718,701.8648432103566
719,701.8389515512663
720,701.8141180683148
721,701.790675586183
722,701.7689447005903
723,701.7492206353033
724,701.7317605760117
725,701.7167718630185
726,701.704401365204
727,701.6947263979409
728,701.6877475814742
729,701.683383996645
730,701.6814708821094
731,701.6817599946178
732,701.6839226830966
733,701.6875556871238
734,701.6921895863652
735,701.6972996732442
736,701.7023188510016
737,701.706652048382
738,701.7096916122551
739,701.7108331440261
740,701.7094912214974
741,701.7051143808592
742,701.6971986734502
743,701.6852991174927
744,701.6690384552192
745,701.648112812297
746,701.6222941650908
747,701.5914299085357
748,701.5554401268062
749,701.5143132531288
750,701.4681006611929
751,701.4169104934483
752,701.3609008599938
753,701.3002725098813
754,701.2352611549439
755,701.1661297411225
756,701.093161050898
757,701.0166510391741
758,700.9369032192707
759,700.8542242256567
760,700.7689204679408
761,700.681295690514
762,700.5916493302287
763,700.5002757360368
764,700.4074644013158
765,700.3135012553914
766,700.2186708322956
767,700.1232589296028
768,700.0275552650178
769,699.9318556203752
770,699.8364630093612
771,699.7416875207504
772,699.6478446620357
773,699.5552522074739
774,699.4642256977672
775,699.3750728494647
776,699.2880872220912
777,699.203541551213
778,699.1216811934322
779,699.0427181811173
780,698.9668264389145
781,698.894138663241
782,698.8247451171168
783,698.7586942136309
784,698.6959944494998
785,698.6366171481528
786,698.5804995562264
787,698.5275480024053
788,698.4776410086462
789,698.430632411719
790,698.3863546796789
791,698.3446226982334
792,698.3052383542512
793,698.2679961751737
794,698.2326900387931
795,698.1991206642507
796,698.1671034097815
797,698.1364758833662
798,698.1071049573712
799,698.0788929123898
800,698.0517825783842
801,698.0257614292848
802,698.0008645664174
803,697.9771764258686
804,697.9548309759135
805,697.9340102067622
806,697.9149408156416
807,697.8978890835659
808,697.8831540098889
809,697.8710588238229
810,697.8619410253732
811,697.8561411361815
812,697.8539903982675
813,697.8557977643161
814,697.8618366576463
815,697.872332093261
816,697.8874488041462
817,697.9072810183843
818,697.9318445102101
819,697.9610714986779
820,697.9948088623478
821,698.0328199423942
822,698.0747899049505
823,698.1203342932737
824,698.1690101580605
825,698.2203290806801
826,698.2737714259506
827,698.3288011533335
828,698.3848804452518
829,698.4414833752427
830,698.4981079510181
831,698.5542861253064
832,698.609591657528
833,698.6636459245758
834,698.7161218834425
835,698.7667464022654
836,698.8153011441517
837,698.8616221453511
838,698.9055981840561
839,698.9471679974808
840,698.9863164004296
841,699.023069404113
842,699.0574885167146
843,699.0896644901703
844,699.1197108089979
845,699.1477571767726
846,699.1739431905615
847,699.1984123644424
848,699.2213066837536
849,699.2427619105911
850,699.2629038667527
851,699.2818458672382
852,699.2996874195616
853,699.3165143221829
854,699.3324003711854
855,699.347410891646
856,699.3616081428975
857,699.3750583216058
858,699.3878395122165
859,699.4000496133143
860,699.4118130660504
861,699.4232851946297
862,699.4346531964258
863,699.4461332683603
864,699.4579639067163
865,699.4703959076284
866,699.4836799087968
867,699.4980524492504
868,699.513721567411
869,699.5308529497429
870,699.5495575371509
871,699.5698812851386
872,699.5917975660084
873,699.6152025951411
874,699.6399142051525
875,699.6656741513589
876,699.6921538794644
877,699.7189634323832
878,699.7456630358713
879,699.7717768813955
880,699.7968086270441
881,699.8202580939068
882,699.8416385544326
883,699.8604939454452
884,699.8764153508018
885,699.889056209384
886,699.8981458378464
887,699.9035008787225
888,699.9050341803973
889,699.9027605608361
890,699.8967990495636
891,699.8873714694588
892,699.8747974245431
893,699.8594858332589
894,699.8419231881561
895,699.8226588414129
896,699.8022877969967
897,699.7814316573016
898,699.760718499885
899,699.7407625480132
900,699.7221444963171
901,699.7053932247611
902,699.690969469623
903,699.6792519652081
904,699.670526641122
905,699.6649795002072
906,699.6626936415385
907,699.6636505122725
908,699.6677349995626
909,699.6747435599065
910,699.6843943294259
911,699.696338135178
912,699.710169560092
913,699.7254376080033
914,699.7416558759819
915,699.7583123379508
916,699.7748789145663
