frame_number,force
0,701.0280759942531
1,700.9274789650061
2,700.8270270014143
3,700.7268640730179
4,700.6271319808172
5,700.5279693311481
6,700.4295105749053
7,700.3318851253739
8,700.2352165621471
9,700.139621925095
10,700.0452111012878
11,699.9520863079931
12,699.8603416755371
13,699.7700629346529
14,699.681327213464
15,699.59420294895
16,699.5087499162522
17,699.4250193763944
18,699.3430543392349
19,699.262889934453
20,699.1845538797191
21,699.1080670322846
22,699.0334440085553
23,698.9606938559506
24,698.8898207619993
25,698.8208247865598
26,698.7537026043483
27,698.6884482471818
28,698.6250538381973
29,698.5635103126591
30,698.5038081212649
31,698.4459379123026
32,698.389891188387
33,698.3356609315092
34,698.283242187536
35,698.2326325997918
36,698.1838328818678
37,698.1368472218574
38,698.091683612712
39,698.0483541055435
40,698.0068749843178
41,697.9672668618035
42,697.9295546981199
43,697.8937677446314
44,697.859939416938
45,697.8281071015638
46,697.7983119021482
47,697.7705983325037
48,697.745013965101
49,697.7216090434151
50,697.700436064857
51,697.6815493387423
52,697.6650045224189
53,697.6508581387626
54,697.639167078949
55,697.6299880945442
56,697.6233772823545
57,697.6193895651745
58,697.6180781724781
59,697.6194941266183
60,697.6236857409199
61,697.6306981354933
62,697.6405727747712
63,697.6533470282305
64,697.6690537536505
65,697.6877209018654
66,697.7093711435048
67,697.7340215203888
68,697.7616831253165
69,697.7923608131849
70,697.826052944682
71,697.8627511629631
72,697.9024402044025
73,697.9450977458598
74,697.9906942920229
75,698.0391931073029
76,698.09055019767
77,698.1447143484892
78,698.2016272245938
79,698.2612235385168
80,698.3234312918697
81,698.388172093406
82,698.4553615557084
83,698.5249097706633
84,698.5967218610961
85,698.67069860184
86,698.7467370990045
87,698.8247315124794
88,698.9045738042428
89,698.9861544938443
90,699.0693634023132
91,699.154090366226
92,699.2402259044969
93,699.3276618218739
94,699.4162917355177
95,699.5060115144802
96,699.5967196262471
97,699.6883173894225
98,699.7807091365012
99,699.8738022948104
100,699.9675073964105
101,700.0617380285571
102,700.1564107355186
103,700.2514448812027
104,700.3467624808478
105,700.442288008092
106,700.5379481800804
107,700.6336717192108
108,700.7293890881555
109,700.8250321956423
110,700.920534072802
111,701.0158285225223
112,701.1108497466538
113,701.2055319576672
114,701.2998089824875
115,701.39361386728
116,701.4868784931555
117,701.5795332137035
118,701.6715065253602
119,701.762724780338
120,701.8531119488698
121,701.9425894334158
122,702.031075933734
123,702.1184873598372
124,702.2047367903907
125,702.2897344765701
126,702.3733878944913
127,702.4556018511744
128,702.5362786483205
129,702.6153183053476
130,702.6926188400289
131,702.7680766034048
132,702.8415866655259
133,702.9130432491706
134,702.982340209253
135,703.049371555748
136,703.1140320171495
137,703.1762176397757
138,703.235826416469
139,703.2927589372465
140,703.3469190541729
141,703.3982145524931
142,703.4465578198811
143,703.4918665061923
144,703.5340641677299
145,703.5730808921763
146,703.608853901646
147,703.6413281304516
148,703.6704567709993
149,703.6962017774144
150,703.7185343147055
151,703.7374351428064
152,703.7528949283005
153,703.7649144794568
154,703.7735049015105
155,703.7786876699412
156,703.780494620928
157,703.778967860478
158,703.7741595963627
159,703.7661318985859
160,703.7549563932073
161,703.7407138909246
162,703.7234939474796
163,703.7033943496508
164,703.6805205197376
165,703.6549848339807
166,703.6269058561707
167,703.5964074945776
168,703.5636180951284
169,703.5286694847539
170,703.4916959767276
171,703.452833346673
172,703.4122177858943
173,703.369984838714
174,703.3262683317637
175,703.2811993042969
176,703.2349049491997
177,703.1875075750739
178,703.1391236010527
179,703.0898625977632
180,703.0398263896673
181,702.9891082354792
182,702.9377921037909
183,702.8859520598186
184,702.833651776585
185,702.7809441808527
186,702.7278712410342
187,702.6744639005902
188,702.6207421557781
189,702.5667152717986
190,702.5123821277767
191,702.4577316794292
192,702.402743527991
193,702.3473885835139
194,702.291629809553
195,702.2354230354773
196,702.1787178228459
197,702.1214583730323
198,702.0635844641924
199,702.00503240714
200,701.9457360118148
201,701.8856275579666
202,701.8246387644655
203,701.7627017510695
204,701.6997499851685
205,701.6357192049423
206,701.5705483101609
207,701.5041802125857
208,701.4365626390878
209,701.3676488813861
210,701.297398486465
211,701.225777882165
212,701.1527609342105
213,701.0783294340141
214,701.0024735198598
215,700.9251920364001
216,700.8464928380301
217,700.7663930405045
218,700.6849192228505
219,700.6021075793656
220,700.518004019862
221,700.4326642153013
222,700.3461535852673
223,700.2585472231802
224,700.169929755017
225,700.0803951284204
226,699.9900463318853
227,699.8989950472321
228,699.8073612411195
229,699.7152727019787
230,699.6228645275664
231,699.5302785659909
232,699.4376628107854
233,699.3451707499246
234,699.2529606703351
235,699.1611949225854
236,699.0700391535848
237,698.9796615172712
238,698.8902318740263
239,698.8019209889538
240,698.7148997376709
241,698.6293383266742
242,698.5454055339551
243,698.4632679740321
244,698.383089389969
245,698.305029974099
246,698.2292457197217
247,698.1558878072386
248,698.0851020284503
249,698.0170282511424
250,697.9517999234057
251,697.8895436151478
252,697.8303785943679
253,697.7744164378045
254,697.7217606782532
255,697.6725064931472
256,697.6267404406582
257,697.5845402504117
258,697.545974675262
259,697.511103408279
260,697.4799770664024
261,697.4526372406082
262,697.4291166120165
263,697.4094391328919
264,697.3936202696924
265,697.3816673017751
266,697.3735796647256
267,697.3693493231965
268,697.3689611560858
269,697.3723933367769
270,697.379617691404
271,697.3906000177053
272,697.4053003470326
273,697.4236731345557
274,697.4456673684556
275,697.4712265966022
276,697.5002888767658
277,697.5327866624517
278,697.5686466403882
279,697.607789537409
280,697.6501299143573
281,697.6955759638797
282,697.7440293287865
283,697.7953849581427
284,697.8495310180945
285,697.9063488722488
286,697.9657131423163
287,698.0274918550807
288,698.0915466777483
289,698.1577332406209
290,698.225901543727
291,698.2958964424097
292,698.3675582057534
293,698.4407231411174
294,698.5152242781255
295,698.5908921060708
296,698.6675553589621
297,698.7450418417011
298,698.8231792892278
299,698.9017962483042
300,698.9807229688396
301,699.0597922880622
302,699.13884048702
303,699.2177080964153
304,699.2962406289014
305,699.374289217567
306,699.4517111443457
307,699.5283702465581
308,699.6041371942608
309,699.6788896351426
310,699.7525122068903
311,699.8248964190235
312,699.8959404076197
313,699.9655485680781
314,700.0336310737285
315,700.1001032913907
316,700.164885107742
317,700.2279001815923
318,700.2890751370086
319,700.3483387115208
320,700.405620873252
321,700.4608519212572
322,700.5139615845128
323,700.5648781361024
324,700.6135275395311
325,700.6598326440254
326,700.7037124458899
327,700.7450814336822
328,700.7838490354717
329,700.8199191861697
330,700.8531900318418
331,700.8835537862825
332,700.9108967532112
333,700.9350995249687
334,700.9560373646168
335,700.9735807721884
336,700.9875962285086
337,700.9979471035386
338,701.0044947117469
339,701.0070994945651
340,701.0056223093638
341,700.99992580522
342,700.9898758669756
343,700.975343109816
344,700.9562044070972
345,700.9323444351018
346,700.903657219314
347,700.8700476662893
348,700.8314330627137
349,700.787744519989
350,700.7389283406148
351,700.6849472832113
352,700.6257817063625
353,700.5614305764076
354,700.4919123291601
355,700.4172655787421
356,700.3375496673855
357,700.2528450483854
358,700.16325349184
359,700.068898101401
360,699.9699231312374
361,699.8664935959773
362,699.7587946722507
363,699.6470308975032
364,699.5314251781331
365,699.4122176232961
366,699.2896642228438
367,699.1640353884264
368,699.0356143764695
369,698.9046956111767
370,698.771582925538
371,698.6365877386947
372,698.5000271885756
373,698.3622222391891
374,698.2234957822042
375,698.0841707520659
376,697.9445682723477
377,697.8050058484743
378,697.6657956192269
379,697.5272426772538
380,697.3896434673429
381,697.2532842704072
382,697.118439780871
383,696.985371785255
384,696.854327950237
385,696.7255407294712
386,696.5992263996881
387,696.4755842368279
388,696.3547958410876
389,696.2370246162775
390,696.1224154055029
391,696.0110942832495
392,695.9031685033301
393,695.7987266015853
394,695.6978386508415
395,695.6005566638032
396,695.5069151379863
397,695.4169317354664
398,695.330608088599
399,695.2479307206332
400,695.1688720671674
401,695.0933915813731
402,695.0214369047351
403,694.9529450869686
404,694.8878438425869
405,694.8260528347964
406,694.7674849787816
407,694.7120477564436
408,694.6596445339813
409,694.6101758724943
410,694.5635408197498
411,694.5196381684541
412,694.4783676637924
413,694.439631141955
414,694.403333582476
415,694.3693840604368
416,694.3376965895465
417,694.3081908529889
418,694.2807928242643
419,694.2554352832334
420,694.2320582324328
421,694.2106092164383
422,694.1910435447895
423,694.1733244185373
424,694.157422961972
425,694.1433181632544
426,694.1309967293494
427,694.1204528614907
428,694.1116879573456
429,694.1047102452018
430,694.0995343547139
431,694.0961808293476
432,694.0946755881293
433,694.095049347355
434,694.0973370143238
435,694.101577063792
436,694.1078109046996
437,694.1160822419345
438,694.1264364366481
439,694.1389198684913
440,694.1535793033984
441,694.1704612711401
442,694.1896114578736
443,694.2110741200615
444,694.2348915269806
445,694.2611034393412
446,694.2897466311133
447,694.3208544605158
448,694.3544564944726
449,694.3905781890336
450,694.4292406265179
451,694.470460308379
452,694.5142490007196
453,694.560613627079
454,694.6095562012841
455,694.661073792606
456,694.7151585165215
457,694.7717975467361
458,694.8309731468208
459,694.8926627215975
460,694.9568388887102
461,695.023469570368
462,695.0925181053357
463,695.1639433824042
464,695.2376999981377
465,695.3137384424505
466,695.3920053145453
467,695.4724435687787
468,695.5549927858603
469,695.6395894608138
470,695.7261672969022
471,695.8146574953438
472,695.9049890339089
473,695.9970889317185
474,696.0908825006914
475,696.1862935853165
476,696.2832447923216
477,696.3816577108893
478,696.4814531223644
479,696.5825511961895
480,696.6848716667862
481,696.7883339846779
482,696.8928574346694
483,696.9983612149672
484,697.1047644739801
485,697.2119863056097
486,697.3199457079794
487,697.4285615139249
488,697.53775230411
489,697.6474363155585
490,697.7575313593163
491,697.8679547602773
492,697.9786233298217
493,698.0894533780682
494,698.2003607676911
495,698.3112610066038
496,698.4220693737693
497,698.5327010714138
498,698.6430713973808
499,698.7530959326658
500,698.8626907412689
501,698.9717725821896
502,699.0802591357312
503,699.188069247303
504,699.2951231915544
505,699.4013429582897
506,699.5066525592422
507,699.6109783518307
508,699.7142493735338
509,699.8163976792323
510,699.9173586734665
511,700.0170714290302
512,700.1154789819478
513,700.2125285909842
514,700.3081719486064
515,700.4023653308508
516,700.4950696759879
517,700.5862505855149
518,700.6758782449934
519,700.7639272658527
520,700.8503764516308
521,700.9352084925038
522,701.018409590732
523,701.099969018378
524,701.1798786088315
525,701.2581321859029
526,701.3347249379884
527,701.4096527490353
528,701.4829115019727
529,701.5544963733377
530,701.6244011393005
531,701.6926175126863
532,701.7591345283142
533,701.8239379908856
534,701.8870099965018
535,701.9483285364824
536,702.0078671910995
537,702.0655949209805
538,702.1214759641142
539,702.1754698450997
540,702.2275314998606
541,702.2776115144641
542,702.3256564727759
543,702.3716094053411
544,702.4154103303609
545,702.4569968759439
546,702.4963049710543
547,702.533269591644
548,702.5678255487915
549,702.599908306685
550,702.6294548189074
551,702.6564043714752
552,702.6806994210718
553,702.702286417325
554,702.7211165983882
555,702.737146748766
556,702.7503399071409
557,702.7606660106344
558,702.7681024613893
559,702.7726346019118
560,702.774256087231
561,702.772969144787
562,702.7687847171034
563,702.7617224869215
564,702.7518107881888
565,702.7390864083148
566,702.7235942881659
567,702.7053871277061
568,702.6845249072111
569,702.6610743355743
570,702.6351082377461
571,702.6067048929598
572,702.5759473345929
573,702.5429226220524
574,702.5077210956346
575,702.4704356266722
576,702.4311608765458
577,702.3899925786546
578,702.3470268568893
579,702.3023595920765
580,702.2560858439717
581,702.2082993313951
582,702.1590919687236
583,702.108553454788
584,702.0567709108178
585,702.0038285668294
586,701.9498074997076
587,701.894785430067
588,701.8388365873421
589,701.7820316521817
590,701.7244377823833
591,701.666118725245
592,701.607135016996
593,701.5475442689237
594,701.4874015388286
595,701.4267597845463
596,701.3656703931587
597,701.3041837757065
598,701.2423500138302
599,701.1802195427225
600,701.1178438542006
601,701.0552762043501
602,700.9925723118445
603,700.9297910349508
604,700.8669950162824
605,700.804251284396
606,700.7416318012355
607,700.6792139447317
608,700.6170809163127
609,700.5553220638706
610,700.4940331123856
611,700.4333162966648
612,700.37328039247
613,700.3140406434476
614,700.2557185825874
615,700.1984417489797
616,700.142343302799
617,700.0875615429208
618,700.0342393324837
619,699.9825234386442
620,699.932563793765
621,699.8845126854872
622,699.8385238818337
623,699.7947516953103
624,699.7533499887398
625,699.7144711269057
626,699.6782648822445
627,699.6448773085
628,699.6144496012056
629,699.5871169661347
630,699.5630075157542
631,699.5422412100297
632,699.524928853232
633,699.5111711545122
634,699.5010578581816
635,699.4946669496687
636,699.4920639436979
637,699.4933012609573
638,699.4984176978397
639,699.507437991086
640,699.520372476138
641,699.5372168357367
642,699.557951934486
643,699.5825437355119
644,699.6109432960737
645,699.6430868396611
646,699.6788959028197
647,699.718277555525
648,699.7611246940509
649,699.807316405034
650,699.8567183989936
651,699.9091835110355
652,699.964552266122
653,700.0226535065016
654,700.0833050797752
655,700.1463145871525
656,700.2114801919798
657,700.2785914884505
658,700.347430430144
659,700.4177723181975
660,700.489386849163
661,700.5620392221355
662,700.6354913028002
663,700.7095028387264
664,700.7838327167656
665,700.8582402510192
666,700.9324864883274
667,701.0063355166612
668,701.0795557600055
669,701.1519212420453
670,701.2232128009916
671,701.2932192394854
672,701.3617383963624
673,701.4285781304102
674,701.493557209732
675,701.5565061039248
676,701.6172676796433
677,701.6756978024899
678,701.7316658494435
679,701.7850551368208
680,701.8357632691908
681,701.8837024140455
682,701.928799504628
683,701.9709963692349
684,702.0102497809473
685,702.0465314193464
686,702.0798277366067
687,702.1101397237084
688,702.1374825764099
689,702.1618852637062
690,702.1833900036293
691,702.2020516527972
692,702.2179370170301
693,702.2311240902092
694,702.2417012272416
695,702.2497662550106
696,702.2554255238232
697,702.2587929026344
698,702.2599887247201
699,702.2591386952208
700,702.2563727759574
701,702.2518240645599
702,702.2456276837114
703,702.2379196926038
704,702.2288360279217
705,702.2185114775257
706,702.2070786874551
707,702.1946672021002
708,702.1814025382273
709,702.1674052954702
710,702.1527903079127
711,702.1376658425714
712,702.1221328505522
713,702.1062842753742
714,702.0902044204827
715,702.0739683749567
716,702.0576414942772
717,702.0412789332893
718,702.0249252313391
719,702.0086139536369
720,701.9923673966216
721,701.9761963676763
722,701.9601000503709
723,701.9440659649033
724,701.9280700301671
725,701.9120767308402
726,701.8960393914053
727,701.8799005586471
728,701.8635924937253
729,701.8470377736504
730,701.8301499999103
731,701.8128346098185
732,701.7949897846227
733,701.7765074472635
734,701.757274341102
735,701.737173178631
736,701.7160838467993
737,701.6938846539392
738,701.6704536026853
739,701.6456696731493
740,701.6194141002933
741,701.5915716287295
742,701.5620317276674
743,701.5306897490603
744,701.49744801341
745,701.4622168102736
746,701.4249153045862
747,701.3854723449474
748,701.3438271742524
749,701.2999300447805
750,701.2537427390562
751,701.2052389959757
752,701.154404840639
753,701.1012388168698
754,701.0457521231974
755,700.9879686552692
756,700.9279249595387
757,700.8656701041283
758,700.8012654725984
759,700.7347844849501
760,700.6663122484885
761,700.5959451406776
762,700.5237903275774
763,700.4499652239051
764,700.3745969021824
765,700.2978214576149
766,700.2197833330473
767,700.1406346062283
768,700.0605342405703
769,699.9796473004507
770,699.8981441326313
771,699.8161995166082
772,699.7339917885262
773,699.6517019451254
774,699.5695127355513
775,699.4876077498006
776,699.406170513235
777,699.3253835968673
778,699.2454277531159
779,699.1664810868328
780,699.0887182715295
781,699.012309819637
782,698.9374214122959
783,698.8642132893538
784,698.7928396962037
785,698.7234483824413
786,698.656180147801
787,698.5911684322615
788,698.5285389488522
789,698.4684093592305
790,698.4108889932144
791,698.3560786142115
792,698.3040702328627
793,698.254946970281
794,698.208782969393
795,698.1656433493965
796,698.1255841962501
797,698.0886525819438
798,698.0548866063594
799,698.02431545718
800,697.9969594851069
801,697.9728302928285
802,697.9519308361681
803,697.9342555349239
804,697.9197903903579
805,697.9085131069197
806,697.9003932171288
807,697.8953922097758
808,697.893463662536
809,697.8945533807916
810,697.8985995448933
811,697.9055328684186
812,697.915276770591
813,697.9277475671174
814,697.9428546850759
815,697.9605009085581
816,697.9805826621147
817,698.002990338766
818,698.0276086787485
819,698.0543172042388
820,698.0829907137188
821,698.1134998370233
822,698.1457116482984
823,698.1794903298528
824,698.2146978767735
825,698.2511948310091
826,698.2888410335779
827,698.3274963832208
828,698.3670215888395
829,698.4072789025224
830,698.4481328211724
831,698.4894507476779
832,698.5311036059344
833,698.5729664066054
834,698.6149187619046
835,698.6568453481129
836,698.698636314502
837,698.7401876372375
838,698.7814014167421
839,698.8221861170249
840,698.8624567459179
841,698.902134976195
842,698.9411492089996
843,698.9794345824796
844,699.016932929402
845,699.0535926875733
846,699.0893687666437
847,699.1242223750038
848,699.1581208111528
849,699.1910372247548
850,699.2229503530201
851,699.2538442377627
852,699.2837079280974
853,699.312535174162
854,699.340324118281
855,699.367076990192
856,699.3927998111214
857,699.4175021078348
858,699.441196633506
859,699.4638990885308
860,699.485627831984
861,699.5064035740569
862,699.5262490421647
863,699.5451886182325
864,699.5632479505924
865,699.5804535491345
866,699.5968323755101
867,699.6124114413176
868,699.6272174272489
869,699.6412763356199
870,699.6546131870441
871,699.6672517691338
872,699.6792144422847
873,699.6905220059342
874,699.7011936275837
875,699.7112468348797
876,699.7206975678205
877,699.7295602849654
878,699.737848115711
879,699.7455730502702
880,699.7527461589001
881,699.7593778313875
882,699.765478026917
883,699.7710565238361
884,699.7761231591512
885,699.7806880490981
886,699.7847617839644
887,699.7883555909488
888,699.7914814580826
889,699.7941522120705
890,699.7963815449905
891,699.7981839882997
892,699.7995748353823
893,699.8005700151562
894,699.8011859201401
895,699.8014391940972
896,699.8013464867349
897,699.8009241850826
898,699.8001881327781
899,699.7991533495867
900,699.7978337634487
901,699.7962419658176
902,699.7943889990263
903,699.7922841835492
904,699.7899349935218
905,699.7873469889595
906,699.7845238108654
907,699.7814672406346
908,699.7781773193109
909,699.7746525170553
910,699.770889939802
911,699.7668855593228
912,699.7626344550987
913,699.7581310604467
914,699.7533694090777
915,699.7483433802036
916,699.7430469408929
917,699.7374743848727
918,699.7316205677124
