acceleration,velocity,displacement
0.02902282329441832,0.0,0.0
0.027610930532045524,1.4158438456615962e-05,3.5396096141539907e-09
0.026201073785548187,2.761143953601439e-05,1.3982079112311579e-08
0.02479527368668192,4.0360526404071916e-05,3.0975070597333154e-08
0.023395520431457432,5.240822493360675e-05,5.416725843175282e-08
0.022003759378337224,6.375804488605541e-05,8.320882588666836e-08
0.020621877563614426,7.441445412154332e-05,1.1775195063856804e-07
0.01925169132005858,8.438284634246157e-05,1.5745127575456926e-07
0.017894935103790834,9.366950294842393e-05,2.0196436307729063e-07
0.016553251585043366,0.00010228154962063249,2.5095212621955474e-07
0.015228183043548584,0.00011022690827778047,3.0407924069415796e-07
0.013921164112328833,0.00011751424506674983,3.610145290302905e-07
0.012633515923105023,0.0001241529150756083,4.2143131906588005e-07
0.011366441718182503,0.00013015290448593016,4.850077739562647e-07
0.010121024001095344,0.00013552477091574963,5.514271928066846e-07
0.008898223294005914,0.00014027958273952495,6.203782812205033e-07
0.007698878549016436,0.00014442885820028053,6.915553914554547e-07
0.006523709221455126,0.00014798450514289842,7.646587322912495e-07
0.0053733189604359,0.00015095876218837117,8.393945491240669e-07
0.004248200815708696,0.00015336414213240732,9.154752752042615e-07
0.0031487438084834667,0.00015521337828845535,9.926196553094771e-07
0.0020752406730728907,0.00015651937440884443,1.070552843483802e-06
0.0010278965526906957,0.00015729515871528533,1.1490064767648345e-06
6.8384290757981474e-06,0.00015755384246072697,1.2277187270588374e-06
-0.0009878749252431047,0.00015730858333668513,1.3064343335081904e-06
-0.0019562426701470446,0.00015657255393783758,1.384904617826821e-06
-0.0028983114764379726,0.00015535891540119132,1.4628874851615783e-06
-0.003814165108362913,0.0001536807962549911,1.540147413075624e-06
-0.004703914118746689,0.0001515512764482137,1.6164554312514251e-06
-0.005567685732369934,0.00014898337648543454,1.691589094484837e-06
-0.006405613974965721,0.00014599005155860063,1.7653324514958458e-06
-0.007217830099065076,0.00014258419054009292,1.8374760120205192e-06
-0.008004453366606514,0.00013877861967367502,1.907816714573961e-06
-0.008765582276281965,0.0001345861107629529,1.976157897183118e-06
-0.009501286360016051,0.00013001939360387838,2.0423092732748258e-06
-0.010211598694063193,0.00012509117234035856,2.106086914760885e-06
-0.010896509263077957,0.00011981414535107327,2.167313244183743e-06
-0.011555959286609442,0.00011420102821365143,2.225817037574924e-06
-0.012189836582512395,0.00010826457924637097,2.2814334394399296e-06
-0.01279797201182288,0.00010201762709778715,2.334003991025969e-06
-0.013380137026897715,9.547309983810699e-05,2.3833766727599423e-06
-0.013936042324775492,8.864405500018869e-05,2.429405961469516e-06
-0.01446533758684165,8.15437100222844e-05,2.4719529027251346e-06
-0.01496761226628274,7.41854725590033e-05,2.5108851983704565e-06
-0.015442397370684332,6.658297014976153e-05,2.5460773090476475e-06
-0.015889168175179092,5.8750078763295675e-05,2.5774105712759117e-06
-0.016307347784689143,5.0700949773328614e-05,2.6047733284100675e-06
-0.01669631144190066,4.2450034966681164e-05,2.6280610745950698e-06
-0.0170553914608261,3.401210924099947e-05,2.64717661064699e-06
-0.017383882667569333,2.5402290708900615e-05,2.662030210634465e-06
-0.017681048253948502,1.6636057978521155e-05,2.6725397978063204e-06
-0.017946125981449387,7.729264419671682e-06,2.6786311284058684e-06
-0.018178334691752902,-1.3018507486288913e-06,2.6802379818236292e-06
-0.01837688107873518,-1.044065469125091e-05,2.6773023554636594e-06
-0.018540966667135887,-1.967011662771868e-05,2.669774662633917e-06
-0.01866979494113245,-2.8972807029785762e-05,2.657613931719541e-06
-0.018762578574545104,-3.833090040870515e-05,2.6407880048599183e-06
-0.018818546718603554,-4.772618173199231e-05,2.619273734324744e-06
-0.018836952290522596,-5.7140056484273854e-05,2.5930571747706772e-06
-0.01881707918475293,-6.655356435309274e-05,2.5621337695613355e-06
-0.01875824931731674,-7.594739647861015e-05,2.52650852935341e-06
-0.018659829421429238,-8.530191616329665e-05,2.486196201192933e-06
-0.018521237538231,-9.45971829032117e-05,2.4412214264263058e-06
-0.018341949182113217,-0.00010381297958329775,2.3916188858046782e-06
-0.01812150318975157,-0.00011292884267626395,2.3374334302397876e-06
-0.017859507267445358,-0.00012192409529056318,2.278720195748081e-06
-0.017555643229878414,-0.00013077788291489413,2.2155447011967167e-06
-0.01720967189282414,-0.00013946921169556977,2.1479829275441005e-06
-0.016821437567362898,-0.00014797698906061652,2.076121377355054e-06
-0.016390872114366843,-0.00015628006648104895,2.0000571134696377e-06
-0.015917998541799445,-0.00016435728414509053,1.919897775813103e-06
-0.015402934139093395,-0.00017218751731531374,1.835761575448002e-06
-0.01484589313327799,-0.00017974972413340657,1.7477772650858218e-06
-0.014247188832614109,-0.0001870229946248796,1.6560840853962504e-06
-0.01360723520775275,-0.0001939866006349713,1.5608316865812877e-06
-0.012926547847597952,-0.000200620046398809,1.4621800248228427e-06
-0.01220574421424378,-0.00020690311941426941,1.360299233369573e-06
-0.01144554311194416,-0.0002128159412458164,1.2553694682045515e-06
-0.010646763282564429,-0.00021833901784444354,1.1475807284319866e-06
-0.00981032104444078,-0.00022345328892619485,1.037132651739327e-06
-0.008937226904584348,-0.00022814017591345112,9.242342855294154e-07
-0.008028581094628829,-0.00023238162791325442,8.091038345727391e-07
-0.007085568003262201,-0.00023616016518772717,6.919683862974936e-07
-0.006109449502886389,-0.00023945891956426432,5.730636151094957e-07
-0.005101557207339502,-0.0002422616712418208,4.5263346740797445e-07
-0.004063283755110448,-0.0002445528814824333,3.3092982922691094e-07
-0.0029960732757161332,-0.00024631772074013995,2.0821217867126762e-07
-0.001901411249261793,-0.0002475420918713844,8.474722551838653e-08
-0.0007808140038377591,-0.0002482126481846593,-3.919145949562441e-08
0.00036418188779070194,-0.00024831680621367107,-1.63323823095207e-07
0.0015320300490301371,-0.00024784275322946585,-2.873637129559912e-07
0.0027211843214947355,-0.00024677944963683463,-4.1101926367256635e-07
0.003930108123501367,-0.0002451166265255856,-5.339932827131714e-07
0.005157282920213551,-0.00024284477876465688,-6.559836340357321e-07
0.00640121561425157,-0.0002399551541310406,-7.766836172596564e-07
0.007660444713829179,-0.0002364397390490204,-8.957823405546718e-07
0.008933545196527042,-0.00023229124157143135,-1.0129650857097848e-06
0.010219132055751307,-0.00022750307225836175,-1.127913664167233e-06
0.01151586258526893,-0.0002220693235981067,-1.2403067631313501e-06
0.01282243751523571,-0.00021598474857298055,-1.349820281174122e-06
0.014137601151149974,-0.00020924473890638414,-1.456127653043963e-06
0.015460140678584689,-0.00020184530344895046,-1.5589001636327968e-06
0.01678888478518357,-0.0001937830470830084,-1.6578072512657864e-06
0.018122701732602598,-0.00018505515045356185,-1.752516800649929e-06
0.01946049699428282,-0.0001756593507718405,-1.8426954259562794e-06
0.020801210547630032,-0.00016559392388636228,-1.9280087446208302e-06
0.02214381385797526,-0.00015485766778496095,-2.008121642538661e-06
0.023487306534634163,-0.0001434498876868086,-2.0826985314066036e-06
0.02483071261191039,-0.00013137038290017246,-2.151403599053349e-06
0.026173076419692062,-0.00011861943564227185,-2.21390105368896e-06
0.02751345804094003,-0.00010519780202711382,-2.2698553631063065e-06
0.02885092839032891,-9.110670541929659e-05,-2.318931489967909e-06
0.03018456398202973,-7.634783232620693e-05,-2.3607951244042846e-06
0.03151344147926743,-6.092333096088264e-05,-2.395112915226057e-06
0.03283663213408442,-4.4835812557544673e-05,-2.421552701105664e-06
0.0341531962404514,-2.8088355463910716e-05,-2.4397837431110277e-06
0.035462177740647714,-1.0684511968635937e-05,-2.4494769599691645e-06
0.03676259913798606,7.371682251022503e-06,-2.450305167398568e-06
0.03805345687038281,2.607569625311472e-05,-2.4419433227725335e-06
0.03933371728128649,4.5422489791032046e-05,-2.424068776261497e-06
0.04060231328274672,6.540649743204035e-05,-2.396361529455729e-06
0.04185814174777744,8.602161118967139e-05,-2.358504502300301e-06
0.04310006161660559,0.00010726116203076716,-2.3101838089951913e-06
0.044326892675014704,0.00012911790060367222,-2.2510890433365813e-06
0.04553741497044261,0.00015158397751503656,-2.180913573806904e-06
0.046730368866133215,0.00017465092347418052,-2.0993548485596e-06
0.04790445577699834,0.00019830962963496342,-2.006114710282314e-06
0.04905833965682832,0.0002225503284934201,-1.900899720750218e-06
0.05019064929693094,0.0002473625757318599,-1.783421494693898e-06
0.0512999814564629,0.00027273523342020837,-1.653397042405881e-06
0.052384904801228135,0.00029865645498463114,-1.510549120304671e-06
0.053443964604214,0.0003251136723359917,-1.3546065884745154e-06
0.05447568815954533,0.00035209358552693156,-1.1853047740087846e-06
0.05547859086976524,0.0003795821552842592,-1.002385838805987e-06
0.05645118297439475,0.0004075645987452992,-8.055991502985974e-07
0.0573919768892536,0.00043602538871121126,-5.947016534344697e-07
0.058299495114670266,0.0004649482567121922,-3.6945824207861885e-07
0.059172278646816553,0.000494316200152564,-1.296421278624298e-07
0.06000889580158871,0.0005241114937646653,1.2496479561687753e-07
0.06080795134658012,0.0005543157055517075,3.945715954459707e-07
0.06156809583265517,0.0005849097173465164,6.793779511705268e-07
0.062288035013391856,0.0006158737500580281,9.795738180216629e-07
0.06296653923807545,0.0006471873936208949,1.2953391039413937e-06
0.06360245271140778,0.0006788296416082657,1.6268433627486837e-06
0.06419470253587997,0.0007107789304200877,1.9742455057557722e-06
0.06474230748276394,0.0007430131829247486,2.337693534091981e-06
0.06524438645603503,0.0007755098564094484,2.71732429392553e-06
0.06570016660140875,0.0008082459946738093,3.1132632566963445e-06
0.06610899096804178,0.000841198284066172,3.52562432638134e-06
0.06647032557699487,0.0008743431132024311,3.954509675698491e-06
0.0667837657253043,0.0009076566360280059,4.400009613006101e-06
0.06704904137606886,0.0009411148378033492,4.862202481463939e-06
0.06726602153353906,0.0009746936035307512,5.3411545917974645e-06
0.06743471754187633,0.001008368788299605,5.836920189755054e-06
0.06755528526454249,0.0010421162890012097,6.349541459080258e-06
0.06762802611276769,0.0010759121168455372,6.879048560541945e-06
0.06765338691158461,0.0011097324701016254,7.425459707278736e-06
0.06763195862443343,0.0011435538064856299,7.98878127642555e-06
0.06756447399437164,0.0011773529146403311,8.56900795670704e-06
0.06745180418220681,0.0012111069841844757,9.166122931413242e-06
0.06729495446926834,0.0012447936738473444,9.780098095921197e-06
0.06709505904450669,0.0012783911772257881,1.041089430868948e-05
0.06685337483474024,0.0013118782856955998,1.1058461674419826e-05
0.06657127429048455,0.001345234447976906,1.1722739857837952e-05
0.06625023702781387,0.0013784398258064807,1.24036584262838e-05
0.06589184026230109,0.0014114753451290095,1.3101137219017672e-05
0.06549774805260414,0.0014443227422077359,1.3815086740851857e-05
0.06506969946787225,0.001476964604087855,1.4545408577425755e-05
0.06460949586035511,0.0015093844029199117,1.5291995829177698e-05
0.06411898743866397,0.0015415665237446664,1.6054733560843843e-05
0.06360005930755819,0.001573496285431222,1.6833499263137813e-05
0.06305461709607724,0.001605159954532131,1.762816332312865e-05
0.06248457226739458,0.001636544751872999,1.8438589499729933e-05
0.06189182720420618,0.001667638851740899,1.926463540063341e-05
0.06127826018118952,0.001698431373587248,2.0106152956965446e-05
0.06064571035179768,0.0017289123662204947,2.0962988891917382e-05
0.05999596288520025,0.001759072784529744,2.1834985179604943e-05
0.059330734398985,0.0017889044588507905,2.2721979490450077e-05
0.0586516588512595,0.0018184000571633517,2.362380561945361e-05
0.05796027408043323,0.001847553040396275,2.454029389384352e-05
0.05725800920645035,0.0018763576112179959,2.5471271556747087e-05
0.05654617312783953,0.0019048086568015682,2.6416563123751977e-05
0.0558259443550217,0.0019329016861722836,2.737599070949544e-05
0.055098362403213315,0.001960632762861842,2.834937432175397e-05
0.05436432093180763,0.0019879984336955976,2.933653212089333e-05
0.05362456277499428,0.002014995654622298,3.0337280642972804e-05
0.05287967696506105,0.0020416217145573117,3.135143498526771e-05
0.0521300977976154,0.002067874158247981,3.237880895346903e-05
0.051376105922804546,0.002093750709178086,3.341921517032555e-05
0.050617831378960955,0.0021192491935035276,3.447246514599595e-05
0.04985525843445529,0.0021443674659568815,3.553836931086105e-05
0.049088232081292864,0.0021691033385858186,3.661673701199672e-05
0.048316466020077324,0.0021934545131111613,3.770737647492097e-05
0.04753955196949492,0.002217418517608554,3.88100947326009e-05
0.046756970118087986,0.0022409926481304497,3.992469752403565e-05
0.045968100525140325,0.0022641739157912566,4.105098916501607e-05
0.04517223528038682,0.0022869589997426385,4.218877239389955e-05
0.044368591242640684,0.0023093442063733954,4.3337848195428555e-05
0.04355632319026514,0.002331325434981622,4.449801560576731e-05
0.042734537237009484,0.0023528981500884403,4.566907150203482e-05
0.04190230439652561,0.002374057360496824,4.685081037968114e-05
0.0410586742060418,0.0023947976051474657,4.804302412109221e-05
0.04020268833076634,0.002415112945781668,4.924550175882449e-05
0.0393333940624224,0.0024349969663799652,5.04580292368649e-05
0.038449857606927866,0.0024544427792973027,5.1680389173284215e-05
0.03755117704103872,0.002473443037959294,5.2912360627598365e-05
0.036636494814853135,0.002491989955923267,5.4153718876069005e-05
0.035705009687305965,0.002510075332048807,5.540423519806202e-05
0.034755987998042685,0.002527690581470144,5.666367667644176e-05
0.03378877419008744,0.0025448267720171768,5.7931806014813586e-05
0.032802800499955244,0.0025614746656896876,5.92083813742403e-05
0.03179759573789644,0.0025776247647491504,6.049315623185001e-05
0.030772793105858988,0.0025932673619600893,6.178587926352732e-05
0.02972813704388067,0.0026083925944975243,6.308629425264173e-05
0.028663489141458703,0.002622990501043859,6.439414002652707e-05
0.0275788331831365,0.002637051081625008,6.570915042219429e-05
0.026474279406401676,0.0026505643597723927,6.703105428254365e-05
0.025350068033157057,0.0026635204466322823,6.835957548414481e-05
0.02420657210360857,0.0026759096066664738,6.96944329974695e-05
0.02304429960956225,0.0026877223245947665,7.103534098028482e-05
0.021863894901374102,0.0026989493732225006,7.238200890473914e-05
0.020666139328435917,0.0027095818817799533,7.373414171848975e-05
0.0194519510633582,0.0027196114043779016,7.509144004002921e-05
0.018222384052339616,0.002729029988156826,7.64536003881629e-05
0.016978626032286556,0.0027378302406779824,7.78203154453716e-05
0.015721995570931055,0.0027460053960787867,7.919127435456079e-05
0.014453938125578464,0.002753549379502914,8.056616304845622e-05
0.013176021165515998,0.0027604568693256875,8.194466461066336e-05
0.011889928438845707,0.002766723356726778,8.332645966717648e-05
0.010597453473296973,0.0027723452022048135,8.471122680690938e-05
0.00930049238395391,0.0027773196886691264,8.609864302962786e-05
0.008001036027992159,0.0027816450707721127,8.748838421948818e-05
0.006701161514447775,0.0027853206201577225,8.888012564222063e-05
0.005403023067578994,0.0027883466663032293,9.027354246383586e-05
0.004108842265573819,0.0027907246326365175,9.16683102885708e-05
0.002820897720377654,0.0027924570676330055,9.306410571363818e-05
0.0015415143085226824,0.0027935476706402304,9.446060689820648e-05
0.00027305209302002135,0.002794001312240616,9.585749414392669e-05
-0.0009821049129496574,0.0027938240490356335,9.725445048424576e-05
-0.0022215599983127776,0.002793023132807818,9.865116227970663e-05
-0.0034429149009256445,0.0027916070140830084,0.00010004731981642933
-0.00464378074983684,0.002789585340170318,0.00010144261790499267
-0.005821788723361912,0.002786968947802018,0.00010283675647698575
-0.006974600364444966,0.0027837698505300667,0.00010422944117656877
-0.008099917517281499,0.0027800012210596353,0.0001056203839444662
-0.009195491861044914,0.0027756773687150535,0.00010700930359190986
-0.010259134008911448,0.0027708137122475643,0.00010839592636215052
-0.011288722123718979,0.0027654267482144067,0.00010977998647726601
-0.012282209998046596,0.0027595340151839653,0.00011116122666811561
-0.013237634568809975,0.002753154054042251,0.00011253939868542216
-0.014153122874205445,0.0027463063646814972,0.0001139142637901031
-0.015026898488648651,0.0027390113593407837,0.00011528559322110867
-0.015857287469815566,0.0027312903128511676,0.00011665316863915666
-0.01664272382325563,0.0027231653100278997,0.00011801678254487642
-0.0173817544523329,0.0027146591904590026,0.00011937623866999814
-0.018073043529040572,0.0027057954909636595,0.00012073135234035381
-0.01871537619786169,0.002696598386031934,0.00012208195080960272
-0.019307661513102026,0.002687092626604193,0.00012342787356276174
-0.019848934519255925,0.0026773034775961035,0.00012476897258881182
-0.02033835741609999,0.0026672566546122644,0.00012610511262186393
-0.020775219788117832,0.00265697826031121,0.0001274361713505948
-0.02115893790039572,0.0026464947208890816,0.00012876203959589488
-0.02148905306904043,0.0026358327231467225,0.00013008262145690382
-0.021765229120816628,0.002625019152599258,0.0001313978344258403
-0.0219872489819146,0.002614081033073575,0.0001327076094722585
-0.02215501048558559,0.0026030454682067,0.00013401189109757855
-0.022268521553460305,0.0025919395851969384,0.00013531063736092947
-0.022327894962715672,0.002580790481067894,0.00013660381987749568
-0.02233334294003976,0.002569625171592205,0.0001378914237906607
-0.02228517182491634,0.002558470542900966,0.000139173447719284
-0.022183777041321743,0.0025473533056844066,0.00014044990368143034
-0.022029638622573407,0.002536299951768433,0.00014172081699579355
-0.021823317533997764,0.00252533671272929,0.00014298622616191797
-0.021565453003379025,0.002514489520094946,0.00014424618272012403
-0.021256760988418874,0.0025037839665969963,0.000145500751091797
-0.020898033802317018,0.0024932452678993124,0.00014675000840042108
-0.02049014081255102,0.0024828982242455955,0.0001479940442734573
-0.020034030043211772,0.002472767181531655,0.0001492329606249016
-0.01953073045587371,0.0024628759914068835,0.00015046687141813625
-0.018981354660031938,0.0024532479701279072,0.00015169590240851996
-0.018387101805678246,0.0024439058560114797,0.0001529201908650548
-0.017749260421300882,0.002434871765454735,0.00015413988527042134
-0.017069210963214555,0.0024261671476086062,0.00015535514499868716
-0.016348427835344154,0.0024178127379089667,0.00015656613997006656
-0.015588480640787708,0.0024098285107899335,0.00015777305028224128
-0.014791034457191566,0.002402233632015439,0.00015897606581794264
-0.013957848985620093,0.0023950464111547358,0.00016017538582873518
-0.013090776487816536,0.0023882842547863765,0.00016137121849522045
-0.012191758483046234,0.002381963621043661,0.00016256378046417797
-0.011262821219334274,0.0023760999761180657,0.0001637532963634684
-0.010306069966348362,0.002370707753321645,0.00016493999829582831
-0.00932368220010025,0.002365800315280033,0.00016612412531297874
-0.008317899765357408,0.0023613899197886686,0.00016730592287174593
-0.007291020110231428,0.0023574876898197713,0.00016848564227414805
-0.006245386686284742,0.002354103588120642,0.00016966354009363314
-0.005183378598967135,0.002351246396799329,0.00017083987758986313
-0.004107399589373583,0.002348923702252244,0.00017201492011462602
-0.0030198664387439266,0.0023471418857452147,0.0001731889365116254
-0.0019231969102388316,0.002345906119907969,0.0001743621985130387
-0.0008197973729899207,0.002345220371337162,0.00017553498013584998
0.0002879497077728353,0.0023450874094208575,0.0001767075570810395
0.0013976981801867763,0.0023455088213928475,0.00017788020613874293
0.0025071502268587216,0.0023464850334946087,0.00017905320460246478
