frame_number,force
0,701.0280760065197
1,700.9138729337463
2,700.8000086638763
3,700.6868176094061
4,700.5746255239259
5,700.4637454706128
6,700.3544741212927
7,700.2470884440392
8,700.1418428021226
9,700.0389664666326
10,699.9386615403736
11,699.8411012942565
12,699.7464289241482
13,699.6547567440598
14,699.5661658377539
15,699.4807061918514
16,699.398397327178
17,699.3192294305647
18,699.2431649685901
19,699.170140742451
20,699.100070322952
21,699.0328467890292
22,698.9683456853022
23,698.9064281149721
24,698.846943890752
25,698.7897346744073
26,698.7346370454685
27,698.6814854551508
28,698.6301150407012
29,698.5803642911108
30,698.5320775638525
31,698.4851074552514
32,698.4393170230758
33,698.3945818468246
34,698.3507918940633
35,698.3078531505873
36,698.2656889741236
37,698.2242411427051
38,698.1834705828127
39,698.1433577738686
40,698.1039028337292
41,698.0651252964296
42,698.0270636003962
43,697.9897743116252
44,697.9533311101211
45,697.9178235706494
46,697.883355773855
47,697.8500447910994
48,697.8180190914397
49,697.7874169159855
50,697.7583846517726
51,697.7310752208238
52,697.7056464896834
53,697.6822597035408
54,697.6610779518863
55,697.642264672205
56,697.6259821932942
57,697.6123903170634
58,697.6016449427898
59,697.5938967471104
60,697.5892899381281
61,697.5879610986701
62,697.5900381226332
63,697.5956392329751
64,697.604872057487
65,697.6178327371333
66,697.634605052781
67,697.6552595714529
68,697.6798528216993
69,697.7084265044955
70,697.7410067373645
71,697.7776033262346
72,697.8182090660418
73,697.8627990818637
74,697.9113302317204
75,697.9637406002313
76,698.0199491203374
77,698.0798553667244
78,698.1433395678421
79,698.2102628833998
80,698.2804679902476
81,698.3537800120521
82,698.4300078196786
83,698.508945719282
84,698.590375528643
85,698.6740690172563
86,698.7597906578723
87,698.8473006140399
88,698.9363578727532
89,699.0267234236615
90,699.1181633851676
91,699.2104519802259
92,699.3033742690217
93,699.3967285536265
94,699.4903283835547
95,699.584004111388
96,699.6776039734435
97,699.7709946996747
98,699.8640616858198
99,699.9567087848538
100,700.0488577897895
101,700.1404476828073
102,700.2314337183403
103,700.3217863970888
104,700.4114903781826
105,700.5005433623218
106,700.5889549536583
107,700.6767454806189
108,700.7639447417544
109,700.8505906464698
110,700.9367277338467
111,701.0224055682629
112,701.1076770247938
113,701.1925964877893
114,701.2772179927134
115,701.3615933477931
116,701.4457702796494
117,701.5297906533704
118,701.6136888187357
119,701.6974901270386
120,701.7812096452562
121,701.8648510696872
122,701.9484058190601
123,702.0318522769518
124,702.1151551586365
125,702.1982649951757
126,702.2811177492637
127,702.3636345913998
128,702.4457218630181
129,702.5272712377066
130,702.608160074536
131,702.688251949375
132,702.7673973517658
133,702.845434540994
134,702.922190560861
135,702.997482415481
136,703.0711184052894
137,703.1428996134905
138,703.2126215235904
139,703.2800757438065
140,703.3450518134532
141,703.4073390658428
142,703.4667285216832
143,703.5230147906562
144,703.5759979691691
145,703.6254855355572
146,703.6712942517211
147,703.7132520738843
148,703.7512000539433
149,703.7849941873947
150,703.8145071507677
151,703.8396298792978
152,703.8602729552897
153,703.8763677931091
154,703.8878676124434
155,703.8947481938834
156,703.8970084170579
157,703.8946705932144
158,703.8877806177717
159,703.876407975295
160,703.860645620564
161,703.8406097346849
162,703.816439324732
163,703.7882956115847
164,703.7563611423876
165,703.7208385774464
166,703.681949135605
167,703.639930723403
168,703.5950358015585
169,703.5475290469032
170,703.4976848531204
171,703.4457846926136
172,703.392114348199
173,703.3369610230028
174,703.2806103447782
175,703.2233432881271
176,703.1654330424985
177,703.107141859141
178,703.0487179195302
179,702.9903922804183
180,702.9323759640253
181,702.8748572732746
182,702.8179994171587
183,702.7619385262514
184,702.7067821248498
185,702.6526081102919
186,702.5994642736891
187,702.54736837611
188,702.4963087682851
189,702.446245514858
190,702.3971119648172
191,702.3488167031237
192,702.3012458201231
193,702.2542654356137
194,702.2077244106082
195,702.1614571778082
196,702.1152866258138
197,702.0690269792758
198,702.0224866252054
199,701.9754708469283
200,701.9277844422844
201,701.8792342163235
202,701.8296313448302
203,701.7787936021507
204,701.7265474389862
205,701.6727298891433
206,701.6171902828007
207,701.5597917480337
208,701.5004124889456
209,701.4389468327422
210,701.3753060378627
211,701.3094188564894
212,701.2412318543027
213,701.1707095078467
214,701.097834118457
215,701.0226055941763
216,700.9450411527322
217,700.8651749885727
218,700.7830579298201
219,700.6987570940422
220,700.6123555388699
221,700.5239518943694
222,700.4336599570678
223,700.3416082194896
224,700.2479393056713
225,700.1528092877453
226,700.0563868740682
227,699.9588524793978
228,699.8603972016306
229,699.7612217316292
230,699.6615352134047
231,699.5615540555137
232,699.4615006786576
233,699.3616021789793
234,699.2620888959635
235,699.1631928928192
236,699.0651463764553
237,698.9681800973051
238,698.8725217738169
239,698.7783945825304
240,698.6860157454162
241,698.595595236401
242,698.5073346206898
243,698.4214260316221
244,698.3380512804213
245,698.2573810897461
246,698.1795744464262
247,698.1047780774644
248,698.0331260561773
249,697.9647395365782
250,697.8997265984292
251,697.8381821742305
252,697.7801880314926
253,697.7258127979233
254,697.6751120355584
255,697.628128385747
256,697.5848918187663
257,697.545420028437
258,697.5097190092506
259,697.4777838402301
260,697.4495996837989
261,697.4251429988304
262,697.4043829653698
263,697.3872831164158
264,697.3738031616305
265,697.3639009661314
266,697.3575346188896
267,697.3546645000117
268,697.355255243783
269,697.3592774941171
270,697.3667093510459
271,697.377537404752
272,697.3917572540438
273,697.4093734221872
274,697.4303986197269
275,697.4548523529867
276,697.4827589250858
277,697.5141449148506
278,697.5490362443629
279,697.587454957118
280,697.6294158285485
281,697.6749229263495
282,697.7239662373537
283,697.7765184813319
284,697.832532231636
285,697.8919374493162
286,697.9546395118978
287,698.0205177891221
288,698.0894247930294
289,698.161185910505
290,698.2355997120519
291,698.3124388203972
292,698.391451315525
293,698.4723626487153
294,698.5548780384333
295,698.638685324268
296,698.7234582561975
297,698.8088601909066
298,698.8945481553726
299,698.9801772229564
300,699.0654051282241
301,699.1498970222636
302,699.2333302441941
303,699.3153989667985
304,699.395818572716
305,699.4743296316761
306,699.5507013720668
307,699.6247345658153
308,699.6962637711223
309,699.7651589006538
310,699.8313261002911
311,699.8947079340767
312,699.9552828775852
313,700.0130641305404
314,700.0680977742392
315,700.1204603183465
316,700.1702556974691
317,700.2176117845054
318,700.2626764858779
319,700.305613478743
320,700.3465976476621
321,700.3858102813283
322,700.4234340979773
323,700.4596481762181
324,700.494622872081
325,700.528514804582
326,700.5614619959067
327,700.5935792594846
328,700.6249539355821
329,700.6556420758102
330,700.6856651748939
331,700.7150075418272
332,700.7436143945846
333,700.7713907512994
334,700.7982011701054
335,700.8238703554459
336,700.8481846067667
337,700.8708940489739
338,700.8917155601349
339,700.9103363003962
340,700.9264177458756
341,700.9396001399534
342,700.9495072851597
343,700.9557516060082
344,700.9579394184191
345,700.9556763489604
346,700.9485728539852
347,700.9362497859825
348,700.9183439387447
349,700.8945134816978
350,700.864443179487
351,700.8278492947788
352,700.784484090984
353,700.7341398800422
354,700.6766525877401
355,700.6119048254756
356,700.5398284573793
357,700.4604066365266
358,700.3736752629304
359,700.2797238019004
360,700.1786954021212
361,700.0707862698255
362,699.9562442868082
363,699.83536689899
364,699.7084983369992
365,699.5760262519393
366,699.4383778576272
367,699.2960156691655
368,699.1494329209243
369,698.9991487391189
370,698.845703139124
371,698.6896519164635
372,698.531561500961
373,698.372003843968
374,698.2115514081737
375,698.0507723256545
376,697.8902257791834
377,697.7304576453537
378,697.571996421146
379,697.4153494426334
380,697.2609993967004
381,697.1094011235366
382,696.9609787085035
383,696.8161228656669
384,696.675188621721
385,696.5384933192586
386,696.4063149703641
387,696.278890997479
388,696.1564173914559
389,696.0390482996584
390,695.9268960407518
391,695.8200315358542
392,695.7184851470721
393,695.6222479161638
394,695.5312731925377
395,695.4454786333065
396,695.3647485531916
397,695.2889365983153
398,695.2178687121605
399,695.1513463520068
400,695.0891498991458
401,695.031042190518
402,694.9767720949475
403,694.926078071874
404,694.878691676701
405,694.8343409988045
406,694.7927540282187
407,694.7536619477482
408,694.7168023432391
409,694.6819223168908
410,694.6487814749452
411,694.617154742265
412,694.5868349385213
413,694.5576350421663
414,694.5293900731368
415,694.5019585430211
416,694.4752234498594
417,694.4490928288183
418,694.423499900303
419,694.3984028724252
420,694.3737844501577
421,694.3496510852788
422,694.3260319830731
423,694.3029778750963
424,694.2805595729624
425,694.2588663280943
426,694.2380040293692
427,694.2180932723696
428,694.199267330253
429,694.1816700478379
430,694.1654536726585
431,694.1507766379173
432,694.1378013255472
433,694.1266918547656
434,694.1176119486618
435,694.1107229212381
436,694.1061818062715
437,694.1041396309028
438,694.1047398283845
439,694.1081167832482
440,694.1143945038219
441,694.1236854210824
442,694.1360893197686
443,694.1516924157136
444,694.1705665997843
445,694.192768871914
446,694.2183409874837
447,694.247309332662
448,694.2796850365949
449,694.315464318713
450,694.3546290603475
451,694.3971475806779
452,694.442975585942
453,694.4920572482703
454,694.5443263609084
455,694.5997075150885
456,694.6581172524129
457,694.7194651633235
458,694.7836549210348
459,694.8505852532327
460,694.9201508572582
461,694.9922432630588
462,695.0667516500403
463,695.143563632378
464,695.2225660382331
465,695.3036457139472
466,695.386690378518
467,695.4715895354757
468,695.558235423391
469,695.6465239613752
470,695.7363556320164
471,695.8276362481565
472,695.9202775705048
473,696.0141977696233
474,696.109321745333
475,696.205581324028
476,696.3029153533035
477,696.4012697070722
478,696.5005972030185
479,696.6008574198218
480,696.7020163882783
481,696.8040461209193
482,696.9069239412296
483,697.0106315797996
484,697.1151540223561
485,697.2204781199247
486,697.3265909971883
487,697.4334783160703
488,697.5411224674007
489,697.6495007754423
490,697.758583805717
491,697.8683338621419
492,697.978703744302
493,698.0896358112884
494,698.2010613678628
495,698.3129003592542
496,698.4250613416776
497,698.537441689435
498,698.6499280023123
499,698.7623966851999
500,698.8747146850087
501,698.9867403868209
502,699.0983246858145
503,699.2093122577102
504,699.3195430479201
505,699.4288539904004
506,699.5370809517445
507,699.6440608768022
508,699.7496340957072
509,699.8536467433452
510,699.9559532389309
511,700.0564187691482
512,700.1549217086881
513,700.2513558990087
514,700.3456326973621
515,700.4376827104512
516,700.5274571414529
517,700.614928701133
518,700.7000920579673
519,700.7829638240465
520,700.8635820875551
521,700.9420055042435
522,701.0183119519821
523,701.0925967438823
524,701.164970396326
525,701.2355559621225
526,701.3044859626626
527,701.3718989799047
528,701.4379359942719
529,701.5027365745657
530,701.5664350360972
531,701.6291566804381
532,701.6910142170003
533,701.7521044484807
534,701.8125052838727
535,701.8722731291798
536,701.9314407010921
537,701.9900153117057
538,702.0479776754598
539,702.1052812833233
540,702.1618523696729
541,702.2175904703478
542,702.2723695476159
543,702.3260396448386
544,702.378429025746
545,702.4293467441489
546,702.4785855802216
547,702.5259252747655
548,702.571135995995
549,702.6139819804915
550,702.6542252944067
551,702.6916296611132
552,702.7259643013518
553,702.7570077341367
554,702.7845514885902
555,702.808403673949
556,702.8283923462728
557,702.8443686005646
558,702.8562093118753
559,702.8638194505647
560,702.86713390502
561,702.8661187609846
562,702.8607720104802
563,702.85112369011
564,702.8372354695549
565,702.8191997213679
566,702.7971381073984
567,702.771199723921
568,702.7415588580044
569,702.7084124156047
570,702.671977083215
571,702.6324862807049
572,702.5901869563791
573,702.5453362711187
574,702.4981982210373
575,702.4490402560172
576,702.3981299591087
577,702.3457318549828
578,702.2921044124004
579,702.2374972931109
580,702.1821488758798
581,702.1262840540155
582,702.0701122785347
583,702.01382580715
584,701.9575981249828
585,701.9015825224898
586,701.8459108428526
587,701.7906924378246
588,701.7360133886315
589,701.6819360488563
590,701.6284989510845
591,701.5757171005939
592,701.5235826681318
593,701.4720660898495
594,701.4211175788203
595,701.3706690429784
596,701.3206363868569
597,701.270922152407
598,701.2214184345548
599,701.1720099957139
600,701.122577501023
601,701.073000801066
602,701.0231621997915
603,700.972949657634
604,700.9222598863647
605,700.8710012919117
606,700.8190967200389
607,700.7664859604878
608,700.7131279665816
609,700.6590027504764
610,700.6041129226703
611,700.5484848562886
612,700.492169465611
613,700.4352425927264
614,700.3778050015749
615,700.3199819884856
616,700.2619226287711
617,700.2037986850817
618,700.1458032056705
619,700.0881488433919
620,700.0310659293573
621,699.974800333378
622,699.9196111321176
623,699.8657680892708
624,699.8135489416702
625,699.7632364912887
626,699.7151155272563
627,699.6694696359832
628,699.6265779872084
629,699.5867121968056
630,699.55013335928
631,699.5170893188767
632,699.4878122181989
633,699.4625163387201
634,699.4413962363042
635,699.4246251757719
636,699.4123538731629
637,699.4047095538671
638,699.4017953257755
639,699.4036898510433
640,699.4104472830825
641,699.42209742341
642,699.4386460504238
643,699.4600753775057
644,699.4863446054309
645,699.5173905413919
646,699.5531282646464
647,699.5934518256958
648,699.6382349700613
649,699.6873318795278
650,699.7405779243117
651,699.7977904195936
652,699.8587693809346
653,699.9232982776851
654,699.9911447921729
655,700.062061602228
656,700.1357872108091
657,700.2120468480447
658,700.2905534718343
659,700.3710088963737
660,700.4531050815954
661,700.5365256153273
662,700.6209474092618
663,700.7060426100708
664,700.7914807060545
665,700.8769307952543
666,700.9620639717895
667,701.0465557773468
668,701.1300886532133
669,701.212354319654
670,701.2930560088029
671,701.3719104863203
672,701.4486498136466
673,701.5230228222815
674,701.5947962916276
675,701.6637558425813
676,701.7297065779687
677,701.7924735133735
678,701.8519018472443
679,701.9078571212316
680,701.9602253213802
681,702.0089129637801
682,702.0538471898791
683,702.0949758675181
684,702.1322676628763
685,702.1657120299566
686,702.1953190662126
687,702.221119200735
688,702.2431627028272
689,702.2615190150816
690,702.2762759254542
691,702.2875385996742
692,702.2954284982196
693,702.3000821985597
694,702.3016501325471
695,702.3002952340224
696,702.2961914809704
697,702.2895223195645
698,702.2804789772796
699,702.2692587009308
700,702.256062979557
701,702.2410958216144
702,702.2245621475572
703,702.2066663351818
704,702.1876109249164
705,702.1675954662944
706,702.1468154713089
707,702.1254614362914
708,702.1037179003606
709,702.0817625220213
710,702.0597651698632
711,702.0378870326169
712,702.0162797557086
713,701.9950846056364
714,701.9744316503915
715,701.9544389277054
716,701.9352115622737
717,701.916840797736
718,701.8994029303068
719,701.8829581599023
720,701.8675494014255
721,701.8532011184736
722,701.8399182503306
723,701.8276852969561
724,701.8164656095272
725,701.8062009181925
726,701.7968111225464
727,701.7881943711261
728,701.780227456416
729,701.7727665466315
730,701.7656482650374
731,701.7586911163024
732,701.7516972518771
733,701.7444545611498
734,701.7367390668957
735,701.7283175904504
736,701.7189506380737
737,701.7083954505167
738,701.6964091544983
739,701.6827519543006
740,701.6671902995296
741,701.6494999602406
742,701.6294689366827
743,701.606900132053
744,701.581613724241
745,701.5534491873644
746,701.5222669378094
747,701.4879496093007
748,701.4504029860142
749,701.4095566312754
750,701.3653642417285
751,701.3178037426111
752,701.2668771302641
753,701.2126100684984
754,701.1550512537864
755,701.0942715751073
756,701.0303631031327
757,700.9634379471178
758,700.8936270138661
759,700.8210786914385
760,700.7459574667646
761,700.6684424805663
762,700.5887260297511
763,700.5070120406211
764,700.4235145430832
765,700.3384561689296
766,700.2520666809754
767,700.1645815249642
768,700.0762403881959
769,699.9872857468775
770,699.8979613866545
771,699.8085108879527
772,699.7191760788662
773,699.63019546968
774,699.5418026917417
775,699.4542249695548
776,699.3676816595057
777,699.2823828909567
778,699.1985283460788
779,699.1163062163988
780,699.0358923758114
781,698.9574498040624
782,698.8811282748447
783,698.807064293532
784,698.7353812454026
785,698.6661897062179
786,698.5995878715773
787,698.5356620720161
788,698.4744873527499
789,698.4161281082178
790,698.3606387701478
791,698.3080645541351
792,698.2584422735517
793,698.211801225093
794,698.1681641334409
795,698.1275481217453
796,698.0899656625858
797,698.0554254641735
798,698.023933254354
799,697.995492436464
800,697.9701046033779
801,697.9477699045278
802,697.9284872613858
803,697.9122544219119
804,697.8990678416855
805,697.8889223840732
806,697.8818108409183
807,697.8777232836256
808,697.8766462609817
809,697.8785618650347
810,697.8834466896109
811,697.891270708578
812,697.9019961052542
813,697.9155760917268
814,697.9319537659137
815,697.9510610613839
816,697.9728178474713
817,697.9971312357354
818,698.023895145376
819,698.0529901745834
820,698.084283815024
821,698.1176310302473
822,698.1528751947734
823,698.1898493638197
824,698.2283778239129
825,698.2682778671269
826,698.3093617311957
827,698.3514386453575
828,698.394316915194
829,698.4378059758784
830,698.4817183503486
831,698.5258714667954
832,698.5700893103851
833,698.6142038996451
834,698.6580565858511
835,698.7014991754919
836,698.7443948746068
837,698.7866190520333
838,698.8280598168816
839,698.8686184045072
840,698.9082093668084
841,698.9467605679195
842,698.9842129943532
843,699.0205203966723
844,699.0556487840868
845,699.0895757925243
846,699.1222899439831
847,699.1537898147361
848,699.1840831331253
849,699.2131858320287
850,699.2411210828664
851,699.2679183354086
852,699.293612384495
853,699.318242486866
854,699.3418515573251
855,699.3644854743511
856,699.3861925134603
857,699.4070229032702
858,699.4270284721404
859,699.4462623298052
860,699.4647785132557
861,699.482631524108
862,699.4998756999526
863,699.5165643931111
864,699.5327489682542
865,699.5484776638575
866,699.5637943831834
867,699.5787374883549
868,699.5933386722148
869,699.6076219800154
870,699.6216030433305
871,699.6352885713156
872,699.6486761274591
873,699.6617542103317
874,699.6745026507746
875,699.6868933261926
876,699.6988911730406
877,699.710455459176
878,699.7215412670264
879,699.7321011364481
880,699.7420868161669
881,699.7514510698177
882,699.7601494774563
883,699.7681421698969
884,699.7753954355659
885,699.7818831493099
886,699.7875879843351
887,699.7925023723988
888,699.7966291725851
889,699.7999820078953
890,699.8025852420116
891,699.8044735906417
892,699.8056913793597
893,699.8062914678067
894,699.8063338655527
895,699.8058840755862
896,699.8050112161997
897,699.8037859854024
898,699.80227854207
899,699.8005563847917
900,699.7986823091248
901,699.7967125141955
902,699.7946949167018
903,699.7926677248618
904,699.7906583279301
905,699.7886825573916
906,699.7867443616942
907,699.7848359061379
908,699.7829380725068
909,699.781021300139
910,699.7790466886634
911,699.7769672777772
912,699.7747294330602
913,699.7722742922459
914,699.7695392497258
915,699.76645946904
916,699.762969416497
917,699.7590044117853
