acceleration,velocity,displacement
0.029055183439298058,0.0,0.0
0.027452322763778722,1.4126876550769194e-05,3.5317191376922986e-09
0.025854217247996077,2.7453511553712896e-05,1.3926816163812822e-08
0.02426556043151287,3.998345597359013e-05,3.078605804563858e-08
0.022690924324576384,5.1722577162612446e-05,5.371256632968922e-08
0.02113470282520923,6.267898395005885e-05,8.231295660785705e-08
0.01960105977586409,7.286292460032718e-05,1.1619843374545356e-07
0.018093882473286582,8.228666016261485e-05,1.5498582993618907e-07
0.016616740951748005,9.09643160188735e-05,1.9829857398156116e-07
0.015172853072241598,9.89117145248709e-05,2.4576758161749726e-07
0.013765055383987609,0.0001061461916389282,2.9703205815844705e-07
0.012395779775395221,0.00011268640042877392,3.5174020617537256e-07
0.011067036026217525,0.00011855210437917711,4.095498323773603e-07
0.009780400483803768,0.00012376396350668244,4.701288493488252e-07
0.00853701117334766,0.0001283433164209703,5.331556693307384e-07
0.007337569666067193,0.00013231196163082402,5.98319488843687e-07
0.006182349940263903,0.0001356919415324068,6.653204646344947e-07
0.005071214266336194,0.00013850533258405681,7.338697831636106e-07
0.004003635855956624,0.00014077404511463003,8.036896275882824e-07
0.002978727702550602,0.00014251963600425682,8.745130478680041e-07
0.001995276756808715,0.00014376313711909666,9.460837411488425e-07
0.0010517823623672504,0.00014452490189889065,1.0181557509033393e-06
0.00014649776557068835,0.00014482447193087515,1.0904930943607807e-06
-0.0007225264751380157,0.00014468046475348331,1.1628693285318702e-06
-0.001557398265345355,0.00014411048356836246,1.2350670656123317e-06
-0.002360339910658292,0.00014313104902436157,1.3068774487605126e-06
-0.0031336450467651556,0.0001417575527850057,1.3780995992128544e-06
-0.003879637180638696,0.00014000423222815475,1.4485400454661445e-06
-0.004600630190672755,0.0001378841653853269,1.518012144869515e-06
-0.005298890912927879,0.00013540928510942673,1.5863355074932035e-06
-0.0059766038182679235,0.00013259041142662777,1.653335431627217e-06
-0.006635837743793822,0.00012943730103611234,1.718842359742902e-06
-0.007278514698374494,0.00012595871292557027,1.7826913632333226e-06
-0.007906380946133903,0.00012216248901444316,1.844721663718326e-06
-0.008520980812095964,0.00011805564857488569,1.9047761981156583e-06
-0.009123633802539792,0.00011364449492122675,1.9627012339896864e-06
-0.00971541560556087,0.00010893473256920159,2.0183460408622935e-06
-0.010297143376942508,0.00010393159282357574,2.0715626222104876e-06
-0.01086936552056266,9.863996559919945e-05,2.1222055118161814e-06
-0.0114323560112508,9.306453521624608e-05,2.170131637020043e-06
-0.011986113194874116,8.720991791471486e-05,2.215200250302783e-06
-0.012530362907736538,8.108079888906219e-05,2.2572729295037274e-06
-0.013064565659618834,7.468206674722335e-05,2.2962136459127987e-06
-0.013587927536591892,6.801894344817067e-05,2.331888898461647e-06
-0.014099414426540759,6.109710795738751e-05,2.3641679113130366e-06
-0.0145977691315188,5.392281206787262e-05,2.3929228913193515e-06
-0.015081530860948069,4.6502987069755904e-05,2.4180293411037586e-06
-0.015549056497208325,3.88453402302168e-05,2.4393664229287516e-06
-0.015998542953965567,3.0958440367423324e-05,2.4568173680781615e-06
-0.01642804999237515,2.2851792130838145e-05,2.470269926202727e-06
-0.016835523044053474,1.4535898871730988e-05,2.479616848953369e-06
-0.017218815820905804,6.0223141554911695e-06,2.4847564022101747e-06
-0.0175757126375838,-2.6763179591312305e-06,2.4855929012592644e-06
-0.01790395038884337,-1.1546233715738022e-05,2.482037263340547e-06
-0.018201240084336313,-2.0572531334032943e-05,2.4740075720781044e-06
-0.018465287849547405,-2.9739163317503873e-05,2.46142964841522e-06
-0.018693815370592542,-3.902893912253886e-05,2.444237622805209e-06
-0.01888457979891872,-4.842353791491668e-05,2.4223745035458452e-06
-0.01903539306011349,-5.790353112967473e-05,2.3957927362846974e-06
-0.019144140380456105,-6.744841448981712e-05,2.3644547498798246e-06
-0.019208797773271127,-7.703664902824894e-05,2.328333484000308e-06
-0.019227448273989416,-8.664571054006408e-05,2.28741289410823e-06
-0.019198296868741714,-9.625214682574686e-05,2.2416884297667773e-06
-0.01911968427703561,-0.00010583164211219119,2.1911674825322927e-06
-0.01899009992344833,-0.00011535908816231217,2.135869799963667e-06
-0.018808194452242764,-0.00012480866175623495,2.07582786248403e-06
-0.01857279198388155,-0.00013415390836526604,2.0110872199536545e-06
-0.018282902097510233,-0.00014336783188561398,1.9417067848909347e-06
-0.017937731404765046,-0.0001524229902611828,1.8677590793542356e-06
-0.01753669462496689,-0.0001612915967686158,1.789330432596786e-06
-0.01707942519398879,-0.0001699456267233547,1.7065211267237933e-06
-0.016565785483874627,-0.00017835692939282055,1.6194454876947496e-06
-0.015995876619009735,-0.00018649734491854163,1.528231919116909e-06
-0.01537004772342276,-0.00019433882600414974,1.4330228763862363e-06
-0.014688904302574768,-0.00020185356401064913,1.3339747788825366e-06
-0.013953315349988511,-0.00020901411892378994,1.2312578581489268e-06
-0.013164418656433108,-0.00021579355242539534,1.1250559403116305e-06
-0.012323623709278158,-0.00022216556301682316,1.0155661614510758e-06
-0.011432611523784568,-0.00022810462182508884,9.029986152405978e-07
-0.010493330748412029,-0.00023358610739313798,7.875759329360411e-07
-0.009507989441874996,-0.00023858643744070974,6.695327967275791e-07
-0.008479042024981653,-0.0002430831953074239,5.491153885405457e-07
-0.007409171029524259,-0.0002470552485710504,4.265807775709271e-07
-0.006301263405625353,-0.0002504828571798378,3.0219625113320504e-07
-0.005158381379976588,-0.0002533477683762383,1.76238594744186e-07
-0.003983728208774225,-0.000255633295773426,4.899332870676992e-08
-0.002780609559332696,-0.00025732438021545273,-7.924609029044974e-08
-0.0015523915793764717,-0.00025840763050013,-2.0817909296934545e-07
-0.0003024569297987664,-0.0002588713426274238,-3.374988362512339e-07
0.0009658398361278037,-0.00025870549690084157,-4.6689304613330023e-07
0.002249216148113805,-0.0002579017329047812,-5.96044853584706e-07
0.0035445031847069347,-0.000256453303071576,-7.246336125787953e-07
0.004848684226941962,-0.00025435500621866377,-8.523356899013552e-07
0.006158928408107815,-0.0002516031030599013,-9.788252172209966e-07
0.007472618862088279,-0.0002481952162423523,-1.10377479704656e-06
0.008787374556844828,-0.00024413021788761903,-1.2268561555790528e-06
0.010101065461786045,-0.0002394081078829613,-1.347740737021698e-06
0.011411821107839601,-0.0002340298862405549,-1.466100235552577e-06
0.012718033003582298,-0.00022799742271269942,-1.5816070627908906e-06
0.014018351708224346,-0.00022131332653474775,-1.6939347501027523e-06
0.01531167957263076,-0.00021398081871453397,-1.8027582864150728e-06
0.0165971602007248,-0.0002060036087711951,-1.9077543932865053e-06
0.01787416558042197,-0.0001973857773259084,-2.008601739810781e-06
0.019142281683733966,-0.00018813166550986943,-2.1049811005197252e-06
0.02040129319878615,-0.0001782457717892394,-2.1965754598445023e-06
0.021651167854476044,-0.00016773265652592385,-2.2830700669232933e-06
0.022892040446801234,-0.00015659685445060454,-2.3641524446674256e-06
0.024124196288881388,-0.0001448427952666839,-2.4395123570967476e-06
0.025348053608743832,-0.0001324747327922776,-2.508841739111488e-06
0.02656414447171553,-0.00011949668327216275,-2.571834593127598e-06
0.027773093991819296,-0.00010591237365627904,-2.6281868573597084e-06
0.028975597814016173,-9.172520070482017e-05,-2.677596250949983e-06
0.030172398049502027,-7.693820173894063e-05,-2.7197621015609233e-06
0.031364257992405685,-6.15540377284637e-05,-2.754385161427774e-06
0.0325519360401841,-4.557498922031626e-05,-2.7811674181649693e-06
0.03373615933061714,-2.9002965377615945e-05,-2.7998119068144523e-06
0.03491759771541491,-1.1839526116107934e-05,-2.810022529687883e-06
0.03609683877862762,5.914083007402697e-06,-2.8115038904650597e-06
0.037274364625605856,2.4256883858461067e-05,-2.8039611487485936e-06
0.0384505310663188,4.318810778144223e-05,-2.7870999008386177e-06
0.03962554956850722,6.270712794014874e-05,-2.76062609190822e-06
0.04079947201038654,8.28133833348722e-05,-2.7242459640894644e-06
0.041972177952269395,0.00010350629582553618,-2.6776660442993625e-06
0.04314336400377672,0.00012478518131454772,-2.6205931750143414e-06
0.04431253493743691,0.00014664915604985113,-2.5527345906732417e-06
0.04547899644779357,0.00016909703889615875,-2.473798041936739e-06
0.04664184975973701,0.0001921272504480414,-2.383491969600689e-06
0.04779998848703793,0.00021573771000973514,-2.281525729486245e-06
0.04895209811486225,0.0002399257316602102,-2.1676098690687587e-06
0.05009665826251464,0.0002646879207545544,-2.0414564559650674e-06
0.051231947642475024,0.00029002007223080184,-1.9027794577187284e-06
0.052356051517503124,0.00031591707202079637,-1.7512951716558288e-06
0.05346687148141832,0.0003423728027705267,-1.586722702957998e-06
0.05456213747418122,0.0003693800550094266,-1.4087844885130098e-06
0.05563942202442533,0.00039693044488407824,-1.2172068635396337e-06
0.05669615675196869,0.00042501433957817676,-1.01172066742407e-06
0.05772965111892393,0.0004536207915458999,-7.920618846430507e-07
0.05873711329226516,0.00048273748264869717,-5.579723160944014e-07
0.059715672846190344,0.000512350679183311,-3.092002756363994e-07
0.06066240496452468,0.0005424451986359897,-4.550130618157422e-08
0.06157435579366947,0.0005730043888255383,2.3336109068380774e-07
0.06244856858875369,0.0006040101199211441,5.276147178704784e-07
0.06328211028780453,0.0006354427896402837,8.374779452608353e-07
0.06407209820074797,0.0006672813417624218,1.1631589781115117e-06
0.0648157266446882,0.0006995032979737808,1.5048551380455622e-06
0.06551029354341971,0.0007320848030208078,1.8627521632942093e-06
0.06615322711724649,0.0007650006831859743,2.2370235348459047e-06
0.06674211270080772,0.0007982245181404879,2.6278298351775203e-06
0.06727471942886486,0.0008317287261729061,3.0353181462558687e-06
0.06774902617229783,0.0008654846625731967,3.4596214934423945e-06
0.06816324592329104,0.000899462730597094,3.900858341734967e-06
0.06851584793825535,0.0009336325040624806,4.359132150399861e-06
0.06880557722374771,0.0009679628603529813,4.834530991503727e-06
0.0690314711680537,0.0010024221224509315,5.327127237204705e-06
0.06919287320106912,0.0010369782085432122,5.8369773199532405e-06
0.06928944339903166,0.0010715987876932375,6.364121569012353e-06
0.06932116603733199,0.0011062514400523283,6.908584125948744e-06
0.06928835425834731,0.0011409038201262481,7.470372940993388e-06
0.0691916522125496,0.0011755238217439723,8.049479851460943e-06
0.06903203512832323,0.0012100797435791904,8.645880742791733e-06
0.06881080764273938,0.0012445404542719561,9.25953579225452e-06
0.06852960037854638,0.0012788755562772776,9.890389794891828e-06
0.06819036432505923,0.001313055547453179,1.0538372570824442e-05
0.06779536224634278,0.0013470519790960294,1.1203399452461743e-05
0.067347156224424,0.0013808376087137211,1.1885371849414181e-05
0.06684859063316333,0.001414386545428118,1.258417788794964e-05
0.06630277031885302,0.001447674385666122,1.32996931207232e-05
0.06571303434259447,0.001480678336831484,1.4031781301347602e-05
0.0650829260359983,0.0015133773269261322,1.4780295217287007e-05
0.06441616018602984,0.0015457520984816391,1.554507757363895e-05
0.06371658795740771,0.0015777852855174985,1.6325961919638734e-05
0.06298815986595846,0.00160946147247334,1.7122773609136444e-05
0.06223488692492794,0.0016407672341710615,1.7935330785797544e-05
0.06146080008186701,0.0016716911559227603,1.8763445383321e-05
0.060669908173680516,0.0017022238329866472,1.9606924130548353e-05
0.05986615472944752,0.0017323578487124292,2.046556955097312e-05
0.059053374012225476,0.0017620877308978475,2.133918094587569e-05
0.05823524676546306,0.0017914098860922698,2.222755535012322e-05
0.057415256260815055,0.0018203225118488392,2.31304884496085e-05
0.056596645421374846,0.0018488254872693866,2.4047775449388057e-05
0.055782375981964984,0.0018769202426202217,2.4979211881860458e-05
0.05497509080800238,0.0019046096093177135,2.592459434484494e-05
0.05417708056706458,0.0019318976521614803,2.688372116021474e-05
0.05339025587625008,0.001958789486272309,2.7856392944823187e-05
0.052616125858421306,0.001985291081705977,2.884241308681776e-05
0.05185578381673607,0.0020114090591247667,2.9841588122025446e-05
0.05110990050804913,0.0020371504802059633,3.085372800685813e-05
0.050378725212156326,0.0020625226366360145,3.187864628606862e-05
0.04966209442946602,0.0020875328415464202,3.291616015561423e-05
0.04895944766005717,0.002112188227068801,3.3966090422768035e-05
0.048269849444983116,0.002136495551345061,3.50282613673715e-05
0.04759201675770819,0.002160461017895734,3.61025005096817e-05
0.04692435085572143,0.0021840901097990918,3.7188638291605406e-05
0.04626497270629158,0.002207387440689595,3.8286507679227575e-05
0.045611761046527054,0.0022303566241277995,3.939594369543192e-05
0.044962392109609145,0.0022530001624168337,4.051678289206808e-05
0.044314380105184896,0.0022753193554705324,4.164886277153992e-05
0.04366511764281239,0.0022973142299075318,4.2792021167884434e-05
0.04301191539972907,0.002318983488168167,4.394609559740336e-05
0.04235204049238371,0.0023403244771411954,4.51109225887307e-05
0.0416827532233418,0.0023613331755701268,4.628633700190853e-05
0.041001342066724095,0.002382004199392643,4.747217134564922e-05
0.04030515684069771,0.0024023308241194986,4.866825510152725e-05
0.03959163997542649,0.0024223050233235298,4.987441406338801e-05
0.03885835567526718,0.002441917522236203,5.1090469699777947e-05
0.038103016680354596,0.0024611578653251087,5.231623854666828e-05
0.03732350831262034,0.0024800144965733523,5.3551531637142894e-05
0.03651790954995265,0.0024984748510389954,5.479615397404598e-05
0.03568451096501228,0.0025165254561677368,5.604990405084766e-05
0.034821829421108785,0.002534152041264267,5.7312573425205664e-05
0.03392861941446215,0.00255133965347316,5.8583946348890024e-05
0.03300388096912828,0.0025680727785690576,5.986379945690058e-05
0.032046864124818324,0.0025843354648425443,6.115190151775349e-05
0.031057070303437868,0.002600111448449608,6.244801324607653e-05
0.030034251101049805,0.00261538427880073,6.375188717788912e-05
0.02897840522701842,0.0026301374428827472,6.506326760830998e-05
0.027889774335244432,0.002644354487773313,6.6381890590974e-05
0.026768838350954255,0.0026580191409448627,6.770748399815355e-05
0.025616310655985304,0.0026711154281965975,6.903976764043891e-05
0.024433133257473722,0.0026836277891749624,7.03784534447818e-05
0.023220471884212883,0.002695541190460384,7.172324568969064e-05
0.02197971082693316,0.0027068412361381704,7.307384129634029e-05
0.020712447240375947,0.002717514275654998,7.442993017428857e-05
0.01942048454024692,0.0027275475086001536,7.579119562035236e-05
0.018105824480570003,0.002736929085855358,7.715731476896624e-05
0.0167706575618156,0.002745648206365954,7.852795909202157e-05
0.0154173516361272,0.00275369520866544,7.990279494577942e-05
0.0140484388571068,0.0027610616562887486,8.128148416201797e-05
0.012666601318125846,0.002767740416332557,8.26636846801733e-05
0.01127465575156877,0.0027737257305999806,8.404905121690643e-05
0.009875537531264973,0.002779013278920689,8.543723596928659e-05
0.008472283990253468,0.0027836002343010684,8.682788934759203e-05
0.007068016843099461,0.0027874853095094065,8.822066073354465e-05
0.00566592342503189,0.0027906687945764394,8.961519925956611e-05
0.004269236592161965,0.0027931525845807377,9.10111546043554e-05
0.0028812133933763555,0.002794940197077122,9.240817779976986e-05
0.0015051128944145818,0.0027960367786490697,9.380592204370141e-05
0.0001441737191172403,0.002796449100302453,9.520404351343929e-05
-0.0011984080631235515,0.0027961855417164513,9.660220217394402e-05
-0.0025195001294240262,0.0027952560646683144,9.80000625755402e-05
-0.0038160537303496074,0.002793672176203371,9.939729463575813e-05
-0.005085121844062217,0.002791446882309768,0.00010079357440038642
-0.00632387546663901,0.0027885946329820927,0.00010218858477920938
-0.007529617972087619,0.002785131259622411,0.00010358201625236051
-0.00869979760717177,0.002781073905727596,0.00010497356754369802
-0.00983201824865978,0.002776440951763638,0.00010636294625807082
-0.010924048487790704,0.0027712519350795257,0.00010774986947978162
-0.011973828984683495,0.002765527465711407,0.00010913406432997935
-0.01297947799622627,0.0027592891389661795,0.00011051526848114874
-0.013939295104044598,0.002752559445691112,0.00011189323062731306
-0.014851763389238881,0.002745361681067791,0.00011326771090900278
-0.01571555045708686,0.0027377198526062096,0.00011463848129242128
-0.01652950868586863,0.0027296585878204705,0.00011600532590252794
-0.017292674873359698,0.0027212030419306635,0.00011736804130996573
-0.018004269196392506,0.0027123788059132256,0.0001187264367719267
-0.018663693175957192,0.0027032118153201383,0.00012008033442723505
-0.019270526173814525,0.0026937282604826956,0.00012142956944618575
-0.019824519854005396,0.0026839544989757406,0.00012277399013605036
-0.020325590082764373,0.0026739169714915484,0.0001241134580036672
-0.020773805926886768,0.0026636421224891355,0.00012544784777716235
-0.021169375634425117,0.0026531563270988075,0.00012677704738955933
-0.021512629609321574,0.0026424858257878708,0.00012810095792778099
-0.02180400041518824,0.0026316566682817433,0.00012941949355129838
-0.022043999872944038,0.0026206946682097105,0.00013073258138542125
-0.02223319346472918,0.0026096253698752923,0.00013204016139494248
-0.02237217256119303,0.0025984740283688116,0.00013334218624450351
-0.02246152539115474,0.0025872656038807246,0.0001346386211525659
-0.022501808026928086,0.0025760247705262037,0.00013592944374616762
-0.02249351683266424,0.0025647759393113054,0.000137214643923627
-0.02243706382630235,0.0025535432941465636,0.00013849422373199145
-0.02233275637782786,0.002542350839095531,0.00013976819726530196
-0.022180782696424445,0.002531222454326968,0.00014103659058865758
-0.02198120455360059,0.0025201819575144616,0.00014229944169161793
-0.021733958464490548,0.0025092531667599387,0.00014355680047268654
-0.02143886603430053,0.002498459960635241,0.00014480872875453533
-0.021095653488262492,0.0024878263307546,0.00014605530032738278
-0.020703979727721127,0.0024773764224506043,0.00014729660101568407
-0.02026347171407264,0.002467134559590156,0.00014853272876119426
-0.01977376562623931,0.002457125250255078,0.00014976379371365556
-0.0192345520797986,0.0024473731708285684,0.00015098991831892646
-0.018645623698889984,0.002437903126883896,0.0001522112373933546
-0.018006923392684785,0.0024287399901110024,0.00015342789817260333
-0.01731859169779091,0.0024199086113383833,0.00015464006032296567
-0.016581011497140575,0.0024114337105396503,0.00015584789590343518
-0.015794848432280705,0.002403339745557295,0.0001570515892674594
-0.014961085512487288,0.0023956507620711033,0.0001582513368943665
-0.014081050781227114,0.0023883902279976748,0.00015944734714188369
-0.013156437305900808,0.002381580855975893,0.0001606398399128771
-0.012189315106577687,0.002375244417872773,0.00016182904623133926
-0.011182134909757155,0.0023694015553686896,0.00016301520772464963
-0.010137723814684143,0.0023640715906875793,0.00016419857601116368
-0.009059273102303101,0.0023592723414583325,0.00016537941199420015
-0.007950318515371773,0.0023550199435539137,0.0001665579850654532
-0.006814713394585954,0.0023513286855764244,0.0001677345722227358
-0.005656595051834356,0.0023482108584648195,0.0001689094571087461
-0.004480344714670238,0.0023456766235231932,0.00017008292897924312
-0.003290541360861234,0.0023437339020043104,0.000171255281610625
-0.0020919098399266103,0.0023423882892041133,0.0001724268121584271
-0.000889263839956585,0.0023416429957841423,0.00017359781997967417
0.00031255553160665296,0.002341498818707055,0.00017476860543329695
0.0015087445178123518,0.0023419541437194095,0.00017593946867390357
0.002694603453925046,0.002343004980712344,0.0001771107084550115
0.0038656037364230493,0.0023446450325099307,0.00017828262095831706
