acceleration,velocity,displacement
0.02905518343811982,0.0,0.0
0.027452322763072735,1.4126876550298139e-05,3.5317191375745346e-09
0.02585421724773362,2.7453511552999728e-05,1.3926816163399e-08
0.02426556043166522,3.998345597284944e-05,3.0786058044861294e-08
0.022690924325114825,5.172257716204445e-05,5.3712566328584766e-08
0.021134702826106636,6.267898394984982e-05,8.231295660655834e-08
0.01960105977709493,7.286292460065021e-05,1.1619843374418335e-07
0.01809388247482852,8.228666016363108e-05,1.5498582993525368e-07
0.01661674095357551,9.096431602073209e-05,1.9829857398134445e-07
0.01517285307433074,9.891171452770865e-05,2.457675816184546e-07
0.013765055386319239,0.00010614619164287114,2.970320581610996e-07
0.012395779777953385,0.00011268640043393929,3.517402061803022e-07
0.011067036028987865,0.0001185521043856746,4.095498323852057e-07
0.009780400486779901,0.00012376396351461655,4.7012884936027847e-07
0.008537011176526397,0.00012834331643044313,5.331556693465434e-07
0.007337569669443747,0.00013231196164193565,5.98319488864638e-07
0.006182349943836682,0.00013569194154525576,6.653204646614359e-07
0.005071214270109985,0.00013850533259874241,7.338697831974354e-07
0.004003635859941002,0.00014077404513125516,8.036896276299348e-07
0.0029787277067567382,0.0001425196360229296,8.74513047918481e-07
0.001995276761246184,0.00014376313713993034,9.46083741209196e-07
0.0010517823670424364,0.00014452490192200248,1.0181557509746792e-06
0.00014649777048518788,0.0001448244719563844,1.090493094444276e-06
-0.0007225264699889882,0.00014468046478150845,1.1628693286287492e-06
-0.0015573982599745636,0.00014411048359901758,1.2350670657238808e-06
-0.0023603399050832873,0.00014313104905775312,1.3068774488880735e-06
-0.003133645041011467,0.00014175755282122945,1.378099599357819e-06
-0.0038796371747398294,0.00014000423226729163,1.4485400456299493e-06
-0.004600630184670196,0.00013788416542743912,1.518012145053632e-06
-0.005298890906874283,0.000135409285154553,1.58633550769913e-06
-0.005976603812223923,0.00013259041147477846,1.653335431856463e-06
-0.006635837737818453,0.00012943730108726787,1.7188423599969745e-06
-0.007278514692522008,0.00012595871297968274,1.7826913635137121e-06
-0.007906380940452167,0.0001221624890714392,1.8447216640264926e-06
-0.00852098080662806,0.00011805564863466915,1.9047761984530197e-06
-0.009123633797324017,0.00011364449498368113,1.9627012343576075e-06
-0.009715415600635515,0.00010893473263419125,2.0183460412620756e-06
-0.010297143372344272,0.0001039315928909463,2.07156262264336e-06
-0.010869365516321857,9.863996566877978e-05,2.1222055122832913e-06
-0.011432356007389774,9.306453528785187e-05,2.170131637522449e-06
-0.011986113191413607,8.720991798815103e-05,2.21520025084145e-06
-0.012530362904694097,8.10807989641241e-05,2.257272930079519e-06
-0.013064565657002439,7.468206682369996e-05,2.296213646526475e-06
-0.01358792753440314,6.801894352584857e-05,2.331888899113862e-06
-0.014099414424774859,6.109710803605406e-05,2.364167912004338e-06
-0.014597769130167776,5.392281214731841e-05,2.392922892050181e-06
-0.015081530860002348,4.650298714977587e-05,2.4180293418744544e-06
-0.01554905649665514,3.88453403106115e-05,2.4393664237395514e-06
-0.015998542953795346,3.0958440447998885e-05,2.456817368929204e-06
-0.016428049992575126,2.2851792211406266e-05,2.470269927094055e-06
-0.016835523044607687,1.4535898952110561e-05,2.4796168498849343e-06
-0.017218815821788726,6.022314235511456e-06,2.4847564031818396e-06
-0.017575712638760326,-2.676317879625806e-06,2.485592902270811e-06
-0.01790395039027999,-1.1546233636885886e-05,2.482037264391683e-06
-0.01820124008600431,-2.0572531255956963e-05,2.4740075731684725e-06
-0.018465287851424435,-2.973916324031415e-05,2.4614296495444047e-06
-0.018693815372659458,-3.902893904633512e-05,2.4442376239727424e-06
-0.018884579801159564,-4.8423537839789876e-05,2.4223745047512112e-06
-0.019035393062515494,-5.790353105570864e-05,2.3957927375273367e-06
-0.019144140383016078,-6.744841441709154e-05,2.3644547511591366e-06
-0.019208797775990664,-7.703664895684323e-05,2.328333485315653e-06
-0.01922744827688288,-8.664571047006162e-05,2.2874128954589265e-06
-0.019198296871839413,-9.62521467572422e-05,2.2416884311521006e-06
-0.019119684280377434,-0.0001058316420452964,2.191167483951466e-06
-0.01899009992708215,-0.0001153590880971613,2.1358698014158515e-06
-0.018808194456218036,-0.00012480866169298633,2.0758278639683146e-06
-0.018572791988242954,-0.00013415390830410158,2.0110872214690426e-06
-0.018282902102294468,-0.00014336783182673595,1.941706786436333e-06
-0.01793773140999764,-0.00015242299020480898,1.867759080928447e-06
-0.017536694630662195,-0.00016129159671497394,1.7893304341985011e-06
-0.017079425200151595,-0.0001699456266726774,1.7065211283515882e-06
-0.01656578549049855,-0.00017835692934533993,1.6194454893470839e-06
-0.015995876626072436,-0.00018649734487448266,1.5282319207921283e-06
-0.01537004773088594,-0.00019433882596372226,1.433022878082577e-06
-0.014688904310388962,-0.000201853563974041,1.3339747805981364e-06
-0.013953315358088298,-0.0002090141188911603,1.2312578598818361e-06
-0.013164418664743488,-0.00021579355239686825,1.125055942059829e-06
-0.012323623717711375,-0.00022216556299248198,1.0155661632124914e-06
-0.011432611532248074,-0.00022810462180497185,9.029986170131279e-07
-0.010493330756816467,-0.00023358610737723797,7.875759347175754e-07
-0.00950798945013101,-0.00023858643742897485,6.695327985160222e-07
-0.008479042032999888,-0.00024308319529975757,5.491153903338391e-07
-0.007409171037215359,-0.00024705524856731136,4.265807793670718e-07
-0.006301263412906345,-0.00025048285717984176,3.0219625293028353e-07
-0.005158381386777264,-0.00025334776837976266,1.7623859654038244e-07
-0.0039837282150355455,-0.00025563329578021587,4.899333050038781e-08
-0.002780609565009983,-0.00025732438022522724,-7.924608850097297e-08
-0.0015523915844425993,-0.0002584076305125904,-2.0817909118542738e-07
-0.0003024569342393732,-0.00025887134264226085,-3.374988344741402e-07
0.0009658398323222921,-0.0002587054969177401,-4.668930443641404e-07
0.0022492161449449845,-0.0002579017329234233,-5.960448518244312e-07
0.003544503182168423,-0.00025645330309164495,-7.246336108281983e-07
0.004848684225017804,-0.0002543550062398484,-8.523356881610716e-07
0.006158928406777267,-0.0002516031030818996,-9.788252154915086e-07
0.007472618861330598,-0.00024819521626487265,-1.1037747953282016e-06
0.008787374556639272,-0.00024413021791038018,-1.2268561538720148e-06
0.010101065462105487,-0.000239408107905694,-1.3477407353260335e-06
0.011411821108647344,-0.0002340298862630058,-1.4661002338682085e-06
0.012718033004830471,-0.00022799742273463632,-1.581607061117619e-06
0.0140183517098587,-0.00022131332655596402,-1.693934748440269e-06
0.015311679574593853,-0.0002139808187348509,-1.8027582847629726e-06
0.016597160202960783,-0.00020600360879046223,-1.9077543916443007e-06
0.017874165582875,-0.00019738577734400328,-2.008601738177917e-06
0.019142281686357766,-0.00018813166552669508,-2.1049810988955917e-06
0.020401293201537638,-0.00017824577180472123,-2.1965754582284456e-06
0.02165116785732331,-0.000167732656540006,-2.2830700653146274e-06
0.022892040449718744,-0.0001565968544632455,-2.36415244306544e-06
0.0241241962918484,-0.00014484279527785372,-2.439512355500715e-06
0.02534805361173482,-0.00013247473280195791,-2.5088417375206683e-06
0.026564144474700173,-0.00011949668328034917,-2.571834591541245e-06
0.027773093994768874,-0.0001059123736629819,-2.6281868557770777e-06
0.028975597816898773,-9.172520071006499e-05,-2.6775962493703396e-06
0.03017239805228893,-7.693820174276807e-05,-2.719762099983548e-06
0.03136425799507455,-6.15540377309272e-05,-2.754385159851972e-06
0.032551936042717375,-4.557498922147922e-05,-2.7811674165900733e-06
0.033736159333003654,-2.9002965377548962e-05,-2.7998119052398303e-06
0.03491759771764669,-1.1839526114886377e-05,-2.8100225281129393e-06
0.036096838780690296,5.914083009697868e-06,-2.8115038888892366e-06
0.03727436462747391,2.425688386173892e-05,-2.8039611471713776e-06
0.03845053106795872,4.318810778559708e-05,-2.7870998992595437e-06
0.03962554956988071,6.270712794505693e-05,-2.76062609032688e-06
0.040799472011455305,8.281338334039093e-05,-2.724245962505518e-06
0.041972177952993545,0.00010350629583150316,-2.6776660427125445e-06
0.04314336400410838,0.00012478518132077863,-2.620593173424474e-06
0.04431253493732503,0.00014664915605613698,-2.552734589080245e-06
0.045478996447188676,0.0001690970389022654,-2.4737980403406445e-06
0.046641849758592833,0.00019212725045371077,-2.3834919680016502e-06
0.0477999884853114,0.00021573771001468683,-2.281525727884551e-06
0.04895209811251985,0.00023992573166414463,-2.167609867464843e-06
0.05009665825953402,0.0002646879207571581,-2.0414564543595173e-06
0.051231947638845025,0.0002900200722317529,-1.9027794561122895e-06
0.05235605151322056,0.0003159170720197693,-1.751295170049409e-06
0.053466871476487966,0.00034237280276719643,-1.5867227013526675e-06
0.05456213746861585,0.00036938005500347236,-1.4087844869100003e-06
0.055639422018237704,0.00039693044487518577,-1.2172068619403357e-06
0.05669615674516838,0.00042501433956603727,-1.01172066583003e-06
0.05772965111152689,0.00045362079153021107,-7.920618830559678e-07
0.058737113284293735,0.00048273748262916624,-5.579723145161235e-07
0.05971567283767963,0.0005123506791596596,-3.0920027406891707e-07
0.06066240495551776,0.0005424451986079589,-4.550130462701243e-08
0.06157435578421899,0.0005730043887928931,2.333610922232006e-07
0.06244856857891551,0.0006040101198836766,5.276147193923431e-07
0.06328211027763928,0.0006354427895978154,8.374779467627162e-07
0.06407209819032106,0.0006672813417148055,1.1631589795908714e-06
0.06481572663406504,0.000699503297920902,1.5048551394997983e-06
0.06551029353267053,0.0007320848029625859,1.8627521647206703e-06
0.0661532271064383,0.0007650006831223631,2.2370235362419077e-06
0.0667421126900123,0.0007982245180714757,2.6278298365403675e-06
0.06727471941815881,0.0008317287260985186,3.035318147582866e-06
0.06774902616176094,0.0008654846624934985,3.45962149473087e-06
0.0681632459129983,0.0008994627305121882,3.9008583429822915e-06
0.06851584792827695,0.0009336325039725071,4.359132151603465e-06
0.06880557721415227,0.0009679628602581144,4.83453099266112e-06
0.06903147115890823,0.0010024221223513795,5.327127238313494e-06
0.06919287319243904,0.0010369782084392162,5.836977321011142e-06
0.0692894433909792,0.0010715987875850707,6.364121570017214e-06
0.06932116602991777,0.001106251439940295,6.908584126898556e-06
0.06928835425162719,0.0011409038200106813,7.4703729418863e-06
0.06919165220656823,0.0011755238216252302,8.049479852295277e-06
0.06903203512311734,0.0012100797434576515,8.645880743565997e-06
0.06881080763833128,0.0012445404541480136,9.259535792967414e-06
0.06852960037494088,0.0012788755561513316,9.89038979554225e-06
0.06819036432224514,0.0013130555473256282,1.0538372571411491e-05
0.06779536224429615,0.0013470519789672635,1.1203399452984715e-05
0.06734715622311455,0.0013808376085841163,1.188537184987256e-05
0.06684859063255433,0.0014143865452980334,1.2584177888343097e-05
0.06630277031889342,0.0014476743855358952,1.3299693121051579e-05
0.06571303434322363,0.0014806783367014246,1.4031781301610909e-05
0.06508292603714762,0.0015133773267965174,1.4780295217485394e-05
0.06441616018762111,0.0015457520983527095,1.55450775737727e-05
0.06371658795936436,0.001577785285389456,1.632596191970824e-05
0.0629881598682039,0.001609461472346348,1.7122773609142193e-05
0.062234886927385574,0.0016407672340452454,1.793533078574009e-05
0.061460800084463425,0.0016716911557982078,1.8763445383200955e-05
0.06066990817634712,0.0017022238328634105,1.960692413036636e-05
0.05986615473213005,0.0017323578485905298,2.0465569550729843e-05
0.05905337401488405,0.0017620877307772834,2.1339180945571796e-05
0.05823524676807055,0.001791409885973022,2.2227555349759373e-05
0.057415256263353906,0.0018203225117308782,2.313048844918535e-05
0.0565966454238275,0.0018488254871526736,2.4047775448906237e-05
0.055782375984317095,0.0018769202425047097,2.4979211881320583e-05
0.05497509081023639,0.001904609609203348,2.5924594344247596e-05
0.05417708056915815,0.0019318976520481966,2.688372115956048e-05
0.053390255878180866,0.0019587894861600313,2.7856392944112536e-05
0.05261612586016379,0.0019852910815946175,2.8842413086051198e-05
0.05185578381825833,0.0020114090590142232,2.9841588121203408e-05
0.05110990050931448,0.0020371504800961162,3.085372800598099e-05
0.050378725213123275,0.0020625226365267257,3.1878646285136704e-05
0.04966209443009467,0.0020875328414375303,3.291616015462777e-05
0.04895944766031403,0.0021121882269601326,3.396609042172718e-05
0.04826984944484263,0.002136495551236422,3.5028261366276316e-05
0.04759201675715921,0.0021604610177869223,3.610250050853215e-05
0.04692435085476874,0.0021840901096899044,3.718863829040136e-05
0.04626497270495114,0.0022073874405798342,3.8286507677968796e-05
0.04561176104482598,0.0022303566240172786,3.939594369411807e-05
0.04496239210756818,0.0022530001623053773,4.051678289069874e-05
0.04431438010281362,0.0022753193553579727,4.164886277011457e-05
0.043665117640107616,0.002297314229793703,4.279202116640249e-05
0.04301191539667642,0.002318983488052899,4.394609559586414e-05
0.042352040488960865,0.0023403244770243085,4.511092258713344e-05
0.041682753219521626,0.002361333175451429,4.6286337000252374e-05
0.04100134206246989,0.002382004199271927,4.747217134393321e-05
0.040305156835966395,0.002402330823996536,4.8668255099750327e-05
0.03959163997017338,0.002422305023198071,4.987441406154898e-05
0.038858355669455585,0.0024419175221079784,5.10904696978755e-05
0.03810301667396377,0.002461157865193833,5.231623854470095e-05
0.03732350830564868,0.002480014496438736,5.3551531635109094e-05
0.036517909542417716,0.0024984748509007527,5.479615397194397e-05
0.03568451095694598,0.0025165254560255935,5.604990404867555e-05
0.0348218294125542,0.0025341520411179684,5.731257342296144e-05
0.03392861940546874,0.0025513396533224744,5.858394634657155e-05
0.03300388095974711,0.002568072778413778,5.986379945450561e-05
0.032046864115100444,0.00258433546468249,6.115190151527968e-05
0.031057070293434345,0.002600111448284624,6.244801324352146e-05
0.03003425109080691,0.002615384278630684,6.375188717525028e-05
0.028978405216584013,0.002630137442707532,6.506326760558482e-05
0.027889774324667983,0.002644354487592845,6.638189058815991e-05
0.02676883834029001,0.0026580191407590843,6.77074839952479e-05
0.025616310645292302,0.00267111542800548,6.903976763743903e-05
0.02443313324681579,0.002683627788978507,7.037845344168503e-05
0.023220471873653836,0.0026955411902586245,7.172324568649432e-05
0.02197971081653204,0.002706841235931171,7.307384129304177e-05
0.020712447230185407,0.0027175142754428503,7.442993017088526e-05
0.019420484530313233,0.002727547508382975,7.579119561684171e-05
0.018105824470931463,0.002736929085633286,7.715731476534578e-05
0.01677065755250093,0.0027456482061391442,7.852795908828889e-05
0.015417351627160332,0.0027536952084340595,7.99027949419322e-05
0.014048438848500497,0.0027610616560529745,8.128148415805395e-05
0.012666601309880109,0.0027677404160925696,8.266368467609034e-05
0.011274655743669237,0.002773725730355957,8.404905121270246e-05
0.009875537523692496,0.0027790132786727974,8.543723596495965e-05
0.008472283982982519,0.0027836002340494662,8.682788934314022e-05
0.0070680168361013165,0.0027874853092542374,8.822066072896615e-05
0.005665923418279426,0.0027906687943178325,8.961519925485917e-05
0.0042692365856280565,0.002793152584318809,9.101115459951833e-05
0.0028812133870402584,0.002794940196811976,9.240817779480102e-05
0.0015051128882651284,0.0027960367783808025,9.380592203859921e-05
0.00014417371315123955,0.0027964491000311564,9.52040435082022e-05
-0.0011984080689045034,0.002796185541442218,9.660220216857055e-05
-0.002519500135010355,0.002795256064391239,9.800006257002891e-05
-0.0038160537357253563,0.0027936721759235553,9.939729463010761e-05
-0.005085121849206641,0.0027914468820273222,0.00010079357439459533
-0.006323875471534558,0.002788594632697137,0.00010218858477327645
-0.0075296179767183335,0.002785131259335074,0.00010358201624628451
-0.008699797611524883,0.002781073905438013,0.00010497356753747777
-0.009832018252719336,0.002776440951471952,0.00010636294625170527
-0.010924048491542342,0.0027712519347858865,0.00010774986947326972
-0.011973828988106469,0.0027655274654159743,0.00010913406432332019
-0.012979477999291859,0.0027592891386691246,0.00011051526847434147
-0.01393929510671929,0.002752559445392622,0.0001118932306203569
-0.014851763391484384,0.0027453616807680712,0.00011326771090189707
-0.01571555045886328,0.0027377198523054844,0.00011463848128516546
-0.016529508687134476,0.002729658587518985,0.00011600532589512157
-0.017292674874070293,0.0027212030416286837,0.00011736804130240849
-0.018004269196499983,0.002712378805611041,0.00011872643676421842
-0.018663693175418467,0.0027032118150180614,0.0001200803344193757
-0.019270526172591302,0.002693728260181059,0.00012142956943817548
-0.01982451985206257,0.0026839544986748953,0.00012277399012788947
-0.02032559008006364,0.0026739169711918636,0.00012411345799535615
-0.020773805923393028,0.0026636421221909994,0.00012544784776870186
-0.02116937563010965,0.002653156326802624,0.00012677704738095027
-0.021512629604157247,0.002642485825494057,0.00012810095791902445
-0.021804000409151123,0.00263165666799073,0.00012941949354239565
-0.022043999866013384,0.002620694667921939,0.00013073258137637382
-0.022233193456887436,0.0026096253695912135,0.0001320401613857521
-0.022372172552429022,0.0025984740280888844,0.00013334218623517214
-0.022461525381470067,0.0025872656036054096,0.00013463862114309572
-0.022501808016345083,0.002576024770255956,0.00013592944373656105
-0.022493516821222796,0.002564775939046564,0.00013721464391388668
-0.02243706381405512,0.0025535432938877446,0.00013849422372212025
-0.022332756364838665,0.002542350838843021,0.00013976819725530293
-0.022180782682769875,0.002531222454081119,0.00014103659057853398
-0.0219812045393684,0.0025201819572755846,0.00014229944168137314
-0.02173395844978126,0.002509253166528297,0.00014355680046232412
-0.021438866019225837,0.0024984599604110456,0.00014480872874405895
-0.021095653472940467,0.002487826330538004,0.00014605530031679622
-0.020703979712271444,0.002477376422241701,0.00014729660100499116
-0.020263471698610175,0.0024671345593889806,0.00014853272875039883
-0.019773765610872567,0.00245712525006161,0.00014976379370276147
-0.019234552064637676,0.0024473731706427322,0.00015098991830793756
-0.018645623684048162,0.002437903126705561,0.00015221123738227464
-0.01800692337827376,0.0024287399899399803,0.00015342789816143602
-0.017318591683917584,0.0024199086111744324,0.00015464006031171463
-0.01658101148390547,0.0024114337103824765,0.00015584789589210386
-0.015794848419776367,0.002403339745406556,0.0001570515892560511
-0.014961085500795094,0.002395650761926413,0.00015825133688288434
-0.014081050770417268,0.00238839022785861,0.0001594473471303306
-0.013156437296029154,0.0023815808558419983,0.00016063983990125574
-0.012189315097684113,0.00237524441774357,0.00016182904621965213
-0.011182134901864,0.002369401555243683,0.00016301520771289893
-0.010137723807802576,0.0023640715905662666,0.0001641985759993514
-0.009059273096437908,0.0023592723413402065,0.00016537941198232803
-0.007950318510521354,0.0023550199434384665,0.0001665579850535227
-0.0068147133907391425,0.0023513286854631513,0.0001677345722107481
-0.005656595048968809,0.0023482108583532243,0.0001689094570967022
-0.004480344712750855,0.0023456766234127946,0.0001700829289671437
-0.0032905413598401444,0.002343733901894647,0.00017125528159847055
-0.002091909839743181,0.002342388289094751,0.0001724268121462179
-0.0008892638405406084,0.00234164299567468,0.00017359781996741024
0.00031255553032219263,0.0023414988185971254,0.0001747686054209782
0.0015087445158976614,0.0023419541436086803,0.00017593946866152965
0.0026946034514535233,0.002343004980600518,0.00017711070844258196
0.0038656037334712837,0.002344645032396749,0.00017828262094583128
