frame_number,force
0,651.1762000000533
1,651.3697425767336
2,651.554390196442
3,651.7219710152527
4,651.8656805457315
5,651.980587713905
6,652.0639749712151
7,652.1155126539684
8,652.1372754273167
9,652.1335944592599
10,652.1107222027853
11,652.0762911268938
12,652.0385841171037
13,652.0056927501143
14,651.9846899978089
15,651.9809540268784
16,651.9977426057147
17,652.0360528560777
18,652.0947379462287
19,652.1708165573228
20,652.2599085755244
21,652.3567418447174
22,652.4556803572806
23,652.5512263195075
24,652.6384586189508
25,652.7133891772814
26,652.7732358379774
27,652.8166149548819
28,652.8436477198128
29,652.8559627701226
30,652.8565785504439
31,652.8496639896033
32,652.8401901977026
33,652.8334881360707
34,652.8347278302792
35,652.8483501639894
36,652.8775120391329
37,652.9236355432014
38,652.9861665174853
39,653.0626285768421
40,653.148990944347
41,653.2402708811418
42,653.3312154678426
43,653.4168969281444
44,653.4931105266498
45,653.5565446842725
46,653.6047589954991
47,653.6360453470251
48,653.6492644077549
49,653.6437410065763
50,653.6192621143543
51,653.5761652932076
52,653.515468182588
53,653.438991174324
54,653.3494464186414
55,653.2504716969413
56,653.1465699757277
57,653.042901822711
58,652.9449002303357
59,652.8577371528934
60,652.7857330126614
61,652.7318263319218
62,652.6972029157959
63,652.6811423431697
64,652.6810982471477
65,652.6930023676837
66,652.7117688909021
67,652.7319596309094
68,652.748538268808
69,652.7575975291769
70,652.7569117744144
71,652.7461803633831
72,652.7268962416969
73,652.7018741464176
74,652.6745580698191
75,652.6482696441562
76,652.6255570221633
77,652.6077714951437
78,652.5949517138539
79,652.5860369228441
80,652.5793585233732
81,652.5732884069392
82,652.5668830410378
83,652.560369927582
84,652.5553689431146
85,652.5548043813702
86,652.5625263784235
87,652.5827180871211
88,652.6192149323784
89,652.6748858017451
90,652.7512021367482
91,652.8480552316529
92,652.9638065679744
93,653.0955051465996
94,653.2391950595022
95,653.3902536495008
96,653.543717144735
97,653.6945521732044
98,653.8378345010088
99,653.9688246436559
100,654.0829778591512
101,654.1759601558656
102,654.2437392522799
103,654.2827853119733
104,654.2903702068214
105,654.2649144864934
106,654.2063107939435
107,654.1161547886406
108,653.997834363905
109,653.8564554718495
110,653.6986088006263
111,653.5319988931585
112,653.364963905083
113,653.2059156923592
114,653.062736473693
115,652.9421841264918
116,652.8493756702335
117,652.7874239442765
118,652.7572843466505
119,652.7578240979228
120,652.786072410367
121,652.83758027271
122,652.9068319842688
123,652.987684415631
124,653.0738263040174
125,653.1592370565817
126,653.2386003425538
127,653.3076158947518
128,653.363164649722
129,653.4033115907712
130,653.4271618839213
131,653.434609070916
132,653.4260305426077
133,653.4019960219565
134,653.3630509127016
135,653.3096134068661
136,653.2419934691212
137,653.1605196637541
138,653.0657493955883
139,652.9587291785324
140,652.8412565666238
141,652.7160777575041
142,652.5869468273462
143,652.4584951372885
144,652.3359222524477
145,652.22458818198
146,652.129604436966
147,652.0554764563259
148,652.0057899685993
149,651.9829121923644
150,651.9877047468717
151,652.0192860986717
152,652.0749040037875
153,652.1499789386046
154,652.2383688294484
155,652.3328816807007
156,652.426018012514
157,652.510866884146
158,652.5820270744961
159,652.6363942432388
160,652.6736565177144
161,652.6963818396947
162,652.7096547302912
163,652.7203093994656
164,652.7358890442276
165,652.7635183264817
166,652.8088917288788
167,652.8755480683585
168,652.9645296434973
169,653.0744388679933
170,653.2018351987215
171,653.3418738337343
172,653.4890693353109
173,653.6380636679733
174,653.7842873584817
175,653.9244261290967
176,654.05664524622
177,654.1805755554842
178,654.2971109005912
179,654.4080868518726
180,654.515905380558
181,654.6231578170749
182,654.7322925953192
183,654.8453673280395
184,654.9639016919588
185,655.0888130679834
186,655.2203962514644
187,655.3583183702596
188,655.5016278511812
189,655.6487950127333
190,655.7977998818476
191,655.9462721354062
192,656.0916851379703
193,656.2316098969252
194,656.3640297158535
195,656.4876946017373
196,656.6024657861122
197,656.7095800598212
198,656.8117623527985
199,656.9131396940719
200,657.0189520569163
201,657.1350885891154
202,657.2674825815651
203,657.421393866253
204,657.6006300582753
205,657.8068103897954
206,658.0388121670976
207,658.2925191051056
208,658.5609251922994
209,658.8345820956091
210,659.1023356744096
211,659.3522685764237
212,659.5727423548151
213,659.7534216108528
214,659.8861703406325
215,659.9657336915963
216,659.9901544561833
217,659.9609143079971
218,659.8828106795418
219,659.7635721358711
220,659.6132120877726
221,659.4431593918666
222,659.2652702284146
223,659.0908679772159
224,658.9299431762682
225,658.790582278755
226,658.6786188879651
227,658.5974531896298
228,658.547984729563
229,658.5286441160101
230,658.5355577826135
231,658.562895778036
232,658.6034197246494
233,658.6491887631547
234,658.6923326843928
235,658.7257824577363
236,658.7438519220829
237,658.7425819733745
238,658.7197988210255
239,658.6749065722576
240,658.6085072426565
241,658.5219778834514
242,658.4171186688593
243,658.2959385342191
244,658.1605969333731
245,658.0134831820237
246,657.8573841915806
247,657.695666987867
248,657.532395151846
249,657.3723176142394
250,657.2207099400954
251,657.0830938335423
252,656.9648845775386
253,656.8710044538602
254,656.8054703725986
255,656.7709551963234
256,656.7683538332883
257,656.7964329131075
258,656.851664981916
259,656.92832626294
260,657.0188855901373
261,657.1146555950718
262,657.206629836124
263,657.286397610306
264,657.3470162831852
265,657.3837289514364
266,657.3944394741849
267,657.3798927411035
268,657.3435437863421
269,657.2911232947047
270,657.2299273885737
271,657.1678947149941
272,657.1125801996474
273,657.0701665415709
274,657.0446515979417
275,657.037314005923
276,657.0465116199026
277,657.0678308546932
278,657.0945819768343
279,657.118607122699
280,657.1313226006545
281,657.124865502889
282,657.0931777634306
283,657.0328570010693
284,656.9436441513748
285,656.828495061266
286,656.6932640874919
287,656.5460789188917
288,656.3964995681362
289,656.2545448316843
290,656.1296559624269
291,656.0296653461172
292,655.959851767
293,655.9221839828052
294,655.914867651134
295,655.9323060375704
296,655.9655495636239
297,656.0032370152068
298,656.0329357824883
299,656.0426947095672
300,656.0225551476764
301,655.9657508493115
302,655.8693887244783
303,655.7345314314024
304,655.5657468020503
305,655.3702851137069
306,655.157069531982
307,654.9356621491479
308,654.715327905566
309,654.5042679585586
310,654.3090395817056
311,654.1341478252396
312,653.9818024655966
313,653.8518604477134
314,653.7419774770848
315,653.6479619514018
316,653.5642919514358
317,653.4847453800108
318,653.4030877784842
319,653.3137431581665
320,653.2123572055765
321,653.096176972476
322,652.9642140399353
323,652.8171995433061
324,652.6573603843092
325,652.4880561021893
326,652.3133302030931
327,652.1374448617817
328,651.964469204138
329,651.7979703316144
330,651.6408193986946
331,651.4950937375446
332,651.3620500335084
333,651.2421597395149
334,651.135212513007
335,651.0404874578866
336,650.9569693845668
337,650.883568960882
338,650.8193085767589
339,650.763457117329
340,650.7156157899093
341,650.6757594041144
342,650.644233057094
343,650.6217058855734
344,650.6090843854621
345,650.6073821746293
346,650.6175457712026
347,650.6402544004312
348,650.6757276248268
349,650.7235722256203
350,650.7826867734286
351,650.8512320191091
352,650.9266704819548
353,651.0058736373762
354,651.085284001165
355,651.1611065577259
356,651.2295042521472
357,651.2867918556606
358,651.329645214538
359,651.3553466928067
360,651.3620698748923
361,651.3491832774221
362,651.317535482609
363,651.2696680866713
364,651.2098863788772
365,651.1441195808649
366,651.0795388356589
367,651.0239564988025
368,650.9850756518256
369,650.9696831341503
370,650.9828878401894
371,651.0275027395022
372,651.1036521353622
373,651.2086533436662
374,651.3371826621327
375,651.4817043887999
376,651.6331226704833
377,651.7815985293914
378,651.9174509655096
379,652.0320372753574
380,652.1184987136237
381,652.1722798860992
382,652.1913836657445
383,652.1763762206504
384,652.1301737192158
385,652.0576327023906
386,651.9649726263206
387,651.859095068416
388,651.7468953335471
389,651.6346558315082
390,651.5275733991654
391,651.4294356654
392,651.3424476093222
393,651.2672163078688
394,651.2029035040258
395,651.1475311093876
396,651.0983857912555
397,651.0524433583063
398,651.0067357259601
399,650.9586113041788
400,650.9058826660911
401,650.8468912629976
402,650.7805261693478
403,650.706213440266
404,650.6238705187135
405,650.5338193027964
406,650.436670428557
407,650.3332141618552
408,650.2243654854409
409,650.1112012413048
410,649.9950928962661
411,649.8778933203146
412,649.7621027991501
413,649.6509341197107
414,649.5482188003349
415,649.4581349048908
416,649.3847786917054
417,649.3316397453175
418,649.3010704066207
419,649.2938625528728
420,649.3090430153266
421,649.3439542366921
422,649.3946062371341
423,649.4562087046088
424,649.5237537612053
425,649.5925267742273
426,649.6584642576357
427,649.7183393234241
428,649.7698081610645
429,649.8113684099067
430,649.8422667916637
431,649.862377340389
432,649.8720673481309
433,649.8720704952295
434,649.8633912924628
435,649.8472681427052
436,649.8252115873715
437,649.7991045650164
438,649.7713197327314
439,649.7447952259413
440,649.7230168012918
441,649.7098742144713
442,649.7093899250851
443,649.7253511330545
444,649.7608965273164
445,649.8181128061194
446,649.8976942178485
447,649.9987160458782
448,650.1185599244511
449,650.253000802472
450,650.3964409159423
451,650.5422749687558
452,650.6833801223629
453,650.812713956765
454,650.9239721682543
455,651.0122350865753
456,651.0745314484966
457,651.1102515912869
458,651.1213410539177
459,651.1122182377228
460,651.0894006805285
461,651.0608785141471
462,651.035315446478
463,651.0211776544468
464,651.0258941635036
465,651.055145114804
466,651.1123607403046
467,651.1984937612987
468,651.312096328109
469,651.4496858986904
470,651.6063287007997
471,651.7763216350562
472,651.9538333594036
473,652.1333850018451
474,652.3101079674117
475,652.47978935361
476,652.638773688521
477,652.7838144318899
478,652.9119608609413
479,653.0205332717479
480,653.1071905923199
481,653.1700486671328
482,653.2077933809796
483,653.2197621398004
484,653.2060124145349
485,653.1674129690646
486,653.1057681544349
487,653.0239440379437
488,652.925937158855
489,652.8168216799403
490,652.7025293996527
491,652.5894592566517
492,652.4839611212349
493,652.3917643355046
494,652.3174187990307
495,652.2638069244674
496,652.2317864745256
497,652.2200295508181
498,652.225107157684
499,652.2418213972047
500,652.2637341383079
501,652.283818229072
502,652.2951656923354
503,652.2916962226714
504,652.2688032372698
505,652.2238655330985
506,652.1565528331918
507,652.0688680988522
508,651.9649044423649
509,651.8503494424573
510,651.7318262679382
511,651.6161919888954
512,651.5099045624462
513,651.4185305871791
514,651.3464196256956
515,651.2965378450791
516,651.2704380952678
517,651.2683358507522
518,651.2892550643331
519,651.331210991315
520,651.3914104917903
521,651.4664634899262
522,651.5526022083191
523,651.6458982370822
524,651.7424603322514
525,651.8386008373598
526,651.9309815915514
527,652.0167751670737
528,652.0938747363667
529,652.1611474242426
530,652.2186784118577
531,652.2679258417654
532,652.3117054559402
533,652.3539481832643
534,652.3992291462457
535,652.4521411754536
536,652.5166420647465
537,652.5955113664542
538,652.6900134755879
539,652.7998049256713
540,652.92306478451
541,653.0567797948987
542,653.1970967018983
543,653.3396707664042
544,653.4799756352658
545,653.6135721004632
546,653.7363511798515
547,653.8447682882992
548,653.9360700964322
549,654.008491659815
550,654.0613840429044
551,654.095233755432
552,654.1115546542624
553,654.1126613182216
554,654.101359819446
555,654.0806108279843
556,654.05322677199
557,654.0216534935054
558,653.9878573885867
559,653.9533054496228
560,653.9190043047029
561,653.8855572935246
562,653.8532002774276
563,653.8217897668844
564,653.7907479065145
565,653.7590107115204
566,653.7250503241935
567,653.687023630673
568,653.6430482177977
569,653.5915542801082
570,653.5316249652193
571,653.4632258681597
572,653.3872517183851
573,653.3053794253086
574,653.2197731802057
575,653.1327095442842
576,653.0461856332655
577,652.9615637563704
578,652.8793030069625
579,652.798830376584
580,652.7186010245985
581,652.6363790267835
582,652.5497285202919
583,652.4566418257749
584,652.3561695406398
585,652.2488944240387
586,652.1371214087671
587,652.0247233481713
588,651.9166593861045
589,651.8182517134052
590,651.734357021645
591,651.6685935340815
592,651.6227750625582
593,651.5966591181958
594,651.5880501942808
595,651.5932305113558
596,651.6076288033021
597,651.6265887900214
598,651.6460758167475
599,651.6631792672956
600,651.67633011657
601,651.685231891828
602,651.690567984755
603,651.6935854406811
604,651.6956650002753
605,651.6979678349751
606,651.7012057309651
607,651.705536222426
608,651.710562331754
609,651.715418044232
610,651.7189238357046
611,651.7197869045533
612,651.7168044948177
613,651.7090244409309
614,651.6958388064239
615,651.6770249914994
616,651.6527713345808
617,651.6237095882345
618,651.590944575669
619,651.5560589746827
620,651.5210849674808
621,651.4884477953282
622,651.4608811476339
623,651.4413029578503
624,651.4326404941461
625,651.4376043787385
626,651.4584207010225
627,651.4965363298262
628,651.5523249932074
629,651.6248489980752
630,651.7117613808754
631,651.8094349915706
632,651.9133582802898
633,652.0187549607731
634,652.1213041726485
635,652.2177997652826
636,652.3066096922395
637,652.3878600439551
638,652.4633351410437
639,652.536132949931
640,652.6101448769106
641,652.6894477153429
642,652.7777047334533
643,652.8776717949847
644,652.9908888444063
645,653.1175956566998
646,653.2568431945972
647,653.4067107905057
648,653.5645269817951
649,653.7270352673805
650,653.8905104392095
651,654.0508710671743
652,654.2038281902635
653,654.3450768389905
654,654.4705098444925
655,654.576426723233
656,654.6597150443677
657,654.717990246319
658,654.7496935634574
659,654.7541622446765
660,654.7316901179008
661,654.6835819660943
662,654.6121773039031
663,654.5207994953159
664,654.4135963134364
665,654.2952737039599
666,654.1707594051743
667,654.0448472877274
668,653.9218665116424
669,653.8054061443876
670,653.6981214383081
671,653.6016519071186
672,653.5166759520719
673,653.4430997804589
674,653.3803389063725
675,653.3276205561275
676,653.2842304684555
677,653.249648559392
678,653.2235548540957
679,653.2057265643872
680,653.1958781776542
681,653.1935131665417
682,653.1978538080125
683,653.2078906112623
684,653.2225499375888
685,653.2409315183149
686,653.2625316520365
687,653.287357967303
688,653.3158682217838
689,653.3487210780145
690,653.3863888710246
691,653.428730299308
692,653.4746394516333
693,653.5218692392084
694,653.5670830709539
695,653.6061431660626
696,653.6346111740704
697,653.6484055736404
698,653.6445129693403
699,653.6216000414187
700,653.5803688462543
701,653.5235717008982
702,653.455714533306
703,653.3825521574414
704,653.3104817064914
705,653.2459086355253
706,653.1946446295069
707,653.1614023710423
708,653.1494447098808
709,653.1604106912782
710,653.194304218024
711,653.2496216645018
712,653.3236057092337
713,653.4126148291188
714,653.5125790872858
715,653.6194865383435
716,653.729827092968
717,653.840919495519
718,653.9510657303704
719,654.0595101740098
720,654.1662112662586
721,654.2714545565708
722,654.3753596432026
723,654.4773660895579
724,654.57581340741
725,654.6677416035093
726,654.7490154147363
727,654.8148046624982
728,654.8603488009796
729,654.8818414604368
730,654.8772340403896
731,654.8467851878615
732,654.7932543265038
733,654.7217200162461
734,654.6390681457897
735,654.5532322592381
736,654.4722958564735
737,654.4035936426816
738,654.3529541986067
739,654.3241905434261
740,654.3188788670379
741,654.3363971475711
742,654.3741528185658
743,654.4279328775854
744,654.4923504740426
745,654.5613946486932
746,654.6290768697921
747,654.6901139038207
748,654.7405328984258
749,654.7780765808654
750,654.8023345771695
751,654.8145975859129
752,654.8174861130208
753,654.81443660973
754,654.8091419371813
755,654.8050388179237
756,654.8049136067577
757,654.8106702853603
758,654.8232755599144
759,654.8428620632243
760,654.8689383942208
761,654.9006391091764
762,654.9369544748486
763,654.9769007011956
764,655.0196138421757
765,655.0643651996418
766,655.1105035407377
767,655.1573413952498
768,655.2040245160438
769,655.2494386775458
770,655.2921959211009
771,655.3307080266472
772,655.3633226888722
773,655.388482334385
774,655.4048637823088
775,655.4114650225899
776,655.4076273571798
777,655.3930151819385
778,655.3676023060517
779,655.3317104609662
780,655.2861093690591
781,655.2321389610735
782,655.1717856050666
783,655.107658484919
784,655.0428604490601
785,654.9807906060868
786,654.9249203637067
787,654.8785580060725
788,654.8445981249309
789,654.8252649862753
790,654.821885664616
791,654.8347370155758
792,654.8629922614779
793,654.9047632308917
794,654.9572053695149
795,655.0166351678494
796,655.0786256416968
797,655.1381035869736
798,655.1895337026393
799,655.2272775011088
800,655.2461415499922
801,655.2420291403488
802,655.2125475773737
803,655.1574291976103
804,655.0786858123757
805,654.9804950478942
806,654.8688664690451
807,654.7511364013719
808,654.6353231167453
809,654.5293821788755
810,654.4404364822594
811,654.3740764774086
812,654.333807962666
813,654.3206883501231
814,654.3331700731717
815,654.3671668155407
816,654.4163580542921
817,654.4727331432151
818,654.5273401882579
819,654.5711589497101
820,654.595987924698
821,654.5952379815615
822,654.5645482129031
823,654.502168577662
824,654.4090831039454
825,654.2888788889683
826,654.1473997910533
827,653.9922492329978
828,653.8322071577985
829,653.6765976649006
830,653.5346094562632
831,653.4145680661678
832,653.3231981686943
833,653.2649629094963
834,653.2415839449
835,653.2518252409028
836,653.2915878944654
837,653.3543252837609
838,653.4317442232393
839,653.5147093637668
840,653.5942290818317
841,653.6623884449018
842,653.7131133555811
843,653.7426857724796
844,653.749966134506
845,653.7363181829217
846,653.7052815930863
847,653.6620831734037
848,653.6130881961959
849,653.5652635074482
850,653.5256766143747
851,653.501020178384
852,653.4971507127561
853,653.5186628943347
854,653.5685531982156
855,653.6480203299119
856,653.7564087884779
857,653.8912661968168
858,654.0484813902775
859,654.2224895680926
860,654.4065514678591
861,654.5931231897251
862,654.7743259481846
863,654.942495997034
864,655.0907528983196
865,655.2134982017279
866,655.3067724231886
867,655.3684471123591
868,655.3982711476048
869,655.3977970035169
870,655.3701943745144
871,655.3199476596841
872,655.2524468398136
873,655.1735090294596
874,655.0888911245507
875,655.0038576652344
876,654.9228518251355
877,654.8492931688498
878,654.7855017935897
879,654.7327271370606
880,654.6912490888079
881,654.6605243896076
882,654.6393625622408
883,654.626122976462
884,654.6189307624489
885,654.6159119620545
886,654.6154351661448
887,654.6163185121865
888,654.6179396135943
889,654.6201944249782
890,654.62329168393
891,654.6274244925006
892,654.6324039260102
893,654.6373527555734
894,654.6405397252686
895,654.6393982116819
896,654.6307289770833
897,654.6110455376378
898,654.5769952561686
899,654.5257861054613
900,654.4555613492055
901,654.3656796748996
902,654.2568683171074
903,654.1312214744883
904,653.9920247706982
905,653.843409851462
906,653.6898814830131
907,653.5357980099935
908,653.384908096573
909,653.2400428215649
910,653.1030279742795
911,652.9748214973962
912,652.8558170061497
913,652.7462133609307
914,652.6463434056625
915,652.5568759570596
916,652.4788455853733
917,652.4135155187582
