frame_number,force
0,701.6919500085341
1,701.5293769261884
2,701.3675019486332
3,701.2070183259862
4,701.0486096567045
5,700.8929452022215
6,700.740675361394
7,700.5924273468008
8,700.4488010991145
9,700.3103654706003
10,700.177654704616
11,700.0511652345847
12,699.93135282275
13,699.8186300554869
14,699.7133642077175
15,699.615875484218
16,699.5264356410008
17,699.4452669861253
18,699.372541756257
19,699.3083818626859
20,699.2528589980851
21,699.2059950931821
22,699.1677631108155
23,699.138088163211
24,699.1168489362601
25,699.103879402248
26,699.0989708006546
27,699.1018738660584
28,699.112301282615
29,699.1299303449437
30,699.1544058047834
31,699.1853428814553
32,699.2223304122145
33,699.2649341161708
34,699.3126999432425
35,699.3651574784512
36,699.4218233720659
37,699.482204767218
38,699.545802697818
39,699.6121154302879
40,699.6806417228117
41,699.7508839759438
42,699.8223512488282
43,699.8945621161861
44,699.9670473432121
45,700.0393523591093
46,700.111039514738
47,700.181690114696
48,700.2509062183608
49,700.3183122078703
50,700.3835561239057
51,700.4463107728031
52,700.5062746111554
53,700.5631724163687
54,700.616755753138
55,700.6668032462882
56,700.7131206701189
57,700.7555408638973
58,700.7939234832191
59,700.8281545979495
60,700.8581461488725
61,700.8838352761666
62,700.9051835330293
63,700.9221759975948
64,700.9348202961872
65,700.9431455508925
66,700.9472012639201
67,700.9470561500622
68,700.9427969270295
69,700.9345270721687
70,700.922365553472
71,700.9064455426668
72,700.8869131177782
73,700.8639259612617
74,700.837652057766
75,700.8082683934582
76,700.7759596573031
77,700.7409169440871
78,700.7033364592921
79,700.6634182270019
80,700.6213648035988
81,700.5773800017583
82,700.5316676308074
83,700.4844302604573
84,700.4358680147761
85,700.3861774020506
86,700.335550184691
87,700.2841722927142
88,700.2322227852034
89,700.1798728659
90,700.1272849603997
91,700.0746118625638
92,700.021995957112
93,699.9695685244176
94,699.9174491321826
95,699.865745116882
96,699.8145511561809
97,699.7639489326269
98,699.7140068888127
99,699.6647800744779
100,699.6163100864577
101,699.5686251030328
102,699.5217400148682
103,699.4756566549072
104,699.4303641291548
105,699.3858392495746
106,699.3420470695576
107,699.2989415214896
108,699.2564661546526
109,699.2145549702055
110,699.1731333488117
111,699.1321190658754
112,699.0914233889669
113,699.0509522510722
114,699.0106074913457
115,698.970288152361
116,698.9298918202081
117,698.8893159918572
118,698.8484594532315
119,698.8072236511426
120,698.765514042384
121,698.723241403926
122,698.6803230893426
123,698.6366842180647
124,698.5922587855755
125,698.5469906842259
126,698.5008346258967
127,698.4537569590116
128,698.4057363733017
129,698.356764486492
130,698.3068463080067
131,698.2560005759343
132,698.2042599647339
133,698.1516711623225
134,698.098294816118
135,698.0442053483383
136,697.9894906415323
137,697.9342515960631
138,697.8786015620375
139,697.8226656488374
140,697.7665799159936
141,697.710490450167
142,697.6545523350513
143,697.5989285238936
144,697.5437886270474
145,697.4893076288917
146,697.4356645499048
147,697.3830410712287
148,697.3316201405426
149,697.2815845789243
150,697.233115708252
151,697.1863920175313
152,697.1415878844659
153,697.0988723657775
154,697.0584080664615
155,697.020350094737
156,696.9848451065266
157,696.9520304412551
158,696.9220333494491
159,696.8949703116605
160,696.8709464473827
161,696.8500550118865
162,696.83237697834
163,696.8179807021863
164,696.8069216646142
165,696.7992422920953
166,696.7949718492034
167,696.7941264020172
168,696.7967088493115
169,696.8027090187528
170,696.812103825785
171,696.8248574936741
172,696.8409218337777
173,696.8602365850716
174,696.8827298112254
175,696.9083183522448
176,696.9369083263468
177,696.9683956767806
178,697.0026667579989
179,697.0395989558989
180,697.0790613375646
181,697.1209153267787
182,697.1650154022985
183,697.2112098164981
184,697.2593413325142
185,697.3092479783231
186,697.3607638160835
187,697.4137197248332
188,697.4679441944863
189,697.5232641288108
190,697.5795056544722
191,697.6364949324776
192,697.6940589675413
193,697.7520264097092
194,697.8102283410905
195,697.8684990396285
196,697.9266767122548
197,697.9846041913369
198,698.0421295901336
199,698.099106914189
200,698.1553966262628
201,698.2108661632664
202,698.2653904051607
203,698.3188520974037
204,698.371142229502
205,698.4221603720063
206,698.4718149728699
207,698.5200236120324
208,698.5667132111926
209,698.6118201945231
210,698.6552905958135
211,698.6970801082061
212,698.737154073986
213,698.7754874130519
214,698.8120644892844
215,698.8468789142249
216,698.8799332877841
217,698.9112388762115
218,698.9408152281032
219,698.9686897297039
220,698.994897101316
221,699.0194788373286
222,699.0424825931804
223,699.0639615235601
224,699.0839735775864
225,699.1025807586659
226,699.119848358713
227,699.1358441777081
228,699.1506377397264
229,699.1642995155909
230,699.1769001607479
231,699.1885097757742
232,699.1991971967014
233,699.2090293229857
234,699.218070491735
235,699.2263819069958
236,699.2340211322762
237,699.2410416533924
238,699.2474925174714
239,699.2534180525776
240,699.2588576710084
241,699.2638457582356
242,699.2684116488966
243,699.2725796906036
244,699.276369394863
245,699.2797956722617
246,699.2828691470976
247,699.2855965450804
248,699.2879811459933
249,699.290023290795
250,699.291720930027
251,699.2930701987234
252,699.2940660031816
253,699.2947026068282
254,699.2949742050115
255,699.294875480863
256,699.2944021359733
257,699.2935513905065
258,699.2923224475844
259,699.2907169164195
260,699.2887391880445
261,699.2863967569683
262,699.28370048189
263,699.2806647786426
264,699.2773077387293
265,699.273651167437
266,699.2697205371096
267,699.2655448539505
268,699.2611564400762
269,699.2565906353227
270,699.2518854248124
271,699.2470809988914
272,699.242219252771
273,699.2373432346822
274,699.2324965531245
275,699.2277227549353
276,699.2230646860492
277,699.2185638463014
278,699.2142597489385
279,699.210189295039
280,699.2063861731308
281,699.2028802948688
282,699.1996972780648
283,699.196857987902
284,699.1943781454969
285,699.1922680102462
286,699.1905321391898
287,699.1891692238692
288,699.188172003497
289,699.1875272524792
290,699.1872158396943
291,699.1872128559268
292,699.1874878044936
293,699.188004848862
294,699.1887231103877
295,699.1895970093536
296,699.1905766430104
297,699.1916081950311
298,699.1926343715957
299,699.193594860102
300,699.1944268069997
301,699.1950653113644
302,699.1954439306808
303,699.1954951950349
304,699.1951511257192
305,699.1943437542132
306,699.1930056375927
307,699.1910703666717
308,699.1884730635397
309,699.1851508651378
310,699.1810433886423
311,699.1760931731409
312,699.1702460914059
313,699.1634517258069
314,699.155663703065
315,699.1468399835146
316,699.136943102193
317,699.1259403614174
318,699.1138039767337
319,699.1005111794191
320,699.0860442789792
321,699.0703906887629
322,699.053542917479
323,699.0354985291772
324,699.0162600739844
325,698.9958349915713
326,698.9742354894443
327,698.9514783990661
328,698.9275850140293
329,698.9025809150228
330,698.8764957856615
331,698.8493632217311
332,698.8212205345534
333,698.7921085474045
334,698.7620713826186
335,698.7311562366478
336,698.6994131410089
337,698.6668947083544
338,698.6336558643975
339,698.5997535678553
340,698.5652465218529
341,698.5301948810252
342,698.4946599586114
343,698.4587039372653
344,698.422389586439
345,698.3857799882128
346,698.3489382722872
347,698.3119273596494
348,698.2748097138036
349,698.2376470990246
350,698.2005003469362
351,698.1634291352437
352,698.1264917848202
353,698.0897450827218
354,698.0532441383924
355,698.0170422783135
356,697.9811909815146
357,697.9457398555785
358,697.9107366502603
359,697.8762273035622
360,697.8422560135045
361,697.8088653285456
362,697.7760962506003
363,697.7439883459695
364,697.7125798602096
365,697.6819078328699
366,697.6520082077277
367,697.6229159343568
368,697.5946650577881
369,697.5672887943994
370,697.540819593539
371,697.5152891854683
372,697.4907286167468
373,697.4671682741917
374,697.4446378984394
375,697.4231665883459
376,697.4027827977918
377,697.3835143264976
378,697.3653883062589
379,697.3484311838065
380,697.3326687011075
381,697.3181258730012
382,697.3048269608825
383,697.2927954404788
384,697.2820539619073
385,697.2726243006522
386,697.2645272984201
387,697.2577827930202
388,697.2524095365967
389,697.2484251017562
390,697.2458457755972
391,697.2446864427181
392,697.2449604600387
393,697.246679528418
394,697.249853567899
395,697.2544906042461
396,697.2605966740832
397,697.2681757547858
398,697.2772297238337
399,697.2877583507355
400,697.2997593230493
401,697.3132283066748
402,697.3281590394921
403,697.344543456479
404,697.3623718439142
405,697.3816330203604
406,697.4023145423469
407,697.4244029324128
408,697.4478839263186
409,697.4727427352286
410,697.498964317843
411,697.526533656681
412,697.5554360317788
413,697.5856572840751
414,697.6171840601555
415,697.6500040299421
416,697.6841060690997
417,697.7194803983148
418,697.75611867248
419,697.7940140143222
420,697.8331609889449
421,697.873555517944
422,697.9151947341227
423,697.9580767800646
424,698.0022005554816
425,698.0475654192218
426,698.0941708523724
427,698.1420160892287
428,698.1910997231602
429,698.2414192948219
430,698.2929708708655
431,698.3457486219571
432,698.3997444087408
433,698.4549473831604
434,698.5113436110523
435,698.5689157210754
436,698.6276425849054
437,698.6874990335964
438,698.7484556145816
439,698.8104783927919
440,698.8735287980231
441,698.9375635195069
442,699.0025344483263
443,699.0683886690217
444,699.1350685024178
445,699.2025116010681
446,699.270651096764
447,699.3394157977107
448,699.4087304323866
449,699.4785159375715
450,699.5486897884916
451,699.6191663688004
452,699.6898573771284
453,699.7606722654839
454,699.8315187031483
455,699.9023030582881
456,699.9729308888172
457,700.0433074343501
458,700.1133381019571
459,700.1829289390195
460,700.2519870864159
461,700.320421205006
462,700.388141868567
463,700.4550619171117
464,700.5210967655031
465,700.5861646628545
466,700.6501868981859
467,700.7130879479017
468,700.7747955617922
469,700.8352407866022
470,700.8943579292061
471,700.9520844645416
472,701.0083608961626
473,701.0631305789046
474,701.1163395132944
475,701.1679361203095
476,701.2178710036577
477,701.2660967054811
478,701.3125674605341
479,701.3572389534675
480,701.4000680838978
481,701.4410127443606
482,701.4800316166645
483,701.5170839919627
484,701.5521296186473
485,701.5851285801069
486,701.6160412021768
487,701.6448279885976
488,701.6714495824576
489,701.6958667522665
490,701.7180404024041
491,701.7379316083382
492,701.7555016765914
493,701.7707122282642
494,701.7835253041303
495,701.7939034897663
496,701.8018100605983
497,701.8072091482253
498,701.8100659301665
499,701.8103468452949
500,701.8080198371289
501,701.803054627112
502,701.7954230195986
503,701.7850992387937
504,701.7720602953726
505,701.7562863779098
506,701.7377612627714
507,701.716472735971
508,701.6924130209248
509,701.6655792064065
510,701.635973669235
511,701.6036044864699
512,701.5684858319454
513,701.5306383514616
514,701.490089509785
515,701.4468739010823
516,701.401033512849
517,701.352617932223
518,701.3016844834057
519,701.248298286251
520,701.192532228749
521,701.1344668493508
522,701.0741901281593
523,701.0117971887483
524,700.9473899148595
525,700.8810764883826
526,700.8129708567935
527,700.7431921397346
528,700.6718639859157
529,700.599113893077
530,700.525072505081
531,700.4498729005077
532,700.3736498856588
533,700.2965393019207
534,700.2186773544014
535,700.1401999669592
536,700.0612421682762
537,699.9819375138396
538,699.902417549125
539,699.8228113197433
540,699.7432449345845
541,699.6638411877425
542,699.584719244069
543,699.5059943914988
544,699.4277778610063
545,699.3501767126116
546,699.273293783599
547,699.1972276932644
548,699.1220728973555
549,699.0479197850111
550,698.974854811165
551,698.9029606576909
552,698.8323164170962
553,698.7629977936185
554,698.6950773179971
555,698.6286245733286
556,698.563706429965
557,698.5003872874784
558,698.4387293212013
559,698.3787927295559
560,698.3206359767662
561,698.264316024569
562,698.2098885467041
563,698.15740812103
564,698.106928395435
565,698.0585022248479
566,698.0121817775102
567,697.9680186094237
568,697.926063706689
569,697.8863674962276
570,697.8489798259287
571,697.8139499157476
572,697.7813262819716
573,697.7511566377717
574,697.7234877738607
575,697.698365423045
576,697.6758341115224
577,697.6559369985378
578,697.6387157053015
579,697.6242101341857
580,697.6124582796635
581,697.6034960325993
582,697.5973569792138
583,697.5940721959465
584,697.5936700420103
585,697.5961759523652
586,697.6016122343625
587,697.6099978710569
588,697.6213483332035
589,697.6356754005757
590,697.6529869920917
591,697.6732870040647
592,697.6965751568102
593,697.7228468511199
594,697.7520930367583
595,697.7843000947195
596,697.8194497340519
597,697.8575189036098
598,697.8984797195035
599,697.9422994098023
600,697.9889402787035
601,698.0383596929021
602,698.0905100934366
603,698.1453390366636
604,698.202789268125
605,698.2627988328927
606,698.3253012254489
607,698.3902255813308
608,698.4574969118644
609,698.5270363822943
610,698.598761632033
611,698.6725871334185
612,698.7484245828086
613,698.826183315714
614,698.9057707362684
615,698.9870927506528
616,699.0700541940129
617,699.1545592406852
618,699.2405117880123
619,699.3278158048315
620,699.4163756370801
621,699.506096264909
622,699.5968835081655
623,699.6886441798944
624,699.7812861902677
625,699.8747186057035
626,699.9688516694691
627,700.0635967905265
628,700.1588665069138
629,700.2545744291969
630,700.3506351688412
631,700.4469642552444
632,700.5434780430923
633,700.640093609388
634,700.7367286383814
635,700.8333012930892
636,700.9297300734124
637,701.0259336623258
638,701.1218307629676
639,701.2173399304327
640,701.3123794026858
641,701.4068669355884
642,701.5007196476778
643,701.5938538808457
644,701.6861850830894
645,701.7776277187492
646,701.8680952099219
647,701.9574999103799
648,702.0457531111609
649,702.1327650758925
650,702.2184451041775
651,702.3027016227379
652,702.3854423057248
653,702.4665742266263
654,702.5460040437812
655,702.623638219866
656,702.699383273936
657,702.7731460636227
658,702.8448340950067
659,702.9143558579893
660,702.9816211853073
661,703.0465416333739
662,703.1090308826697
663,703.1690051544332
664,703.2263836394022
665,703.2810889338017
666,703.3330474776221
667,703.3821899901199
668,703.42845189739
669,703.4717737471894
670,703.5121016071465
671,703.5493874437446
672,703.583589480252
673,703.6146725313291
674,703.6426083102914
675,703.6673757029024
676,703.6889610006095
677,703.7073580870712
678,703.7225685738572
679,703.7346018828766
680,703.7434752738999
681,703.7492138160763
682,703.7518503032342
683,703.7514251141354
684,703.7479860204314
685,703.7415879460332
686,703.7322926811711
687,703.7201685525454
688,703.7052900485616
689,703.6877373968371
690,703.6675960907284
691,703.6449563631201
692,703.6199126090575
693,703.5925627627477
694,703.5630076372058
695,703.5313502354131
696,703.4976950406757
697,703.4621472921013
698,703.4248122499597
699,703.3857944557041
700,703.3451969921344
701,703.303120749797
702,703.2596637060275
703,703.2149202234051
704,703.1689803750711
705,703.1219293053024
706,703.0738466347085
707,703.0248059201836
708,702.9748741799208
709,702.924111493026
710,702.8725706817135
711,702.8202970822744
712,702.767328409169
713,702.7136947143905
714,702.6594184415214
715,702.604514571067
716,702.5489908515127
717,702.4928481095526
718,702.436080632692
719,702.3786766170689
720,702.32061867263
721,702.2618843772702
722,702.2024468715834
723,702.142275486214
724,702.081336394247
725,702.0195932818484
726,701.9570080315079
727,701.8935414132951
728,701.8291537799349
729,701.763805761151
730,701.6974589519508
731,701.6300765888913
732,701.5616242082384
733,701.4920702803424
734,701.4213868152152
735,701.3495499347515
736,701.2765404071541
737,701.2023441393907
738,701.1269526245554
739,701.0503633427968
740,700.9725801163753
741,700.8936134207958
742,700.8134806543774
743,700.7322063680131
744,700.6498224556278
745,700.5663683046356
746,700.4818909048539
747,700.3964449138351
748,700.310092676265
749,700.2229041948567
750,700.1349570501744
751,700.0463362675446
752,699.9571341308932
753,699.8674499454279
754,699.7773897526168
755,699.6870660013519
756,699.5965971785904
757,699.506107401519
758,699.4157259720566
759,699.3255868942008
760,699.2358283557209
761,699.1465921775421
762,699.0580232360003
763,698.9702688644132
764,698.8834782408918
765,698.7978017690014
766,698.7133904570733
767,698.6303953010863
768,698.5489666752662
769,698.4692537337089
770,698.3914038254236
771,698.3155619247146
772,698.2418700791173
773,698.1704668777744
774,698.1014869432603
775,698.0350604489349
776,697.9713126623512
777,697.9103635140821
778,697.8523271913535
779,697.7973117569854
780,697.74541879562
781,697.696743090474
782,697.6513723347387
783,697.6093868821732
784,697.5708595410135
785,697.5358554139563
786,697.5044317853888
787,697.4766380560627
788,697.4525157251101
789,697.4320984189746
790,697.4154119657499
791,697.4024745113425
792,697.393296671194
793,697.3878817089142
794,697.3862257319676
795,697.3883178944402
796,697.3941405970027
797,697.4036696739133
798,697.4168745568674
799,697.4337184068622
800,697.4541582084804
801,697.4781448253316
802,697.5056230196575
803,697.536531442503
804,697.5708026030788
805,697.6083628268912
806,697.6491322121377
807,697.6930245934318
808,697.739947521797
809,697.7898022701563
810,697.8424838734458
811,697.897881211253
812,697.9558771385546
813,698.0163486675046
814,698.079167200966
815,698.1441988167325
816,698.2113046001022
817,698.2803410215598
818,698.3511603557236
819,698.4236111373938
820,698.4975386506259
821,698.572785447127
822,698.6491918904763
823,698.726596722282
824,698.8048376454988
825,698.8837519189426
826,698.9631769555108
827,699.0429509146172
828,699.1229132772297
829,699.2029053905304
830,699.2827709693344
831,699.3623565429136
832,699.4415118381933
833,699.5200900928554
834,699.5979482944558
835,699.6749473439945
836,699.7509521442139
837,699.8258316140942
838,699.8994586318391
839,699.9717099096326
840,700.0424658049641
841,700.1116100751846
842,700.1790295835149
843,700.2446139654127
844,700.3082552640948
845,700.369847543585
846,700.429286487396
847,700.4864689911678
848,700.5412927581988
849,700.5936559073727
850,700.6434566031571
851,700.6905927172357
852,700.7349615313982
853,700.7764594916313
854,700.8149820235717
855,700.8504234192496
856,700.882676804362
857,700.9116341943184
858,700.9371866461347
859,700.95922451177
860,700.9776377961753
861,700.9923166197597
862,701.0031517807603
863,701.0100354092685
864,701.0128617020943
865,701.0115277262122
866,701.0059342781454
867,700.9959867870889
868,700.9815962502504
869,700.9626801892907
870,700.9391636170302
871,700.9109800041351
872,700.8780722360387
873,700.8403935500853
874,700.7979084415246
875,700.7505935251799
876,700.6984383385055
877,700.6414460721469
878,700.5796342160886
879,700.5130351123751
880,700.4416964082409
881,700.3656814054096
882,700.285069301814
883,700.1999553211552
884,700.1104507243956
885,700.0166826965987
886,699.9187941032149
887,699.8169431120602
888,699.711302680685
889,699.6020599129575
890,699.4894152924343
891,699.3735818026388
892,699.2547839456961
893,699.1332566711939
894,699.0092442270611
895,698.882998944031
896,698.7547799652403
897,698.6248519328046
898,698.4934836435876
899,698.360946686708
900,698.2275140754996
901,698.0934588864587
902,697.9590529168443
903,697.8245653711468
904,697.6902615850844
905,697.5564017945185
906,697.4232399558206
907,697.2910226237088
908,697.1599878923711
909,697.0303644056813
910,696.9023704425078
911,696.7762130835904
912,696.65208746707
913,696.5301761397761
914,696.4106485101996
915,696.2936604069776
916,696.1793537446712
917,696.0678562973894
918,695.9592815803193
