frame_number,force
0,904.0598800082133
1,903.7893707855574
2,903.5184205266225
3,903.2465889203029
4,902.9734371203888
5,902.6985285134933
6,902.4214295270966
7,902.1417104867307
8,901.8589465269989
9,901.5727185558707
10,901.282614266829
11,900.988229190085
12,900.6891677722863
13,900.3850444734076
14,900.0754848693798
15,899.7601267491964
16,899.4386211956976
17,899.1106336402353
18,898.7758448830373
19,898.433952072737
20,898.0846696393914
21,897.7277301750504
22,897.3628852550577
23,896.989906192664
24,896.608584719863
25,896.2187335884263
26,895.8201870862133
27,895.4128014645935
28,894.9964552733901
29,894.5710496003995
30,894.1365082133719
31,893.6927776032511
32,893.2398269284338
33,892.77764786105
34,892.3062543380387
35,891.8256822218696
36,891.3359888774406
37,890.8372526724382
38,890.3295724084992
39,889.8130666903502
40,889.2878732399789
41,888.7541481629289
42,888.21206517431
43,887.661814793052
44,887.1036035135386
45,886.5376529631851
46,885.9641990526858
47,885.3834911233776
48,884.7957910944465
49,884.2013726119225
50,883.6005202012994
51,882.9935284255984
52,882.3807010502115
53,881.7623502147878
54,881.138795610938
55,880.5103636628944
56,879.8773867064765
57,879.2402021600114
58,878.599151679801
59,877.9545802929406
60,877.3068355017418
61,876.656266355835
62,876.003222489064
63,875.3480531181658
64,874.6911059998492
65,874.0327263434898
66,873.3732556784664
67,872.7130306773355
68,872.0523819378232
69,871.3916327279585
70,870.7310976998638
71,870.0710815791177
72,869.4118778383663
73,868.7537673658178
74,868.0970171409584
75,867.4418789307883
76,866.7885880199788
77,866.1373619880624
78,865.4883995469603
79,864.8418794532859
80,864.1979595113662
81,863.556775683606
82,862.9184413239045
83,862.28304654753
84,861.6506577479332
85,861.0213172681317
86,860.3950432317612
87,859.7718295367999
88,859.1516460134907
89,858.5344387469265
90,857.9201305637716
91,857.3086216816711
92,856.699790519442
93,856.0934946660954
94,855.4895720064985
95,854.8878420007306
96,854.2881071131656
97,853.6901543863917
98,853.0937571543376
99,852.498676888397
100,851.9046651698038
101,851.3114657805422
102,850.718816903318
103,850.1264534188598
104,849.5341092868304
105,848.941519995172
106,848.3484250611334
107,847.7545705649203
108,847.1597116942966
109,846.5636152767307
110,845.9660622755664
111,845.3668502277815
112,844.7657956023652
113,844.1627360597943
114,843.5575325946396
115,842.9500715453403
116,842.3402664577472
117,841.7280597917695
118,841.113424462472
119,840.4963652076666
120,839.8769197735044
121,839.2551599085348
122,838.6311921560871
123,838.0051584355075
124,837.3772364051971
125,836.7476396042456
126,836.1166173739147
127,835.4844545644568
128,834.8514710364251
129,834.2180209687576
130,833.5844919883134
131,832.9513041367702
132,832.3189086905713
133,831.6877868481935
134,831.0584482973564
135,830.4314296741794
136,829.8072929271844
137,829.1866236008522
138,828.5700290552217
139,827.9581366392258
140,827.3515918359644
141,826.7510563978676
142,826.1572064884543
143,825.5707308450992
144,824.9923289744664
145,824.4227093898428
146,823.86258789799
147,823.3126859423076
148,822.7737290086261
149,822.2464450991644
150,821.73156327882
151,821.2298122966546
152,820.7419192846785
153,820.2686085355977
154,819.8106003606736
155,819.3686100283797
156,818.9433467840342
157,818.5355129495456
158,818.1458031009373
159,817.7749033201048
160,817.4234905163803
161,817.0922318122269
162,816.7817839858205
163,816.4927929627934
164,816.2258933510324
165,815.9817080150967
166,815.7608476884104
167,815.5639106207881
168,815.3914822567335
169,815.2441349374678
170,815.1224276172449
171,815.0269055819704
172,814.9581001554418
173,814.9165283763022
174,814.902692627844
175,814.917080203149
176,814.9601627891321
177,815.032395854422
178,815.1342179275005
179,815.266049753162
180,815.42829331724
181,815.6213307316723
182,815.8455229740555
183,816.1012084777334
184,816.3887015706538
185,816.7082907643393
186,817.0602368984087
187,817.4447711504947
188,817.8620929254664
189,818.3123676415906
190,818.7957244349797
191,819.3122538073029
192,819.862005244945
193,820.4449848401748
194,821.061152946055
195,821.7104218964914
196,822.3926538212772
197,823.1076585838987
198,823.8551918677786
199,824.6349534346098
200,825.4465855763239
201,826.2896717801259
202,827.1637356241459
203,828.0682399197066
204,829.002586114875
205,829.9661139725255
206,830.9581015340644
207,831.9777653770284
208,833.0242611712644
209,834.0966845348491
210,835.1940721876333
211,836.3154033976191
212,837.4596017134857
213,838.6255369752378
214,839.8120275936984
215,841.0178430882032
216,842.2417068705493
217,843.482299261954
218,844.7382607282024
219,846.0081953162787
220,847.2906742738527
221,848.5842398311423
222,849.8874091229021
223,851.1986782266778
224,852.5165262924504
225,853.8394197388445
226,855.1658164922022
227,856.494170246254
228,857.8229347207603
229,859.1505678970046
230,860.4755362069418
231,861.7963186518629
232,863.111410825971
233,864.4193288203281
234,865.7186129833339
235,867.0078315153562
236,868.2855838773039
237,869.5505039956722
238,870.801263249606
239,872.0365732284012
240,873.2551882503388
241,874.4559076359529
242,875.6375777310641
243,876.7990936773505
244,877.9394009308166
245,879.0574965310647
246,880.152430126453
247,881.2233047619661
248,882.2692774381134
249,883.2895594504413
250,884.2834165199597
251,885.2501687248381
252,886.1891902434883
253,887.0999089189332
254,887.9818056541427
255,888.834413647687
256,889.6573174787627
257,890.4501520507044
258,891.2126014028426
259,891.9443974019761
260,892.6453183263976
261,893.3151873568742
262,893.9538709901343
263,894.5612773912745
264,895.1373547021808
265,895.682089323804
266,896.1955041912233
267,896.6776570616707
268,897.1286388362478
269,897.5485719351499
270,897.9376087437968
271,898.2959301437412
272,898.623744137993
273,898.92128457604
274,899.1888099803072
275,899.4266024738329
276,899.6349668085451
277,899.8142294939202
278,899.9647380260861
279,900.0868602171562
280,900.1809836238639
281,900.2475150733366
282,900.286880281866
283,900.2995235602676
284,900.2859075975678
285,900.2465133135416
286,900.1818397698815
287,900.092404129521
288,899.9787416538969
289,899.8414057285037
290,899.6809679075604
291,899.498017968583
292,899.2931639669432
293,899.0670322793088
294,898.8202676234928
295,898.5535330411496
296,898.2675098294266
297,897.962897408429
298,897.6404131130669
299,897.3007919000656
300,896.94478596302
301,896.5731642497877
302,896.1867118772309
303,895.7862294388798
304,895.3725322019216
305,894.9464491908265
306,894.508822155909
307,894.0605044266013
308,893.6023596513612
309,893.1352604283925
310,892.6600868332937
311,892.1777248514273
312,891.6890647240008
313,891.1949992169543
314,890.6964218208533
315,890.1942248894538
316,889.6892977256007
317,889.1825246252091
318,888.6747828922257
319,888.1669408393357
320,887.6598557909331
321,887.1543721063673
322,886.6513192423483
323,886.151509873439
324,885.6557380891287
325,885.1647776856995
326,884.6793805711116
327,884.200275300898
328,883.7281657618518
329,883.2637300177665
330,882.807619327879
331,882.3604573446847
332,881.9228394942621
333,881.4953325394825
334,881.0784743244161
335,880.6727736964023
336,880.2787106002299
337,879.8967363367589
338,879.527273976576
339,879.1707189179601
340,878.8274395771152
341,878.4977781971276
342,878.1820517604872
343,877.8805529883953
344,877.5935514086482
345,877.3212944731777
346,877.0640087066076
347,876.8219008679584
348,876.5951591080772
349,876.3839541054357
350,876.1884401632548
351,876.0087562519465
352,875.8450269826204
353,875.6973634994631
354,875.5658642807673
355,875.45061584003
356,875.3516933200389
357,875.269160974671
358,875.2030725352911
359,875.1534714604538
360,875.1203910684621
361,875.1038545525635
362,875.1038748790945
363,875.120454569972
364,875.1535853719599
365,875.2032478156466
366,875.2694106674811
367,875.3520302793729
368,875.4510498423324
369,875.5663985527111
370,875.6979907012096
371,875.8457246958791
372,876.009482030942
373,876.1891262134586
374,876.3845016598268
375,876.5954325738159
376,876.8217218171557
377,877.0631497826928
378,877.3194732792862
379,877.5904244374615
380,877.8757096453742
381,878.1750085253217
382,878.4879729615208
383,878.8142261902867
384,879.1533619645531
385,879.5049438058975
386,879.8685043584754
387,880.2435448601093
388,880.6295347461314
389,881.0259114015863
390,881.4320800772382
391,881.8474139846296
392,882.2712545850266
393,882.7029120859771
394,883.141666157007
395,883.5867668727813
396,884.0374358883632
397,884.4928678472978
398,884.9522320192929
399,885.4146741602616
400,885.8793185836432
401,886.3452704286233
402,886.8116181084606
403,887.2774359204498
404,887.7417867977289
405,888.20372518225
406,888.6622999981572
407,889.1165577056314
408,889.5655454162037
409,890.0083140506687
410,890.443921519662
411,890.8714359053992
412,891.2899386221806
413,891.6985275339495
414,892.0963200095421
415,892.4824558996661
416,892.8561004230831
417,893.216446952086
418,893.56271968851
419,893.8941762210357
420,894.2101099528187
421,894.5098523864203
422,894.7927752515377
423,895.0582924606908
424,895.3058618789339
425,895.5349868957787
426,895.7452177905652
427,895.9361528857755
428,896.1074394854251
429,896.2587745973378
430,896.3899054390747
431,896.5006297280105
432,896.5907957569362
433,896.6603022577141
434,896.7090980567598
435,896.7371815274819
436,896.7445998465286
437,896.731448062955
438,896.6978679917969
439,896.6440469452133
440,896.5702163148978
441,896.4766500190314
442,896.3636628262519
443,896.2316085685615
444,896.0808782551841
445,895.9118981000346
446,895.7251274760878
447,895.5210568099557
448,895.3002054291617
449,895.063119373261
450,894.8103691787181
451,894.5425476466914
452,894.2602676024816
453,893.9641596550251
454,893.6548699641261
455,893.3330580222095
456,892.9993944567095
457,892.6545588590294
458,892.2992376457822
459,891.9341219569966
460,891.5599055942549
461,891.1772830002717
462,890.7869472809206
463,890.3895882707811
464,889.9858906429729
465,889.5765320630502
466,889.1621813855736
467,888.74349689118
468,888.3211245614896
469,887.8956963889294
470,887.4678287190233
471,887.0381206243487
472,886.6071523117033
473,886.175483566032
474,885.7436522357049
475,885.3121727637838
476,884.8815347693358
477,884.4522016822581
478,884.0246094350557
479,883.5991652160035
480,883.1762462902941
481,882.7561988985935
482,882.3393372448719
483,881.9259425868742
484,881.5162624432157
485,881.1105099307426
486,880.7088632441664
487,880.3114652873444
488,879.9184234628095
489,879.529809623943
490,879.1456601926961
491,878.7659764449133
492,878.390724964832
493,878.0198382698294
494,877.6532156057885
495,877.2907239127558
496,876.9321989598175
497,876.5774466467641
498,876.2262444679113
499,875.8783431310856
500,875.533468323085
501,875.1913226119809
502,874.8515874759078
503,874.5139254470472
504,874.1779823579333
505,873.8433896746284
506,873.5097668979842
507,873.1767240110224
508,872.8438639480364
509,872.5107850592937
510,872.1770835440159
511,871.8423558235622
512,871.506200826587
513,871.1682221588228
514,870.8280301323869
515,870.4852436329681
516,870.1394918072613
517,869.7904155570095
518,869.4376688299259
519,869.0809197018608
520,868.7198512489471
521,868.3541622126636
522,867.983567464184
523,867.6077982765368
524,867.2266024143341
525,866.8397440523001
526,866.4470035365906
527,866.0481770066301
528,865.6430758984242
529,865.231526351846
530,864.8133685439984
531,864.3884559685873
532,863.9566546776849
533,863.5178424982206
534,863.0719082324633
535,862.6187508507413
536,862.1582786855291
537,861.6904086375738
538,861.2150654059299
539,860.7321807544738
540,860.2416928277233
541,859.7435455283683
542,859.2376879677045
543,858.7240739984547
544,858.2026618376223
545,857.6734137848858
546,857.1362960391106
547,856.5912786118932
548,856.0383353334325
549,855.4774439429859
550,854.9085862537762
551,854.3317483803951
552,853.7469210157651
553,853.1540997446772
554,852.5532853813935
555,851.9444843193062
556,851.3277088811894
557,850.7029776593715
558,850.0703158361307
559,849.4297554756444
560,848.7813357801722
561,848.1251033052075
562,847.461112131124
563,846.7894239919774
564,846.1101083650866
565,845.4232425271628
566,844.7289115836231
567,844.0272084773658
568,843.318233982247
569,842.6020966852585
570,841.8789129602135
571,841.1488069348802
572,840.41191045317
573,839.6683630341184
574,838.9183118295613
575,838.161911582166
576,837.3993245848479
577,836.630720641757
578,835.8562770300028
579,835.076178460264
580,834.2906170338968
581,833.4997921945148
582,832.703910672868
583,831.9031864243276
584,831.0978405578688
585,830.2881012544857
586,829.4742036723347
587,828.6563898360768
588,827.8349085085958
589,827.0100150439083
590,826.1819712204262
591,825.3510450544059
592,824.5175105948299
593,823.6816477027063
594,822.843741818962
595,822.0040837254019
596,821.1629693026435
597,820.3206992875862
598,819.4775790310891
599,818.6339182550813
600,817.7900308082072
601,816.9462344200388
602,816.1028504544789
603,815.2602036622987
604,814.418621931044
605,813.578436028673
606,812.7399793359418
607,811.903587562106
608,811.0695984390504
609,810.2383513902868
610,809.4101871730129
611,808.5854474932287
612,807.7644745955294
613,806.947610830587
614,806.1351982045398
615,805.3275779153978
616,804.5250898820807
617,803.7280722720031
618,802.9368610331396
619,802.1517894357592
620,801.3731876273704
621,800.6013822027439
622,799.8366957901807
623,799.0794466556549
624,798.3299483276919
625,797.5885092476159
626,796.8554324517705
627,796.1310152937829
628,795.4155492155044
629,794.7093195751928
630,794.0126055410669
631,793.3256800573038
632,792.6488098873773
633,791.9822557366161
634,791.3262724530731
635,790.6811093041672
636,790.0470103259171
637,789.4242147410096
638,788.8129574406764
639,788.213469523714
640,787.6259788850517
641,787.0507108467034
642,786.4878888252184
643,785.9377350309703
644,785.4004711953867
645,784.8763193227959
646,784.3655024642454
647,783.8682455113835
648,783.3847760089781
649,782.9153249847058
650,782.4601277946792
651,782.0194249832231
652,781.5934631556348
653,781.1824958623445
654,780.7867844912279
655,780.4065991618904
656,780.0422196125083
657,779.6939360671121
658,779.3620500691378
659,779.0468752656056
660,778.7487381257552
661,778.4679785786292
662,778.2049505556216
663,777.9600224258537
664,777.7335773141886
665,777.5260132935292
666,777.3377434442768
667,777.1691957740596
668,777.0208129902959
669,776.8930521176547
670,776.7863839526726
671,776.7012923485264
672,776.6382733237995
673,776.5978339899377
674,776.5804912932488
675,776.5867705688757
676,776.617203906027
677,776.6723283257754
678,776.7526837750842
679,776.8588109435563
680,776.9912489126666
681,777.1505326505176
682,777.3371903678295
683,777.5517407525689
684,777.7946901016094
685,778.0665293688982
686,778.367731151245
687,778.6987466349102
688,779.0600025279208
689,779.451898003885
690,779.8748016830027
691,780.3290486754702
692,780.8149377119853
693,781.3327283855709
694,781.8826385281965
695,782.4648417445688
696,783.0794651241678
697,783.7265871511056
698,784.4062358292612
699,785.1183870371177
700,785.8629631232324
701,786.6398317499978
702,787.4488049906831
703,788.2896386825462
704,789.1620320370031
705,790.0656275065594
706,791.0000109076302
707,791.9647117985525
708,792.9592041129276
709,793.9829070494601
710,795.035186220077
711,796.1153550581188
712,797.2226764880083
713,798.3563648570639
714,799.5155881285817
715,800.6994703326666
716,801.9070942677613
717,803.1375044419451
718,804.3897102392209
719,805.6626892923795
720,806.9553910406115
721,808.2667404468266
722,809.5956418468455
723,810.9409829005331
724,812.3016386134336
725,813.6764753963212
726,815.0643551294148
727,816.4641391983804
728,817.8746924708782
729,819.2948871849312
730,820.7236067230591
731,822.159749248467
732,823.6022311812316
733,825.0499904932991
734,826.5019898016392
735,827.9572192397277
736,829.4146990887868
737,830.8734821516996
738,832.3326558543008
739,833.791344060928
740,835.2487085933012
741,836.7039504434865
742,838.15631067282
743,839.6050709898261
744,841.049554002184
745,842.4891231412038
746,843.9231822618754
747,845.3511749265093
748,846.772583384492
749,848.1869272642657
750,849.5937619966072
751,850.9926769913254
752,852.3832935929481
753,853.7652628440945
754,855.1382630868369
755,856.501997431937
756,857.856191124161
757,859.2005888301529
758,860.5349518741125
759,861.8590554454491
760,863.1726858012732
761,864.4756374851821
762,865.7677105826065
763,867.0487080319883
764,868.3184330100306
765,869.5766864080247
766,870.8232644148317
767,872.0579562206213
768,873.2805418542343
769,874.4907901659471
770,875.6884569659998
771,876.8732833271447
772,878.044994056971
773,879.203296343567
774,880.34787857696
775,881.4784093489669
776,882.5945366354241
777,883.6958871666612
778,884.7820659938703
779,885.8526562600586
780,886.9072191840554
781,887.9452942644406
782,888.966399707638
783,889.9700330814817
784,890.9556721930861
785,891.9227761883409
786,892.870786869583
787,893.7991302272543
788,894.707218180234
789,895.5944505183955
790,896.4602170401374
791,897.3038998767801
792,898.1248759939591
793,898.9225198572109
794,899.6962062455725
795,900.4453131943918
796,901.1692250473295
797,901.8673355974917
798,902.5390512980835
799,903.1837945234959
800,903.8010068619935
801,904.3901524210264
802,904.9507211260119
803,905.482231993622
804,905.9842363608735
805,906.456321051107
806,906.8981114573758
807,907.3092745234228
808,907.6895216025712
809,908.0386111752699
810,908.3563514065337
811,908.6426025253805
812,908.8972790098366
813,909.1203515627118
814,909.3118488643773
815,909.4718590891721
816,909.600531172466
817,909.6980758162558
818,909.7647662223189
819,909.8009385430345
820,909.8069920406734
821,909.783388946347
822,909.7306540102373
823,909.6493737354267
824,909.5401952886556
825,909.4038250828963
826,909.2410270289735
827,909.0526204564815
828,908.8394777077187
829,908.6025214121834
830,908.3427214532308
831,908.0610916424104
832,907.7586861206635
833,907.4365955092932
834,907.0959428375222
835,906.7378792770575
836,906.3635797169339
837,905.9742382139876
838,905.5710633555531
839,905.1552735711006
840,904.7280924282915
841,904.2907439466336
842,903.8444479593762
843,903.3904155525045
844,902.9298446091705
845,902.4639154883287
846,901.9937868669201
847,901.5205917751077
848,901.0454338536624
849,900.5693838615769
850,900.0934764599924
851,899.6187072952813
852,899.1460303997812
853,898.6763559239155
854,898.2105482093209
855,897.7494242099801
856,897.2937522668927
857,896.8442512403348
858,896.401590001315
859,895.9663872805833
860,895.5392118700493
861,895.1205831680353
862,894.7109720564034
863,894.3108020943873
864,893.920451011188
865,893.5402524774087
866,893.1704981343424
867,892.8114398596576
868,892.4632922474616
869,892.126235279368
870,891.8004171608703
871,891.4859572947065
872,891.1829493609171
873,890.8914644722984
874,890.611554373385
875,890.343254650487
876,890.0865879198955
877,889.8415669617635
878,889.6081977685672
879,889.3864824792406
880,889.1764221728292
881,888.9780194985075
882,888.7912811212336
883,888.6162199633426
884,888.4528572224258
885,888.3012241463788
886,888.1613635485526
887,888.0333310491594
888,887.9171960325497
889,887.8130423135077
890,887.7209685094999
891,887.6410881196095
892,887.5735293142566
893,887.5184344428915
894,887.475959270259
895,887.4462719557229
896,887.4295517938317
897,887.4259877368767
898,887.4357767213028
899,887.4591218200906
900,887.4962302437366
901,887.5473112140694
902,887.6125737379164
903,887.6922243107867
904,887.7864645829012
905,887.8954890200941
906,888.0194825904848
907,888.1586185051601
908,888.3130560379054
909,888.4829384453403
910,888.6683910050773
911,888.8695191863258
912,889.0864069649235
913,889.3191152925853
914,889.56768072769
915,889.8321142322083
916,890.1124001368903
917,890.4084952750796
