acceleration,velocity,displacement
0.019186096937526414,0.0,0.0
0.018601652231877392,9.446937292350952e-06,2.361734323087738e-09
0.018018029707766763,1.860185777726199e-05,9.373933090490973e-09
0.017436044667923877,2.746537637118465e-05,2.0890741627602635e-08
0.01685649880110702,3.6038512238442373e-05,3.676671378000939e-08
0.016280173719701432,4.432268036864449e-05,5.685701193178111e-08
0.01570782488165779,5.231968001898429e-05,8.101760202868831e-08
0.015140175996174943,6.0031680238442473e-05,1.0910544209304499e-07
0.014577914000081843,6.746120273750667e-05,1.4097866283703227e-07
0.01402168467202924,7.461110240553445e-05,1.7649673912279254e-07
0.013472088926050039,8.148454580505426e-05,2.155206511754397e-07
0.012929679801993315,8.80849879870651e-05,2.5791303462346956e-07
0.012394960150322496,9.441614797514406e-05,3.035383186140219e-07
0.011868380986485454,0.00010048198325934604,3.522628514226444e-07
0.011350340461590338,0.00010628666362136499,4.039550131428222e-07
0.010841183371297998,0.00011183454457958707,4.584853151930602e-07
0.010341201119489267,0.00011713014070228389,5.15726486513528e-07
0.009850632068783872,0.00012217809899935217,5.75553546438937e-07
0.0093696622309752,0.00012698317257429193,6.37843864332348e-07
0.008898426262720674,0.0001315501946977159,7.0247720615035e-07
0.008437008736406133,0.0001358840534474976,7.693357681866534e-07
0.007985445661592714,0.0001399896670469973,8.383041983102771e-07
0.007543726239958963,0.00014387196002238524,9.092696050776228e-07
0.007111794836414564,0.0001475358402914786,9.821215551560887e-07
0.006689553135745448,0.00015098617728451862,1.056752059550088e-06
0.006276862436844289,0.00015422778117766606,1.1330555491656341e-06
0.005873546027944435,0.00015726538329386325,1.2109288402835165e-06
0.005479391587452352,0.00016010361769771243,1.2902710905314104e-06
0.005094153557959179,0.0001627470039840653,1.3709837459518549e-06
0.0047175554441723395,0.00016519993123459818,1.4529704797565208e-06
0.0043492919982855245,0.00016746664309521265,1.5361371233389736e-06
0.003989031284910486,0.00016955122391601164,1.6203915900917796e-06
0.0036364166534730235,0.0001714575859006075,1.7056437925459344e-06
0.0032910686701380135,0.00017318945723151027,1.791805553328964e-06
0.002952587065167069,0.00017475037116533655,1.8787905104281756e-06
0.002620552743862064,0.00017614365611759382,1.9665140172489083e-06
0.0022945299046189986,0.00017737242677971408,2.0548930379732354e-06
0.0019740683125903046,0.0001784395763340164,2.143846038751668e-06
0.0016587057860297301,0.0001793477698586714,2.23329287529984e-06
0.0013479709512201358,0.00018009943904298385,2.323154677525254e-06
0.0010413863020756731,0.0001806967783563078,2.413353731875077e-06
0.0007384715683671652,0.0001811417428239185,2.5038133621701334e-06
0.00043874736904290953,0.00018143604755827103,2.5944578097656806e-06
0.00014173911342820676,0.0001815811691788888,2.6852121139499707e-06
-0.0001530188941582575,0.0001815783492337063,2.7760019935531194e-06
-0.00044597920332225925,0.00018142859970933617,2.8667537307888802e-06
-0.0007375768933866642,0.00018113271068515894,2.957394058387504e-06
-0.001028225258584158,0.00018069126014716623,3.0478500510955854e-06
-0.001318311578519558,0.0001801046259378903,3.1380490226168496e-06
-0.0016081930288678586,0.00017937299978604344,3.227918429047833e-06
-0.0018981927617905893,0.00017849640333837883,3.3173857798289386e-06
-0.002188596167151147,0.0001774747061061434,3.4063785571900693e-06
-0.0024796473185556326,0.0001763076452347167,3.494824145025284e-06
-0.0027715456085322925,0.00017499484700294474,3.5826497680846994e-06
-0.0030644425811633077,0.00017353584995552084,3.669782442324316e-06
-0.0033584389797953204,0.00017193012956528118,3.7561489372045164e-06
-0.003653582040601661,0.00017017712431018195,3.841675750673382e-06
-0.003949863072349035,0.00016827626303194426,3.926289097508914e-06
-0.004247215364343702,0.00016622699342277108,4.009914911622593e-06
-0.0045455124608262225,0.0001640288114664786,4.092478862844905e-06
-0.004844566834154945,0.00016168129164273332,4.173906388622208e-06
-0.005144128979070681,0.0001591841176894269,4.2541227409552486e-06
-0.005443886932775018,0.00015653711371146548,4.333053048805472e-06
-0.005743466203464608,0.00015374027542740558,4.41062239609019e-06
-0.006042430074043841,0.00015079380135802847,4.486755915286548e-06
-0.006340280247506797,0.00014769812377764081,4.5613788965704654e-06
-0.006636457814666941,0.0001444539392620974,4.6344169123304e-06
-0.006930344544015978,0.00014106223867242667,4.705795956814031e-06
-0.0072212645094796475,0.00013752433640905278,4.775442600584401e-06
-0.007508486080453071,0.00013384189876156958,4.843284159377056e-06
-0.007791224300068742,0.00013001697116643912,4.9092488768590585e-06
-0.00806864367747702,0.00012605200417205268,4.973266120693681e-06
-0.008339861426378919,0.0001219498778960887,5.035266591210717e-06
-0.00860395119822997,0.00011771392473993648,5.095182541869723e-06
-0.008859947374622276,0.00011334795009672342,5.152948010578888e-06
-0.009106849982461383,0.00010885625075745251,5.208499060792432e-06
-0.009343630270071077,0.0001042436306943194,5.261774031155375e-06
-0.009569236942064636,9.951541389128547e-05,5.312713792301777e-06
-0.009782603012903462,9.467745390254344e-05,5.361262009250234e-06
-0.009982653214083835,8.973613984579661e-05,5.4073654076873195e-06
-0.010168311877372634,8.469839857293249e-05,5.4509740422920015e-06
-0.010338511209259597,7.957169280127444e-05,5.492041565135553e-06
-0.010492199863160962,7.43640150331693e-05,5.530525492094164e-06
-0.010628351704367312,6.908387714128723e-05,5.566387465137779e-06
-0.010745974649649862,6.374029555278294e-05,5.599593508311296e-06
-0.010844119450016038,5.8342772027866466e-05,5.630114275206458e-06
-0.01092188827344169,5.2901270097002036e-05,5.657925285737676e-06
-0.010978442939404491,4.742618729379049e-05,5.683007150085374e-06
-0.011013012663885033,4.192832339296811e-05,5.705345777757063e-06
-0.011024901192512938,3.641884492886861e-05,5.724932569837522e-06
-0.011013493225363576,3.090924632439949e-05,5.741764592650839e-06
-0.01097826006149611,2.5411308002684566e-05,5.75584473123261e-06
-0.010918764408380043,1.9937051885215527e-05,5.767181821204585e-06
-0.010834664314107298,1.4498694704593692e-05,5.775790757852037e-06
-0.01072571619787287,9.10859957659865e-06,5.781692581422335e-06
-0.010591776977011079,3.779226282877663e-06,5.784914537887204e-06
-0.010432805305671948,-1.4769192877930934e-06,5.7854901146359755e-06
-0.010248861944758802,-6.647336100400781e-06,5.783459050788927e-06
-0.01004010928276912,-1.1719578907282762e-05,5.7788673220370065e-06
-0.009806810034094088,-1.6681308736498564e-05,5.771767100126061e-06
-0.009549325158089133,-2.152034253454437e-05,5.762216687308301e-06
-0.009268111062833298,-2.6224701589774976e-05,5.750280426277221e-06
-0.00896371617365634,-3.0782658398897384e-05,5.736028586280053e-06
-0.00863677695224072,-3.518278168037165e-05,5.719537226260236e-06
-0.008288013447834544,-3.941397928039047e-05,5.700888036020045e-06
-0.007918224453754098,-4.3465538755787634e-05,5.680168156511001e-06
-0.007528282335833187,-4.7327165453184454e-05,5.657469980458758e-06
-0.007119127597200077,-5.098901793644277e-05,5.6328909346113505e-06
-0.006691763245679822,-5.444174064716275e-05,5.606533244965449e-06
-0.006247249033717201,-5.7676493717012004e-05,5.5785036863744056e-06
-0.005786695642026952,-6.068497988594804e-05,5.5489133179736655e-06
-0.00531125887513095,-6.345946851523751e-05,5.517877205873369e-06
-0.0048221339311992385,-6.599281671682006e-05,5.485514134565355e-06
-0.004320549802179483,-6.827848765016474e-05,5.451946308473608e-06
-0.003807763853991958,-7.03105660642076e-05,5.417299045045015e-06
-0.0032850566306351085,-7.208377118536437e-05,5.3817004607326226e-06
-0.0027537269183854343,-7.35934670726195e-05,5.345281151168127e-06
-0.002215087092439204,-7.483567057532565e-05,5.3081738667561405e-06
-0.0016704587470467483,-7.580705703519714e-05,5.2705131848535095e-06
-0.001121168588067627,-7.650496386897573e-05,5.232435179627467e-06
-0.0005685445526096685,-7.692739215414506e-05,5.194077090621686e-06
-1.3912115857302025e-05,-7.70730063212618e-05,5.1555769910028345e-06
0.0005414092519073284,-7.694113203724929e-05,5.117073456413206e-06
0.0010961095054019248,-7.653175234792197e-05,5.078705235316914e-06
0.001648891334753767,-7.584550213788305e-05,5.040610921695462e-06
0.0021984733673905575,-7.488366096234697e-05,5.0029286309204045e-06
0.0027435932570442283,-7.364814430623827e-05,4.965795679603259e-06
0.0032830106562281272,-7.214149332792018e-05,4.929348270194719e-06
0.0038155100739636584,-7.036686314537223e-05,4.8937211810763955e-06
0.004339903626027457,-6.832800972037445e-05,4.859047462859959e-06
0.004855033684964263,-6.602927539262652e-05,4.825458141581709e-06
0.005359775431994524,-6.347557311338682e-05,4.7930819294552056e-06
0.00585303930726943,-6.0672369428570835e-05,4.7620449438197165e-06
0.006333773349864978,-5.7625666264287236e-05,4.732470434896502e-06
0.006800965410230281,-5.434198157426342e-05,4.7044785229368644e-06
0.007253645202413192,-5.082832892110255e-05,4.678185945313023e-06
0.007690886147835492,-4.709219608354038e-05,4.653705814061862e-06
0.008111806962338116,-4.314152280599697e-05,4.631147384339478e-06
0.008515572962957282,-3.8984677824673124e-05,4.61061583418181e-06
0.008901397110540903,-3.4630435306298574e-05,4.592212055899067e-06
0.00926854083621447,-3.008795081960973e-05,4.57603245936759e-06
0.009616314706952329,-2.5366736933818033e-05,4.562168787429234e-06
0.00994407896837612,-2.047663851498592e-05,4.550707943567033e-06
0.010251243977515671,-1.542780777851297e-05,4.541731831993658e-06
0.010537270521740584,-1.0230679153698905e-05,4.535317210260605e-06
0.010801670016507234,-4.8959440191369505e-06,4.531535554467396e-06
0.011044004576818006,5.654746291943594e-07,4.53045293711991e-06
0.011263886959784503,6.142447513344987e-06,4.532129917655545e-06
0.01146098037786243,1.182366434775672e-05,4.536621445620821e-06
0.011634998183103042,1.759765898799809e-05,4.543976776454759e-06
0.011785703422246259,2.3452834389335414e-05,4.554239399799092e-06
0.011912908265179547,2.9377487311191867e-05,4.567446980224224e-06
0.012016473319527016,3.535983270736851e-05,4.583631310228864e-06
0.012096306858825885,4.1388027751956736e-05,4.602818275343695e-06
0.012152364005909185,4.74501954681405e-05,4.625027831148719e-06
0.012184645924339918,5.3534447950702776e-05,4.65027399200343e-06
0.012193199075106773,5.962890920056445e-05,4.678564831291247e-06
0.012178114586644041,6.572173761600215e-05,4.709902492995389e-06
0.012139527763774218,7.180114820360671e-05,4.744283214450291e-06
0.012077617738474601,7.785543457916891e-05,4.781697360145985e-06
0.011992607257764626,8.387299082822871e-05,4.822129466497835e-06
0.011884762612989753,8.98423332959173e-05,4.8655582975288716e-06
0.011754393728813213,9.575212238136803e-05,4.911956911448193e-06
0.01160185443743315,0.00010159118442292963,4.9612927381492675e-06
0.011427542957398515,0.00010734853377163754,5.0135276676979094e-06
0.011231902575743045,0.00011301339515492293,5.06861814992955e-06
0.011015422504142584,0.00011857522642489433,5.126515305324504e-06
0.010778638857331997,0.00012402374176526297,5.187165047372043e-06
0.01052213569120773,0.0001293489354023979,5.250508216663959e-06
0.01024654603370786,0.00013454110583362679,5.316480726972965e-06
0.009952552837747064,0.0001395908805514905,5.385013723569244e-06
0.009640889783850345,0.00014448924120688986,5.456033754008839e-06
0.009312341865774862,0.00014922754911929616,5.5294629515903855e-06
0.00896774570413271,0.00015379757101177305,5.605219231623153e-06
0.008607989542592676,0.0001581915048234544,5.68321650058196e-06
0.008234012882349656,0.00016240200542968998,5.763364878145246e-06
0.007846805703585388,0.00016642221007617374,5.845570932021712e-06
0.007447407214014653,0.00017024576330557374,5.929737925367149e-06
0.007036904063953821,0.00017386684112506587,6.01576607647481e-06
0.006616427979726075,0.00017728017413598583,6.103552830290073e-06
0.006187152788851209,0.00018048106932813015,6.192993141156102e-06
0.005750290834089516,0.00018346543023386533,6.2839797660466e-06
0.005307088796427141,0.0001862297751414945,6.37640356739044e-06
0.0048588229710761635,0.00018877125308337033,6.470153824446656e-06
0.004406794065486123,0.0001910876573425109,6.565118552053126e-06
0.003952321611486683,0.0001931774362617541,6.661184825454193e-06
0.0034967381030706715,0.00019503970119039344,6.7582391098172295e-06
0.003041382985771759,0.00019667423146260406,6.856167592980479e-06
0.0025875966267254517,0.00019808147636572835,6.954856519937562e-06
0.0021367143776204597,0.00019926255411681481,7.054192527558198e-06
0.0016900608102049185,0.00020021924791377115,7.154062978065844e-06
0.001248944174972997,0.00020095399916006564,7.254356289834303e-06
0.0008146511218498114,0.00020146989798427135,7.354962264120387e-06
0.0003884417186018345,0.00020177067119438427,7.455772406415051e-06
-2.84552100741779e-05,0.00020186066782151618,7.556680241169026e-06
-0.00043484642405792085,0.00020174484241298316,7.657581618727651e-06
-0.0008295783127120065,0.00020142873622879068,7.758375013388094e-06
-0.0012115406770113698,0.00020091845648135984,7.858961811565632e-06
-0.0015796702903638912,0.00020022065373951603,7.959246589120852e-06
-0.0019329542889809034,0.00019934249759467982,8.0591373769544e-06
-0.0022704334458959305,0.00019829165066096062,8.15854591401831e-06
-0.0025912053698943236,0.00019707624095701304,8.257387886922803e-06
-0.002894427642616901,0.00019570483270388525,8.355583155338028e-06
-0.0031793208734815044,0.00019418639557486066,8.453055962407714e-06
-0.0034451716209404747,0.00019253027245125516,8.549735129414243e-06
-0.0036913351035877157,0.00019074614577012312,8.645554233969589e-06
-0.003917237609149446,0.00018884400259193884,8.740451771060104e-06
-0.00412237850845532,0.00018683409856253764,8.834371296348722e-06
-0.0043063317972575985,0.00018472692098610942,8.927261551235884e-06
-0.00446874711798957,0.00018253315125729762,9.019076569296737e-06
-0.00460935024862268,0.00018026362691564457,9.109775763839972e-06
-0.004727943079571035,0.00017792930358359612,9.199323996464782e-06
-0.004824403129879177,0.00017554121703123357,9.287691626618489e-06
-0.00489868267922965,0.00017311044557895636,9.374854542271036e-06
-0.004950807603086384,0.00017064807300837734,9.46079417191787e-06
-0.004980875982127173,0.00016816515211207395,9.545497478197984e-06
-0.004989056515405681,0.00016567266898769075,9.628956933472926e-06
-0.004975586718729383,0.000163181508179157,9.711170477764637e-06
-0.0049407708579743605,0.00016070241878498107,9.792141459505671e-06
-0.004884977562217012,0.00015824598167993323,9.8718785596219e-06
-0.004808637079657013,0.00015582257801946472,9.950395699546749e-06
-0.00471223816827036,0.00015344235920748288,1.0027711933853486e-05
-0.004596324641150332,0.0001511152185051277,1.0103851328281638e-05
-0.004461491608004619,0.00014885076444283896,1.017884282401863e-05
-0.004308381470418672,0.00014665829617323313,1.0252720089172648e-05
-0.004137679743233348,0.00014454678086982012,1.0325521358433412e-05
-0.00395011078876518,0.0001425248332368205,1.0397289261960071e-05
-0.003746433558560004,0.0001406006971499892,1.0468070644556774e-05
-0.0035274374289808535,0.00013878222940310396,1.0537916376195047e-05
-0.003293938191078308,0.00013707688549808916,1.0606881154920345e-05
-0.003046774224468739,0.00013549170739420239,1.0675023303143419e-05
-0.0027868028628396163,0.0001340333131223753,1.0742404558272563e-05
-0.002514896947971711,0.00013270788816967247,1.0809089858595575e-05
-0.0022319415668576818,0.0001315211785409651,1.0875147125273234e-05
-0.0019388309693168728,0.00013047848540692148,1.0940647041260207e-05
-0.001636465665303281,0.00012958466124826643,1.1005662827924004e-05
-0.0013257496944623904,0.00012884410740832502,1.1070270020088151e-05
-0.0010075880456233595,0.00012826077297330358,1.1134546240183559e-05
-0.0006828841886310129,0.00012783815491474,1.119857097215557e-05
-0.00035253767460624076,0.00012757929944893066,1.1262425335746487e-05
-1.7441770089507846e-05,0.00012748680458775672,1.132619186175566e-05
0.0003215188815009406,0.0001275628238656096,1.1389954268869002e-05
0.0006634705357284129,0.00012780907121991692,1.1453797242640383e-05
0.0010075524857889625,0.00012822682697529627,1.1517806217189187e-05
0.0013529189763502106,0.00012881694484083106,1.1582067160143219e-05
0.0016987408298791494,0.0001295798597923884,1.1646666361301524e-05
0.002044206774964359,0.00013051559669359928,1.171169022542302e-05
0.0023885245214684985,0.0001316237795177075,1.1777225069475848e-05
0.0027309216666052444,0.00013290364106472593,1.1843356924621455e-05
0.0030706465299196522,0.00013435403311385716,1.19101713431661e-05
0.003406969001751824,0.00013597343699677504,1.197775321069376e-05
0.0037391814552233116,0.0001377599746110188,1.2046186563595708e-05
0.004066599732140446,0.00013971141990785975,1.2115554412225427e-05
0.004388564185414855,0.00014182521088724857,1.2185938569924205e-05
0.004704440749664852,0.0001440984621210185,1.2257419488176271e-05
0.00501362201185569,0.00014652797781139864,1.2330076098159375e-05
0.005315528261444478,0.0001491102653797237,1.2403985658957156e-05
0.0056096085148844834,0.00015184154957380592,1.2479223612695538e-05
0.005895341527976978,0.0001547177870845213,1.255586344686012e-05
0.006172236823186176,0.00015773468167231208,1.2633976564049328e-05
0.006439835763169458,0.00016088769981890098,1.2713632159422132e-05
0.006697712697954146,0.00016417208693418189,1.2794897106110403e-05
0.006945476202054758,0.00016758288415918412,1.2877835848883744e-05
0.007182770398595462,0.00017111494580934668,1.2962510306375877e-05
0.007409276343055,0.0001747629574947593,1.3048979782201903e-05
0.007624713418231525,0.00017852145493508093,1.3137300885309364e-05
0.00782884068148159,0.0001823848434600092,1.3227527459908137e-05
0.008021458106336697,0.00018634741815696376,1.331971052531238e-05
0.008202407672223851,0.0001904033846016039,1.341389822600202e-05
0.008371574274455692,0.00019454688008827377,1.351013579217449e-05
0.008528886441575196,0.0001987719952672815,1.3608465511013379e-05
0.008674316848804303,0.00020307279608987636,1.370892670885267e-05
0.008807882605415686,0.00020744334595343135,1.3811555744363496e-05
0.008929645279677191,0.00021187772792470455,1.391638601283303e-05
0.009039710618260565,0.000216370066899189,1.4023447961539004e-05
0.009138227923657094,0.00022091455153466842,1.4132769116147468e-05
0.009225389069099983,0.0002255054557828577,1.424437411797685e-05
0.009301427142360784,0.00023013715983572289,1.4358284771881496e-05
0.009366614709035955,0.00023480417029857206,1.4474520104415071e-05
0.009421261680426857,0.00023950113939593775,1.4593096431838698e-05
0.009465712775939524,0.00024422288301002935,1.471402743744019e-05
0.009500344589350939,0.000248964397351352,1.4837324257530535e-05
0.009525562293511338,0.0002537208740720675,1.496299557538639e-05
0.009541796039870256,0.00025848771365541293,1.509104772231826e-05
0.00954949712319428,0.00026326053694617906,1.5221484784968657e-05
0.009549133986431257,0.0002680351947235854,1.53543087178861e-05
0.009541188138621133,0.0002728077752548485,1.548951946038071e-05
0.009526150057134553,0.00027757460980378743,1.5627115056645368e-05
0.009504515149414139,0.0002823322761054246,1.5767091778122672e-05
0.009476779854851129,0.0002870775998564909,1.5909444247113152e-05
0.009443437967289171,0.000291807654312026,1.6054165560655282e-05
0.009404977250527682,0.0002965197581164802,1.620124741376241e-05
0.009361876406678727,0.00030121147153078183,1.6350680221174226e-05
0.009314602442543616,0.0003058805912430874,1.6502453236867693e-05
0.009263608459949332,0.0003105251439687106,1.6656554670670642e-05
0.009209331870514304,0.00031514337905132656,1.681297180142565e-05
0.009152193008202376,0.0003197337602710057,1.6971691086256236e-05
0.009092594090333013,0.00032429495704563955,1.7132698265585396e-05
0.009030918461899535,0.0003288258351836977,1.729597846364273e-05
0.008967530048886613,0.00033332544731139424,1.7461516284266503e-05
