frame_number,force
0,824.8116469886922
1,824.8054902390543
2,824.8001840876456
3,824.7957092770969
4,824.7920410854059
5,824.7891496779029
6,824.7870005334788
7,824.7855549379751
8,824.7847705364067
9,824.7846019348365
10,824.7850013422393
11,824.7859192426139
12,824.7873050875043
13,824.7891079985856
14,824.7912774693935
15,824.7937640552306
16,824.7965200410181
17,824.7995000781297
18,824.8026617824659
19,824.8059662867399
20,824.8093787403694
21,824.8128687514427
22,824.8164107673914
23,824.8199843935478
24,824.8235746506233
25,824.8271721729479
26,824.8307733493671
27,824.8343804084767
28,824.8380014496955
29,824.8416504215434
30,824.8453470482278
31,824.8491167051517
32,824.8529902434152
33,824.8570037630496
34,824.861198334673
35,824.8656196695806
36,824.8703177389872
37,824.8753463440357
38,824.8807626389585
39,824.8866266101974
40,824.8930005146714
41,824.8999482811314
42,824.9075348797983
43,824.9158256668261
44,824.924885710828
45,824.9347791083059
46,824.9455682937411
47,824.9573133494115
48,824.9700713205278
49,824.9838955429651
50,824.9988349929412
51,825.0149336695495
52,825.0322300215023
53,825.0507564285649
54,825.0705387461875
55,825.0915959194746
56,825.1139396704839
57,825.1375742609389
58,825.1624963306514
59,825.1886948106442
60,825.2161509094011
61,825.2448381703753
62,825.2747225981815
63,825.3057628498588
64,825.337910486818
65,825.3711102829052
66,825.4053005841513
67,825.4404137159061
68,825.4763764331482
69,825.5131104103183
70,825.5505327684925
71,825.588556639701
72,825.6270917694535
73,825.6660451579666
74,825.7053217382778
75,825.7448250863877
76,825.7844581559013
77,825.8241240279451
78,825.8637266665392
79,825.9031716700055
80,825.9423670099255
81,825.9812237499049
82,826.0196567365103
83,826.0575852545226
84,826.094933638695
85,826.1316318347441
86,826.1676159031913
87,826.2028284608119
88,826.2372190555782
89,826.2707444717294
90,826.3033689618829
91,826.3350644030543
92,826.3658103733526
93,826.3955941461774
94,826.4244105991052
95,826.452262035512
96,826.4791579187005
97,826.5051145211888
98,826.5301544955048
99,826.5543063761385
100,826.5776040239717
101,826.6000860242949
102,826.6217950485902
103,826.6427771900595
104,826.6630812839347
105,826.682758225518
106,826.7018603007393
107,826.7204405447262
108,826.7385521426518
109,826.7562478841302
110,826.7735796788509
111,826.7905981381597
112,826.807352225181
113,826.8238889743642
114,826.8402532794669
115,826.8564877468509
116,826.8726326089778
117,826.888725691765
118,826.9048024292109
119,826.9208959190128
120,826.9370370130175
121,826.9532544356626
122,826.9695749222698
123,826.9860233681596
124,827.0026229799188
125,827.0193954214993
126,827.0363609490429
127,827.0535385286088
128,827.0709459307005
129,827.0885997955457
130,827.1065156641216
131,827.124707971967
132,827.1431900054572
133,827.1619738228216
134,827.181070144246
135,827.2004882168688
136,827.2202356617252
137,827.2403183109511
138,827.2607400446674
139,827.2815026375106
140,827.3026056245767
141,827.324046195594
142,827.3458191247546
143,827.3679167420585
144,827.3903289500519
145,827.4130432870983
146,827.4360450350184
147,827.4593173662196
148,827.4828415242558
149,827.5065970319127
150,827.5305619214878
151,827.5547129824096
152,827.5790260215047
153,827.6034761309699
154,827.6280379584927
155,827.6526859731752
156,827.6773947200588
157,827.7021390554406
158,827.7268943554121
159,827.7516366913294
160,827.7763429676016
161,827.8009910185506
162,827.825559662138
163,827.8500287094726
164,827.8743789302379
165,827.8985919753593
166,827.9226502593606
167,827.946536805973
168,827.9702350613619
169,827.9937286797398
170,828.0170012865786
171,828.040036225445
172,828.0628162954922
173,828.0853234874915
174,828.1075387265732
175,828.1294416294393
176,828.1510102828092
177,828.172221048513
178,828.1930483989764
179,828.2134647851597
180,828.2334405376367
181,828.2529438006403
182,828.2719404984958
183,828.2903943340588
184,828.3082668196265
185,828.3255173416568
186,828.3421032602871
187,828.3579800429011
188,828.3731014291285
189,828.3874196239026
190,828.4008855153764
191,828.4134489147879
192,828.4250588154474
193,828.4356636680703
194,828.4452116696541
195,828.4536510630586
196,828.4609304444994
197,828.4669990762709
198,828.4718072017805
199,828.4753063590928
200,828.477449687995
201,828.4781922247157
202,828.4774911782812
203,828.4753061831955
204,828.4715995246584
205,828.4663363346228
206,828.4594847589498
207,828.4510160970201
208,828.4409049152172
209,828.4291291351268
210,828.4156700968736
211,828.4005125983572
212,828.3836449123169
213,828.3650587845043
214,828.3447494170451
215,828.3227154411376
216,828.2989588828726
217,828.2734851256337
218,828.246302872428
219,828.2174241115562
220,828.1868640892012
221,828.1546412928062
222,828.1207774490767
223,828.0852975393539
224,828.0482298328807
225,828.0096059361406
226,827.9694608549628
227,827.9278330655702
228,827.8847645907646
229,827.8403010777951
230,827.7944918748758
231,827.7473901034416
232,827.6990527230796
233,827.649540586089
234,827.5989184790233
235,827.5472551490057
236,827.4946233126983
237,827.4410996455733
238,827.386764748824
239,827.3317030909518
240,827.276002920739
241,827.219756148004
242,827.1630581884674
243,827.1060077694963
244,827.0487066944657
245,826.9912595647578
246,826.9337734598827
247,826.8763575779058
248,826.8191228400686
249,826.7621814647509
250,826.7056465165994
251,826.6496314371248
252,826.5942495635039
253,826.5396136422341
254,826.4858353431054
255,826.4330247769133
256,826.3812900183319
257,826.3307366341628
258,826.2814672168819
259,826.233580923484
260,826.1871730194805
261,826.1423344273845
262,826.0991512785673
263,826.0577044676702
264,826.0180692102233
265,825.9803146062661
266,825.9445032144506
267,825.9106906415986
268,825.8789251525045
269,825.8492473049545
270,825.8216896158144
271,825.7962762650862
272,825.7730228454793
273,825.7519361651201
274,825.7330141104994
275,825.7162455756941
276,825.7016104627048
277,825.6890797566151
278,825.6786156779657
279,825.6701719130511
280,825.6636939213319
281,825.6591193184198
282,825.6563783328331
283,825.6553943338622
284,825.6560844260559
285,825.6583601037105
286,825.6621279572236
287,825.6672904223794
288,825.673746562816
289,825.6813928745478
290,825.690124100014
291,825.6998340388088
292,825.7104163432583
293,825.7217652883256
294,825.7337765061702
295,825.7463476763993
296,825.7593791644473
297,825.7727746027889
298,825.7864414122604
299,825.8002912628717
300,825.8142404746638
301,825.8282103595413
302,825.8421275052062
303,825.855924002772
304,825.8695376201753
305,825.8829119237041
306,825.895996349604
307,825.9087462269604
308,825.921122752288
309,825.933092915969
310,825.944629381153
311,825.9557103170558
312,825.9663191906087
313,825.9764445224973
314,825.9860796148656
315,825.9952222580207
316,826.0038744228333
317,826.0120419446014
318,826.0197342031377
319,826.0269638030067
320,826.0337462574315
321,826.0400996791601
322,826.0460444810655
323,826.0516030881988
324,826.0567996614891
325,826.0616598318131
326,826.0662104423234
327,826.0704792968759
328,826.0744949128953
329,826.0782862779796
330,826.0818826109163
331,826.0853131291123
332,826.0886068251485
333,826.0917922551379
334,826.0948973411955
335,826.0979491899715
336,826.1009739289541
337,826.1039965622352
338,826.1070408475636
339,826.1101291965381
340,826.1132825992704
341,826.1165205736484
342,826.1198611378993
343,826.123320804061
344,826.1269145895563
345,826.1306560442202
346,826.1345572906321
347,826.1386290762224
348,826.1428808359891
349,826.1473207643857
350,826.1519558940935
351,826.1567921784839
352,826.1618345740632
353,826.167087119284
354,826.1725530067515
355,826.1782346466814
356,826.1841337199238
357,826.1902512188568
358,826.1965874744855
359,826.2031421684565
360,826.2099143292075
361,826.2169023119378
362,826.2241037627366
363,826.2315155685
364,826.2391337964348
365,826.2469536295825
366,826.2549693065799
367,826.2631740735802
368,826.271560154135
369,826.2801187404435
370,826.2888400079959
371,826.2977131552573
372,826.3067264698761
373,826.3158674222016
374,826.3251227854581
375,826.3344787801614
376,826.3439212389462
377,826.3534357872957
378,826.3630080354376
379,826.3726237763588
380,826.3822691840619
381,826.3919310050497
382,826.4015967352098
383,826.4112547743792
384,826.4208945518914
385,826.4305066179828
386,826.4400826978545
387,826.4496157072333
388,826.4590997302846
389,826.4685299628908
390,826.4779026271635
391,826.4872148662437
392,826.4964646303969
393,826.5056505646604
394,826.5147719048753
395,826.5238283844329
396,826.5328201504057
397,826.5417476860897
398,826.5506117372772
399,826.5594132408532
400,826.5681532555022
401,826.5768328947594
402,826.5854532622591
403,826.5940153881918
404,826.6025201651529
405,826.6109682811594
406,826.6193601476356
407,826.6276958203327
408,826.635974911466
409,826.6441964921338
410,826.652358985364
411,826.6604600512443
412,826.6684964659761
413,826.6764639965179
414,826.6843572724374
415,826.6921696568636
416,826.6998931186085
417,826.7075181072388
418,826.7150334323363
419,826.7224261479633
420,826.7296814435383
421,826.7367825426
422,826.7437106111679
423,826.750444677964
424,826.7569615696564
425,826.7632358648999
426,826.7692398708186
427,826.7749436246677
428,826.7803149218656
429,826.7853193696391
430,826.7899204635811
431,826.7940796830152
432,826.7977566006706
433,826.8009090031604
434,826.8034930208481
435,826.8054632678777
436,826.8067729943191
437,826.8073742521984
438,826.8072180761992
439,826.8062546788597
440,826.804433659518
441,826.8017042260418
442,826.798015428553
443,826.7933164051934
444,826.7875566413994
445,826.7806862453999
446,826.7726562425609
447,826.7634188892944
448,826.7529280041681
449,826.7411393108371
450,826.7280107855194
451,826.7135030014031
452,826.6975794633041
453,826.6802069271941
454,826.6613556999803
455,826.6409999150223
456,826.6191177789409
457,826.5956917858304
458,826.5707088959687
459,826.5441606772185
460,826.5160434082104
461,826.4863581426297
462,826.4551107332261
463,826.4223118131376
464,826.3879767318889
465,826.3521254445866
466,826.3147823550617
467,826.2759761162603
468,826.2357393934193
469,826.194108596987
470,826.1511235927316
471,826.1068273963878
472,826.0612658602566
473,826.014487359923
474,825.9665424904946
475,825.9174837827462
476,825.8673654496674
477,825.8162431729927
478,825.7641739375932
479,825.7112159196255
480,825.6574284324388
481,825.6028719323209
482,825.5476080836911
483,825.491699880134
484,825.4352118142951
485,825.3782100871748
486,825.32076284627
487,825.2629404418898
488,825.2048156909556
489,825.146464137226
490,825.0879642963304
491,825.0293978737011
492,824.9708499438568
493,824.912409080643
494,824.8541674297738
495,824.7962207168096
496,824.7386681852157
497,824.6816124606828
498,824.6251593400088
499,824.5694175055079
500,824.5144981684347
501,824.4605146467167
502,824.4075818834593
503,824.3558159137209
504,824.3053332882291
505,824.2562504638375
506,824.2086831711142
507,824.1627457692273
508,824.118550597328
509,824.076207330277
510,824.0358223451905
511,823.9974981040106
512,823.9613325558923
513,823.9274185616835
514,823.89584334196
515,823.8666879507184
516,823.8400267785793
517,823.8159270912009
518,823.7944486097849
519,823.7756431410298
520,823.7595542636736
521,823.746217077638
522,823.7356580195334
523,823.7278947453601
524,823.7229360785655
525,823.7207820199877
526,823.7214238156103
527,823.7248440777395
528,823.7310169546353
529,823.7399083429518
530,823.751476137117
531,823.7656705102189
532,823.7824342218881
533,823.8017029496953
534,823.8234056415091
535,823.8474648870898
536,823.8737973080322
537,823.902313965936
538,823.9329207889991
539,823.9655190166876
540,824.0000056606116
541,824.0362739775829
542,824.074213948743
543,824.1137127573313
544,824.1546552574699
545,824.1969244272235
546,824.2404018007705
547,824.2849678763521
548,824.3305024983177
549,824.3768852128475
550,824.4239955979933
551,824.4717135700396
552,824.51991966974
553,824.568495332762
554,824.6173231479008
555,824.6662871050579
556,824.7152728341104
557,824.7641678362578
558,824.8128617106287
559,824.8612463800936
560,824.9092163209137
561,824.9566688009569
562,825.0035041309214
563,825.0496259325885
564,825.0949414273942
565,825.1393617470861
566,825.1828022655676
567,825.2251829477491
568,825.2664287083392
569,825.3064697719283
570,825.3452420255431
571,825.3826873556163
572,825.4187539624104
573,825.4533966459519
574,825.4865770586725
575,825.5182639216903
576,825.5484332038818
577,825.5770682646564
578,825.6041599617828
579,825.6297067247416
580,825.6537145924613
581,825.6761972127496
582,825.6971757999203
583,825.7166790472972
584,825.7347429923423
585,825.7514108338363
586,825.7667327024419
587,825.7807653874594
588,825.793572023321
589,825.8052217394596
590,825.8157892768189
591,825.8253545735402
592,825.8340023218311
593,825.8418214984065
594,825.8489048717694
595,825.8553484896744
596,825.8612511489991
597,825.8667138491636
598,825.8718392303329
599,825.8767309987248
600,825.881493342386
601,825.8862303410174
602,825.891045372993
603,825.8960405224062
604,825.9013159893922
605,825.906969507932
606,825.913095776396
607,825.9197859069988
608,825.9271269011072
609,825.935201157826
610,825.9440860233177
611,825.9538533878992
612,825.9645693371006
613,825.9762938611134
614,825.9890806240778
615,826.0029767909499
616,826.018022906359
617,826.0342528179583
618,826.0516936368568
619,826.0703657295696
620,826.090282738514
621,826.1114516301885
622,826.1338727710408
623,826.1575400306349
624,826.1824409105271
625,826.2085566960114
626,826.2358626272616
627,826.2643280868009
628,826.2939168014906
629,826.3245870583384
630,826.3562919334202
631,826.3889795323536
632,826.4225932403949
633,826.4570719811232
634,826.4923504844385
635,826.5283595664094
636,826.5650264247741
637,826.6022749542353
638,826.6400260849377
639,826.6781981458427
640,826.716707252674
641,826.7554677182608
642,826.7943924820618
643,826.833393555864
644,826.8723824838984
645,826.9112708169528
646,826.9499706002783
647,826.9883948738061
648,827.0264581810554
649,827.0640770810226
650,827.1011706556438
651,827.1376610042192
652,827.1734737158896
653,827.2085383123343
654,827.2427886547832
655,827.2761633109877
656,827.3086058783324
657,827.3400652593552
658,827.3704958866201
659,827.3998578955205
660,827.4281172454175
661,827.4552457906759
662,827.4812213035848
663,827.5060274513405
664,827.5296537295897
665,827.5520953556451
666,827.5733531253752
667,827.5934332385633
668,827.6123470978395
669,827.630111085915
670,827.6467463248933
671,827.6622784201999
672,827.6767371906524
673,827.6901563857832
674,827.7025733918066
675,827.7140289283567
676,827.7245667388705
677,827.7342332778369
678,827.7430773979205
679,827.7511500393713
680,827.7585039234796
681,827.7651932512598
682,827.771273408107
683,827.7768006751058
684,827.7818319481345
685,827.7864244664246
686,827.7906355518714
687,827.7945223590023
688,827.7981416342751
689,827.8015494834972
690,827.8048011474261
691,827.8079507868825
692,827.8110512790942
693,827.8141540263928
694,827.8173087772053
695,827.820563458204
696,827.8239640160557
697,827.8275542675644
698,827.8313757578665
699,827.8354676272485
700,827.8398664878004
701,827.8446063116919
702,827.8497183336256
703,827.8552309706014
704,827.8611697617783
705,827.8675573294996
706,827.8744133599245
707,827.8817545990908
708,827.8895948585536
709,827.8979450247462
710,827.9068130680771
711,827.9162040507725
712,827.9261201354623
713,827.9365605986856
714,827.9475218545772
715,827.9589974939946
716,827.9709783433553
717,827.9834525457283
718,827.9964056648162
719,828.0098208111939
720,828.0236787899718
721,828.0379582694477
722,828.0526359704288
723,828.0676868755602
724,828.0830844575682
725,828.0988009247707
726,828.1148074810766
727,828.1310745960338
728,828.1475722787687
729,828.1642703484453
730,828.1811386936528
731,828.1981475142321
732,828.2152675410601
733,828.2324702313606
734,828.2497279385526
735,828.267014056415
736,828.2843031377558
737,828.3015709882324
738,828.3187947366511
739,828.3359528839994
740,828.3530253342664
741,828.3699934104394
742,828.3868398589321
743,828.4035488455747
744,828.4201059465788
745,828.4364981383861
746,828.4527137904113
747,828.4687426638633
748,828.4845759181995
749,828.5002061251215
750,828.5156272890673
751,828.5308348728971
752,828.545825827357
753,828.5605986225073
754,828.57515327842
755,828.5894913912035
756,828.6036161491636
757,828.6175323332004
758,828.6312462957352
759,828.6447659134576
760,828.6581005106265
761,828.6712607513931
762,828.6842585015825
763,828.6971066619831
764,828.7098189756483
765,828.7224098110034
766,828.7348939218201
767,828.7472861854774
768,828.7596013221347
769,828.7718535983547
770,828.7840565186925
771,828.7962225082198
772,828.808362588665
773,828.8204860512615
774,828.832600130377
775,828.8447096830757
776,828.8568168804778
777,828.8689209169867
778,828.8810177432574
779,828.8930998282059
780,828.905155954255
781,828.9171710485363
782,828.9291260515789
783,828.9409978246103
784,828.9527590965491
785,828.9643784513167
786,828.9758203552235
787,828.9870452237864
788,828.9980095280665
789,829.0086659421829
790,829.0189635351228
791,829.0288480106387
792,829.0382619987702
793,829.0471454016064
794,829.0554357945426
795,829.0630688825505
796,829.0699790089881
797,829.0760997124275
798,829.081364325137
799,829.0857066052324
800,829.0890613929427
801,829.0913652801831
802,829.0925572824772
803,829.0925795033572
804,829.0913777826271
805,829.0889023198038
806,829.0851082625701
807,829.0799562486156
808,829.0734128893822
809,829.0654511859801
810,829.0560508698783
811,829.045198663229
812,829.0328884559017
813,829.0191213986749
814,829.0039059145467
815,828.9872576325719
816,828.9691992506221
817,828.9497603345463
818,828.928977061274
819,828.9068919126713
820,828.8835533258193
821,828.8590153045037
822,828.833336996667
823,828.8065822430768
824,828.7788191025497
825,828.7501193582077
826,828.7205580079279
827,828.6902127412416
828,828.6591634049381
829,828.6274914603073
830,828.5952794358329
831,828.5626103798685
832,828.5295673181565
833,828.4962327208422
834,828.4626879830936
835,828.4290129231738
836,828.3952853021702
837,828.3615803703362
838,828.3279704455271
839,828.2945245290134
840,828.2613079628409
841,828.2283821311457
842,828.1958042062902
843,828.1636269401905
844,828.1318985020222
845,828.1006623650857
846,828.0699572468989
847,828.0398171064264
848,828.0102712003924
849,827.981344197614
850,827.9530563476051
851,827.9254236981453
852,827.8984583556698
853,827.8721687814481
854,827.8465601155692
855,827.8216345203665
856,827.7973915352884
857,827.7738284360571
858,827.7509405918864
859,827.7287218153024
860,827.7071646995917
861,827.6862609394126
862,827.6660016311328
863,827.64637755104
864,827.6273794111742
865,827.6089980936538
866,827.5912248648455
867,827.5740515705357
868,827.5574708124389
869,827.5414761050121
870,827.5260620099347
871,827.5112242442437
872,827.4969597577975
873,827.4832667769123
874,827.4701448132129
875,827.4575946387328
876,827.4456182292957
877,827.4342186782995
878,827.4234000827109
879,827.4131674027132
880,827.4035262963869
881,827.3944829312779
882,827.3860437756638
883,827.3782153737753
884,827.3710041111299
885,827.3644159779341
886,827.3584563394268
887,827.35312972187
888,827.3484396221412
889,827.3443883478498
890,827.3409768934638
891,827.3382048560313
892,827.3360703920945
893,827.3345702157018
894,827.3336996359445
895,827.3334526310003
896,827.3338219542634
897,827.3347992670098
898,827.3363752913854
899,827.3385399773728
900,827.3412826776292
901,827.344592324527
902,827.3484576042828
903,827.3528671234783
904,827.3578095634605
905,827.3632738184715
906,827.3692491143054
907,827.3757251057161
908,827.3826919522021
909,827.3901403727037
910,827.3980616801623
911,827.4064477972813
912,827.4152912556203
913,827.4245851811297
914,827.4343232697754
915,827.4444997567299
916,827.4551093821472
