frame_number,force
0,824.8620219948799
1,824.8534523463898
2,824.8452656184866
3,824.8374778922719
4,824.8301048031702
5,824.8231615251971
6,824.8166627578648
7,824.8106227155553
8,824.8050551191436
9,824.7999731896393
10,824.7953896435909
11,824.7913166899974
12,824.7877660284696
13,824.7847488483625
14,824.7822758285904
15,824.7803571378307
16,824.7790024348436
17,824.7782208686706
18,824.7780210785064
19,824.7784111930628
20,824.7793988292519
21,824.7809910900501
22,824.7831945614623
23,824.7860153085812
24,824.789458870783
25,824.7935302561311
26,824.7982339350597
27,824.8035738334073
28,824.8095533248656
29,824.816175222909
30,824.8234417722649
31,824.8313546399729
32,824.8399149060685
33,824.8491230539204
34,824.8589789602474
35,824.8694818848543
36,824.8806304601436
37,824.8924226804897
38,824.9048558915758
39,824.9179267798112
40,824.9316313619548
41,824.9459649750895
42,824.9609222671237
43,824.976497188034
44,824.9926829820771
45,825.0094721811844
46,825.026856599724
47,825.0448273307866
48,825.0633747441635
49,825.0824884862297
50,825.1021574819899
51,825.1223699395869
52,825.1431133575768
53,825.1643745352451
54,825.186139586174
55,825.2083939552056
56,825.2311224388724
57,825.2543092093138
58,825.277937841635
59,825.3019913446245
60,825.3264521947218
61,825.3513023731126
62,825.3765234058013
63,825.402096406474
64,825.4280021219362
65,825.4542209798998
66,825.4807331388898
67,825.5075185400381
68,825.5345569605277
69,825.5618280684619
70,825.5893114789674
71,825.6169868113914
72,825.6448337474814
73,825.6728320904185
74,825.7009618245108
75,825.7292031752653
76,825.7575366694848
77,825.7859431949901
78,825.814404059548
79,825.8429010486036
80,825.8714164814361
81,825.899933265385
82,825.9284349477991
83,825.9569057653549
84,825.985330690402
85,826.0136954740096
86,826.0419866854219
87,826.0701917476633
88,826.0982989690774
89,826.1262975706071
90,826.1541777086454
91,826.1819304932869
92,826.2095480018218
93,826.2370232873217
94,826.2643503821901
95,826.2915242965789
96,826.3185410116353
97,826.3453974676289
98,826.3720915471225
99,826.3986220534485
100,826.4249886848128
101,826.4511920043493
102,826.477233406436
103,826.5031150795865
104,826.5288399662705
105,826.5544117200794
106,826.5798346607111
107,826.605113727279
108,826.6302544304259
109,826.6552628036458
110,826.6801453541315
111,826.7049090133904
112,826.7295610878189
113,826.754109209385
114,826.7785612865298
115,826.8029254553367
116,826.827210030975
117,826.8514234593931
118,826.8755742692324
119,826.8996710239485
120,826.9237222741282
121,826.947736509979
122,826.9717221139315
123,826.9956873132732
124,827.0196401327414
125,827.043588347043
126,827.0675394332992
127,827.0915005234219
128,827.1154783564201
129,827.1394792306318
130,827.1635089559077
131,827.1875728058232
132,827.2116754700648
133,827.2358210072066
134,827.2600127981424
135,827.2842535004789
136,827.3085450042211
137,827.3328883891104
138,827.357283884007
139,827.3817308287092
140,827.4062276385977
141,827.4307717724557
142,827.4553597037776
143,827.4799868958207
144,827.5046477806018
145,827.5293357419531
146,827.5540431026582
147,827.5787611156036
148,827.6034799588429
149,827.6281887344679
150,827.6528754711894
151,827.6775271305313
152,827.7021296165442
153,827.7266677889248
154,827.751125479406
155,827.7754855112504
156,827.7997297216501
157,827.8238389868093
158,827.847793249486
159,827.8715715487957
160,827.8951520521158
161,827.9185120889624
162,827.941628186729
163,827.9644761081994
164,827.987030890774
165,828.0092668873718
166,828.0311578089965
167,828.0526767689728
168,828.0737963288791
169,828.0944885462014
170,828.1147250237434
171,828.1344769608393
172,828.1537152064369
173,828.1724103141353
174,828.1905325992644
175,828.2080521980764
176,828.2249391290815
177,828.2411633565231
178,828.2566948559328
179,828.271503681656
180,828.2855600361972
181,828.2988343412025
182,828.3112973098852
183,828.3229200207018
184,828.3336739921012
185,828.3435312581963
186,828.3524644451915
187,828.3604468483518
188,828.3674525092453
189,828.3734562929677
190,828.3784339650647
191,828.3823622678735
192,828.3852189960105
193,828.3869830707292
194,828.3876346128776
195,828.3871550141835
196,828.3855270066019
197,828.3827347294623
198,828.3787637941515
199,828.3736013460513
200,828.3672361234179
201,828.3596585128746
202,828.3508606011901
203,828.3408362230424
204,828.3295810045146
205,828.3170924021371
206,828.3033697373496
207,828.2884142262984
208,828.2722290048916
209,828.2548191490326
210,828.2361916899492
211,828.2163556245548
212,828.1953219208249
213,828.1731035182172
214,828.1497153231977
215,828.1251741999511
216,828.0994989563537
217,828.072710325295
218,828.0448309414378
219,828.0158853135273
220,827.9858997923747
221,827.9549025346615
222,827.9229234627259
223,827.8899942204715
224,827.856148125497
225,827.8214201174875
226,827.7858467028881
227,827.7494658958738
228,827.7123171556445
229,827.674441320097
230,827.6358805359481
231,827.5966781853984
232,827.5568788094337
233,827.5165280278728
234,827.475672456292
235,827.4343596199762
236,827.3926378650634
237,827.3505562670446
238,827.3081645367866
239,827.2655129242443
240,827.2226521200221
241,827.1796331549475
242,827.136507297817
243,827.0933259514958
244,827.0501405475809
245,827.0070024398759
246,826.9639627969653
247,826.9210724942268
248,826.8783820056628
249,826.8359412959694
250,826.7937997132736
251,826.7520058829843
252,826.7106076032061
253,826.6696517421612
254,826.6291841380249
255,826.5892495015172
256,826.5498913215322
257,826.5111517740422
258,826.4730716344985
259,826.4356901939426
260,826.3990451790272
261,826.3631726761156
262,826.328107059609
263,826.2938809246441
264,826.2605250243265
265,826.228068211714
266,826.1965373867921
267,826.1659574486822
268,826.1363512533026
269,826.107739576691
270,826.0801410842049
271,826.0535723058258
272,826.0280476177967
273,826.0035792308074
274,825.9801771849089
275,825.9578493512919
276,825.9366014410163
277,825.9164370207317
278,825.8973575353734
279,825.8793623377604
280,825.8624487249613
281,825.8466119812614
282,825.831845427542
283,825.8181404768447
284,825.805486695831
285,825.7938718717772
286,825.7832820846926
287,825.773701784112
288,825.7651138700882
289,825.7574997778559
290,825.7508395655981
291,825.745112004729
292,825.7402946721263
293,825.7363640437791
294,825.7332955893363
295,825.7310638670581
296,825.7296426187058
297,825.7290048639712
298,825.729122994112
299,825.7299688645224
300,825.7315138860005
301,825.7337291144864
302,825.7365853390569
303,825.740053167974
304,825.744103112613
305,825.7487056690983
306,825.7538313974803
307,825.7594509982696
308,825.7655353861309
309,825.7720557605427
310,825.7789836732505
311,825.7862910923865
312,825.7939504631933
313,825.80193476536
314,825.81021756702
315,825.8187730754757
316,825.8275761847073
317,825.836602519709
318,825.8458284776826
319,825.8552312661036
320,825.8647889376783
321,825.8744804222147
322,825.884285555425
323,825.8941851046656
324,825.9041607915841
325,825.9141953116173
326,825.9242723502695
327,825.934376596112
328,825.9444937504679
329,825.9546105337798
330,825.9647146887067
331,825.9747949800442
332,825.9848411915863
333,825.9948441200561
334,826.0047955662292
335,826.0146883233734
336,826.0245161631266
337,826.03427381894
338,826.0439569672287
339,826.0535622063697
340,826.0630870336844
341,826.072529820512
342,826.0818897854476
343,826.0911669657875
344,826.100362187223
345,826.1094770318272
346,826.1185138043925
347,826.1274754972052
348,826.1363657533445
349,826.1451888285951
350,826.153949552035
351,826.1626532853401
352,826.1713058808313
353,826.1799136382941
354,826.188483260616
355,826.19702180831
356,826.2055366530068
357,826.2140354299934
358,826.2225259898788
359,826.2310163494753
360,826.2395146419959
361,826.24802906668
362,826.2565678379756
363,826.2651391344401
364,826.2737510475785
365,826.2824115309074
366,826.2911283495841
367,826.2999090309214
368,826.3087608160583
369,826.3176906129804
370,826.3267049510491
371,826.3358099371837
372,826.3450112138325
373,826.3543139188519
374,826.3637226473647
375,826.3732414156232
376,826.3828736268564
377,826.3926220390656
378,826.4024887347188
379,826.4124750922848
380,826.4225817595243
381,826.4328086284177
382,826.4431548115897
383,826.453618620086
384,826.4641975423863
385,826.474888224577
386,826.4856864516549
387,826.4965871299896
388,826.5075842710216
389,826.5186709763321
390,826.5298394242926
391,826.541080858589
392,826.5523855789615
393,826.5637429344831
394,826.5751413195973
395,826.5865681730121
396,826.598009979442
397,826.6094522741408
398,826.6208796501733
399,826.632275768403
400,826.6436233702035
401,826.6549042929043
402,826.6660994879752
403,826.6771890419155
404,826.6881521997946
405,826.6989673913681
406,826.7096122596962
407,826.720063692181
408,826.7302978539508
409,826.7402902235284
410,826.7500156307553
411,826.7594482969644
412,826.768561877397
413,826.7773295058535
414,826.7857238415528
415,826.7937171181844
416,826.8012811951271
417,826.8083876107994
418,826.8150076380841
419,826.8211123417549
420,826.8266726378324
421,826.8316593548
422,826.8360432966035
423,826.8397953073754
424,826.8428863378352
425,826.8452875133341
426,826.8469702034967
427,826.8479060933861
428,826.8480672560713
429,826.8474262264109
430,826.845956075816
431,826.8436304877096
432,826.8404238333814
433,826.8363112479648
434,826.8312687063133
435,826.8252730986105
436,826.818302305579
437,826.8103352731433
438,826.8013520863777
439,826.7913340425371
440,826.7802637229548
441,826.7681250635878
442,826.7549034239893
443,826.7405856545179
444,826.7251601616308
445,826.7086169711439
446,826.690947789343
447,826.6721460617836
448,826.6522070295324
449,826.6311277825297
450,826.6089073097031
451,826.5855465454617
452,826.5610484122291
453,826.535417858721
454,826.5086618936965
455,826.4807896149287
456,826.4518122331461
457,826.4217430907267
458,826.3905976749585
459,826.3583936257229
460,826.3251507374945
461,826.2908909555664
462,826.2556383664042
463,826.2194191820143
464,826.1822617182213
465,826.1441963667911
466,826.1052555614125
467,826.0654737376321
468,826.0248872869128
469,825.9835345050373
470,825.9414555351083
471,825.8986923054041
472,825.8552884623689
473,825.8112892990468
474,825.7667416793205
475,825.7216939583526
476,825.6761958996472
477,825.6302985891357
478,825.5840543466583
479,825.5375166351697
480,825.4907399679629
481,825.4437798141582
482,825.3966925026552
483,825.3495351246634
484,825.30236543485
485,825.2552417510858
486,825.2082228527472
487,825.1613678775402
488,825.114736216821
489,825.0683874093861
490,825.0223810336953
491,824.9767765984918
492,824.9316334317972
493,824.8870105682983
494,824.8429666351914
495,824.7995597366069
496,824.7568473367745
497,824.7148861421398
498,824.6737319826963
499,824.6334396928725
500,824.594062992381
501,824.555654367484
502,824.5182649531549
503,824.481944416648
504,824.4467408430044
505,824.4127006230545
506,824.3798683444852
507,824.3482866865218
508,824.3179963187434
509,824.2890358044997
510,824.2614415093491
511,824.2352475148937
512,824.2104855383307
513,824.187184857987
514,824.1653722450652
515,824.1450719018321
516,824.1263054065114
517,824.1090916651773
518,824.0934468709565
519,824.0793844708448
520,824.0669151404172
521,824.0560467666614
522,824.0467844390826
523,824.0391304491276
524,824.0330842978831
525,824.0286427119357
526,824.025799667248
527,824.0245464208723
528,824.0248715502911
529,824.0267610001298
530,824.0301981359647
531,824.0351638049398
532,824.0416364029119
533,824.049591947854
534,824.0590041592509
535,824.0698445432295
536,824.0820824831688
537,824.0956853355432
538,824.1106185307392
539,824.1268456785643
540,824.1443286781049
541,824.1630278315217
542,824.1829019613019
543,824.2039085304381
544,824.2260037649933
545,824.2491427785241
546,824.2732796978693
547,824.2983677898594
548,824.3243595885394
549,824.3512070225297
550,824.3788615421765
551,824.4072742461806
552,824.4363960074319
553,824.4661775978062
554,824.4965698116592
555,824.5275235877135
556,824.5589901290178
557,824.5909210206783
558,824.6232683450976
559,824.6559847945043
560,824.6890237805782
561,824.7223395409978
562,824.755887242736
563,824.7896230819317
564,824.823504380166
565,824.8574896769364
566,824.8915388180734
567,824.9256130397666
568,824.9596750478102
569,824.9936890916478
570,825.0276210328182
571,825.061438407438
572,825.0951104824095
573,825.1286083050918
574,825.161904746225
575,825.1949745359635
576,825.2277942929611
577,825.2603425465153
578,825.2925997518151
579,825.3245482983338
580,825.3561725113811
581,825.3874586468147
582,825.4183948789025
583,825.4489712813573
584,825.4791798016113
585,825.5090142284635
586,825.5384701533044
587,825.567544925181
588,825.5962376000003
589,825.6245488841889
590,825.6524810731302
591,825.6800379846978
592,825.7072248882009
593,825.7340484290756
594,825.7605165496987
595,825.786638406704
596,825.8124242851679
597,825.8378855099994
598,825.8630343548839
599,825.8878839491624
600,825.912448183061
601,825.9367416116906
602,825.9607793582286
603,825.984577016682
604,826.008150554645
605,826.031516216481
606,826.0546904273887
607,826.0776896988272
608,826.1005305357929
609,826.1232293464416
610,826.1458023545434
611,826.1682655152382
612,826.190634434518
613,826.2129242928083
614,826.2351497729247
615,826.2573249925616
616,826.2794634413698
617,826.3015779226063
618,826.3236804993295
619,826.3457824451451
620,826.3678941995607
621,826.3900253280501
622,826.4121844869317
623,826.4343793931378
624,826.4566167988982
625,826.4789024713111
626,826.501241176739
627,826.5236366699576
628,826.5460916880058
629,826.5686079486925
630,826.591186153701
631,826.6138259961932
632,826.6365261727855
633,826.6592843997776
634,826.6820974335498
635,826.7049610950764
636,826.7278702985268
637,826.7508190839173
638,826.7738006537488
639,826.7968074135018
640,826.8198310158
641,826.8428624079886
642,826.8658918828386
643,826.8889091320852
644,826.9119033025368
645,826.9348630545196
646,826.9577766224277
647,826.9806318771047
648,827.0034163897276
649,827.0261174968011
650,827.0487223658255
651,827.0712180611664
652,827.0935916096519
653,827.115830065449
654,827.1379205738339
655,827.1598504335104
656,827.1816071571594
657,827.2031785299013
658,827.2245526653853
659,827.2457180592711
660,827.2666636399231
661,827.2873788161814
662,827.3078535220943
663,827.3280782585124
664,827.3480441314633
665,827.3677428872537
666,827.3871669442826
667,827.4063094215817
668,827.4251641641195
669,827.4437257649083
670,827.4619895839384
671,827.4799517639437
672,827.497609242988
673,827.5149597638576
674,827.5320018802721
675,827.5487349599524
676,827.565159184622
677,827.5812755470334
678,827.597085845121
679,827.6125926733739
680,827.6277994115168
681,827.64271021058
682,827.6573299764378
683,827.6716643509005
684,827.6857196904706
685,827.6995030428915
686,827.7130221216167
687,827.7262852782962
688,827.7393014733493
689,827.7520802447024
690,827.764631674809
691,827.7769663561102
692,827.7890953551066
693,827.8010301752018
694,827.812782718446
695,827.8243652462811
696,827.8357903393805
697,827.8470708566844
698,827.8582198937568
699,827.8692507406162
700,827.8801768392073
701,827.8910117406958
702,827.9017690627876
703,827.9124624472875
704,827.9231055181023
705,827.9337118398373
706,827.9442948770668
707,827.9548679542797
708,827.9654442164532
709,827.976036590201
710,827.9866577454927
711,827.9973200580134
712,828.008035572313
713,828.0188159659483
714,828.0296725148445
715,828.0406160600984
716,828.0516569764117
717,828.0628051422916
718,828.0740699120981
719,828.0854600899756
720,828.0969839056991
721,828.1086489924663
722,828.1204623666697
723,828.1324304096637
724,828.1445588515295
725,828.1568527568173
726,828.1693165122127
727,828.1819538160227
728,828.194767669326
729,828.2077603685952
730,828.220933499588
731,828.2342879323334
732,828.2478238170912
733,828.261540581212
734,828.2754369268632
735,828.2895108296109
736,828.3037595378484
737,828.3181795730769
738,828.3327667310613
739,828.3475160839049
740,828.3624219831122
741,828.3774780637104
742,828.3926772495028
743,828.4080117595165
744,828.4234731157201
745,828.4390521520934
746,828.4547390251411
747,828.4705232259122
748,828.4863935935482
749,828.5023383303329
750,828.5183450181938
751,828.5344006365963
752,828.5504915817694
753,828.5666036871904
754,828.5827222452316
755,828.598832029836
756,828.6149173200588
757,828.6309619242876
758,828.6469492049613
759,828.662862103632
760,828.678683166257
761,828.6943945686487
762,828.709978142069
763,828.7254153989927
764,828.740687559081
765,828.7557755753782
766,828.7706601607279
767,828.7853218144152
768,828.7997408490635
769,828.8138974178462
770,828.8277715420661
771,828.841343139139
772,828.8545920510071
773,828.8674980730169
774,828.8800409833198
775,828.892200572879
776,828.903956676186
777,828.915289202788
778,828.9261781697235
779,828.9366037349416
780,828.9465462317488
781,828.9559862042817
782,828.9649044439709
783,828.9732820269472
784,828.9811003523336
785,828.9883411813574
786,828.9949866771867
787,829.0010194453821
788,829.0064225748755
789,829.0111796794273
790,829.0152749395533
791,829.0186931449273
792,829.0214197372612
793,829.0234408536376
794,829.0247433702314
795,829.0253149463148
796,829.0251440683818
797,829.0242200941753
798,829.0225332963525
799,829.0200749054825
800,829.0168371520284
801,829.0128133069376
802,829.0079977204596
803,829.0023858588518
804,828.9959743386663
805,828.9887609583175
806,828.9807447265922
807,828.971925887735
808,828.9623059427463
809,828.9518876665893
810,828.9406751210711
811,828.9286736632307
812,828.915889949138
813,828.9023319330757
814,828.888008862158
815,828.8729312665096
816,828.8571109451931
817,828.8405609481098
818,828.8232955541073
819,828.8053302455166
820,828.786681679317
821,828.7673676551082
822,828.7474070800798
823,828.7268199311816
824,828.7056272147139
825,828.6838509235357
826,828.661513992058
827,828.6386402491723
828,828.6152543692682
829,828.5913818215142
830,828.5670488176098
831,828.5422822582337
832,828.5171096784298
833,828.491559192164
834,828.4656594362779
835,828.4394395140563
836,828.4129289386358
837,828.3861575765031
838,828.3591555913476
839,828.3319533885225
840,828.3045815603423
841,828.2770708323917
842,828.2494520109757
843,828.2217559318286
844,828.1940134102148
845,828.166255192597
846,828.1385119100797
847,828.110814033825
848,828.083191832583
849,828.0556753323906
850,828.0282942784152
851,828.0010780988712
852,827.9740558709123
853,827.947256288371
854,827.9207076311873
855,827.8944377363495
856,827.8684739701808
857,827.8428432018197
858,827.8175717777623
859,827.7926854973547
860,827.7682095891269
861,827.7441686878727
862,827.720586812404
863,827.6974873439445
864,827.6748930051698
865,827.6528258399252
866,827.6313071936656
867,827.6103576946514
868,827.5899972359068
869,827.5702449579114
870,827.551119231943
871,827.5326376439542
872,827.5148169788557
873,827.4976732051028
874,827.4812214595469
875,827.4654760325644
876,827.4504503535002
877,827.4361569764656
878,827.4226075665224
879,827.4098128862712
880,827.397782782863
881,827.386526175465
882,827.3760510432368
883,827.3663644139154
884,827.357472353156
885,827.3493799548278
886,827.3420913324906
887,827.3356096122718
888,827.3299369273451
889,827.3250744141849
890,827.3210222107325
891,827.3177794565576
892,827.3153442950477
893,827.3137138776118
894,827.3128843698453
895,827.3128509595659
896,827.3136078665926
897,827.3151483541105
898,827.3174647414479
899,827.3205484180879
900,827.3243898587475
901,827.328978639369
902,827.3343034538832
903,827.3403521316209
904,827.3471116552496
905,827.3545681791292
906,827.3627070480034
907,827.3715128159834
908,827.3809692658212
909,827.3910594284965
910,827.4017656031475
911,827.4130693773931
912,827.424951648112
913,827.4373926427724
914,827.4503719414189
915,827.4638684994218
916,827.4778606710743
917,827.4923262341254
918,827.5072424153338
