frame_number,force
0,499.171110005876
1,499.20031422446544
2,499.2294368004682
3,499.2583964119154
4,499.2871123807886
5,499.31550500240246
6,499.34349588462464
7,499.37100830016544
8,499.3979675534154
9,499.42430136072005
10,499.44994024012465
11,499.4748179041384
12,499.49887164762913
13,499.52204272291874
14,499.5442766951997
15,499.5655237727256
16,499.58573910719105
17,499.60488306024786
18,499.62292143240154
19,499.63982565071
20,499.6555729117912
21,499.67014627676883
22,499.6835347151474
23,499.69573309532063
24,499.70674212045867
25,499.7165682098266
26,499.72522332707786
27,499.7327247586058
28,499.7390948464626
29,499.74436068160077
30,499.7485537643275
31,499.7517096398818
32,499.75386751770407
33,499.75506988302186
34,499.7553621089719
35,499.7547920771956
36,499.75340981511226
37,499.75126715839605
38,499.7484174463793
39,499.7449152555119
40,499.74081617227876
41,499.7361766034766
42,499.73105361939383
43,499.7255048243477
44,499.71958824896336
45,499.7133622592756
46,499.706885478801
47,499.700216720602
48,499.6934149267072
49,499.68653911225056
50,499.6796483116239
51,499.6728015236467
52,499.6660576519944
53,499.65947543616477
54,499.6531133677691
55,499.64702958730885
56,499.6412817576652
57,499.6359269118486
58,499.631021273915
59,499.6266200534823
60,499.622777216008
61,499.6195452325925
62,499.6169748143503
63,499.6151146374293
64,499.61401106558026
65,499.61370787752685
66,499.6142460061095
67,499.6156632953699
68,499.61799428044554
69,499.6212699932641
70,499.62551779481964
71,499.6307612330642
72,499.63701992493617
73,499.6443094617283
74,499.6526413379673
75,499.6620229042601
76,499.67245734409573
77,499.6839436740866
78,499.6964767671249
79,499.7100473983017
80,499.7246423137121
81,499.7402443220725
82,499.75683240839084
83,499.77438186803323
84,499.7928644586464
85,499.8122485667162
86,499.8324993853182
87,499.8535790998693
88,499.875447079138
89,499.8980600692219
90,499.92137238880304
91,499.9453361251266
92,499.9699013320538
93,499.99501623401926
94,500.02062744205847
95,500.04668018924457
96,500.07311859201064
97,500.09988594072934
98,500.1269250183224
99,500.1541784411094
100,500.1815890131454
101,500.20910008451955
102,500.2366559048303
103,500.26420196421014
104,500.2916853153164
105,500.3190548706599
106,500.34626167052267
107,500.3732591172722
108,500.4000031721139
109,500.42645251065477
110,500.4525686343616
111,500.4783159356764
112,500.50366171484643
113,500.5285761469076
114,500.55303219848486
115,500.57700549623087
116,500.60047415115645
117,500.6234185451237
118,500.6458210872275
119,500.667665949088
120,500.68893878954435
121,500.7096264803275
122,500.72971684382054
123,500.7491984115975
124,500.768060209286
125,500.78629157112806
126,500.8038819868227
127,500.8208209829847
128,500.8370980411677
129,500.8527025538414
130,500.86762381903446
131,500.8818510733233
132,500.8953735614143
133,500.90818063913855
134,500.9202619057561
135,500.931607361146
136,500.94220758345256
137,500.9520539227254
138,500.9611387057535
139,500.96945544655154
140,500.97699905604077
141,500.98376604387863
142,500.9897547055377
143,500.99496528862755
144,500.9994001337956
145,501.00306378713105
146,501.0059630827849
147,501.0081071962672
148,501.0095076699683
149,501.0101784123493
150,501.01013567126614
151,501.0093979808535
152,501.00798608077224
153,501.00592280631446
154,501.00323294772414
155,500.99994307721767
156,500.99608134290054
157,500.991677230309
158,500.98676129446653
159,500.9813648674623
160,500.97551974794067
161,500.96925787944036
162,500.9626110247596
163,500.9556104438719
164,500.948286583123
165,500.9406687829979
166,500.93278501063253
167,500.92466162195234
168,500.91632315727276
169,500.9077921733947
170,500.8990891144446
171,500.8902322229872
172,500.88123749256994
173,500.87211866278824
174,500.86288725754355
175,500.8535526660404
176,500.8441222646852
177,500.83460157700443
178,500.82499446798613
179,500.815303368564
180,500.80552952519895
181,500.795673268734
182,500.78573429614926
183,500.7757119588474
184,500.7656055515549
185,500.75541459614925
186,500.74513911435076
187,500.7347798827755
188,500.724338663957
189,500.71381840767197
190,500.7032234182588
191,500.69255948562716
192,500.6818339798186
193,500.6710559104975
194,500.66023595351896
195,500.6493864472518
196,500.6385213621034
197,500.62765624787704
198,500.61680816499387
199,500.6059956065651
200,500.59523841811574
201,500.5845577202394
202,500.57397583686355
203,500.56351622867345
204,500.5532034285418
205,500.54306297438205
206,500.53312133474833
207,500.5234058232188
208,500.51394449863045
209,500.5047660494015
210,500.4958996614012
211,500.4873748700297
212,500.4792213984529
213,500.4714689854695
214,500.464147208077
215,500.45728530476117
216,500.4509120052149
217,500.44505537055596
218,500.4397426458395
219,500.4350001247417
220,500.4308530253029
221,500.4273253751422
222,500.42443990365564
223,500.4222179371229
224,500.42067929125335
225,500.41984215561223
226,500.41972296577904
227,500.4203362611569
228,500.42169452811953
229,500.4238080293749
230,500.4266846214959
231,500.43032956397093
232,500.434745324899
233,500.4399313903213
234,500.44588408575663
235,500.45259641927686
236,500.46005795507784
237,500.4682547250119
238,500.4771691833258
239,500.4867802076106
240,500.49706314734834
241,500.50798992026694
242,500.51952915530154
243,500.5316463790883
244,500.5443042410502
245,500.55746277088883
246,500.5710796618749
247,500.58511057353786
248,500.59950944788403
249,500.61422883390526
250,500.6292202156936
251,500.6444343399456
252,500.6598215391731
253,500.6753320474302
254,500.6909163054763
255,500.7065252519156
256,500.7221105961775
257,500.7376250685451
258,500.75302264212013
259,500.7682587218319
260,500.78329029620045
261,500.79807604852937
262,500.8125764257735
263,500.82675366543236
264,500.84057178285036
265,500.8539965228094
266,500.8669952804275
267,500.87953699727797
268,500.8915920392951
269,500.9031320634509
270,500.91412988028065
271,500.92455931862105
272,500.9343950971209
273,500.94361270497313
274,500.95218829316417
275,500.9600985777912
276,500.9673207579883
277,500.9738324517761
278,500.97961165321107
279,500.98463671367153
280,500.9888863493857
281,500.99233967656664
282,500.994976274494
283,500.9967762754829
284,500.99772047928747
285,500.99779048844533
286,500.9969688603957
287,500.99523927209947
288,500.992586693601
289,500.988997568099
290,500.984459996702
291,500.9789639257081
292,500.97250133334626
293,500.96506641200364
294,500.95665574144914
295,500.94726844865824
296,500.9369063501592
297,500.9255740726891
298,500.91327914742317
299,500.90003207302374
300,500.88584634397387
301,500.8707384428898
302,500.854727797812
303,500.83783670695084
304,500.82009023383773
305,500.8015160760498
306,500.78214441153744
307,500.7620077281839
308,500.7411406437391
309,500.7195797238524
310,500.69736330510665
311,500.67453132768117
312,500.65112517906084
313,500.6271875471272
314,500.6027622790268
315,500.57789424179526
316,500.5526291816118
317,500.52701358019607
318,500.5010945084507
319,500.47491947819367
320,500.448536292248
321,500.42199289162374
322,500.39533719712006
323,500.3686169421709
324,500.3418794938919
325,500.3151716595283
326,500.28853947614687
327,500.2620279831835
328,500.23568098024015
329,500.20954077527665
330,500.1836479302616
331,500.15804101245885
332,500.1327563600252
333,500.1078278702495
334,500.0832868172917
335,500.0591617040006
336,500.03547814994874
337,500.01225881552705
338,499.9895233597977
339,499.9672884281288
340,499.94556766501506
341,499.92437174805787
342,499.903708440209
343,499.88358265822495
344,499.86399655553686
345,499.8449496178418
346,499.82643877013646
347,499.8084584944652
348,499.79100095773714
349,499.7740561485939
350,499.75761202214755
351,499.7416546518166
352,499.7261683881222
353,499.71113602467835
354,499.696538971689
355,499.6823574373784
356,499.6685706180312
357,499.65515689741665
358,499.64209405618556
359,499.62935949150926
360,499.6169304466151
361,499.60478424856586
362,499.59289855099325
363,499.5812515775625
364,499.5698223620991
365,499.5585909818308
366,499.54753878036144
367,499.53664857675585
368,499.52590485669015
369,499.5152939410127
370,499.5048041264456
371,499.49442579320004
372,499.4841514756157
373,499.47397589438134
374,499.4638959515036
375,499.45391069125895
376,499.4440212320348
377,499.4342306756326
378,499.42454400194794
379,499.41496795711464
380,499.4055109419189
381,499.3961829052811
382,499.38699524578175
383,499.3779607227713
384,499.36909337720823
385,499.3604084608582
386,499.3519223711698
387,499.3436525885005
388,499.3356176126095
389,499.32783689617366
390,499.32033077398046
391,499.3131203871069
392,499.3062276019235
393,499.29967492431575
394,499.2934854098364
395,499.2876825701814
396,499.2822902752383
397,499.2773326482919
398,499.2728339505514
399,499.2688184509
400,499.26531027796244
401,499.2623332536431
402,499.2599107092854
403,499.25806528710103
404,499.2568187307263
405,499.2561916698539
406,499.2562034047165
407,499.25687169659795
408,499.25821257021585
409,499.2602401323946
410,499.2629664091219
411,499.26640120070584
412,499.27055195296
413,499.2754236412855
414,499.28101866419956
415,499.28733674318977
416,499.2943748265056
417,499.30212699534883
418,499.31058437166433
419,499.31973502723474
420,499.3295638942199
421,499.3400526780605
422,499.3511797748661
423,499.362920196423
424,499.3752455061384
425,499.388123768728
426,499.40151951580805
427,499.4153937289955
428,499.4297038415802
429,499.4444037595074
430,499.45944390252873
431,499.47477126682844
432,499.49032951101344
433,499.50605906821806
434,499.5218972884225
435,499.53777861647467
436,499.5536348117967
437,499.5693952150195
438,499.58498706543446
439,499.60033587169835
440,499.61536583647523
441,499.63000033346185
442,499.64416243286075
443,499.65777546922163
444,499.67076364378744
445,499.68305265214565
446,499.69457032709226
447,499.7052472860289
448,499.7150175719592
449,499.7238192776246
450,499.73159514375095
451,499.73829312451306
452,499.743866915743
453,499.74827644363654
454,499.7514883130136
455,499.7534762140024
456,499.7542212846822
457,499.75371242557287
458,499.7519465603291
459,499.7489288357681
460,499.7446727537395
461,499.73920022764037
462,499.73254155753705
463,499.7247353195438
464,499.71582816702835
465,499.7058745432816
466,499.69493630751236
467,499.68308227813554
468,499.67038769891735
469,499.6569336345646
470,499.6428063031645
471,499.6280963538391
472,499.6128980989939
473,499.59730871133786
474,499.5814273964097
475,499.5653545517828
476,499.54919092424154
477,499.5330367756567
478,499.5169910670679
479,499.5011506691618
480,499.4856096063305
481,499.4704583405827
482,499.45578310015526
483,499.44166525563935
484,499.4281807445645
485,499.41539954464537
486,499.4033851963838
487,499.3921943765896
488,499.3818765248426
489,499.37247352493074
490,499.36401944327474
491,499.35654032645823
492,499.35005406011504
493,499.3445702913847
494,499.3400904166802
495,499.33660763541764
496,499.33410706888316
497,499.3325659421942
498,499.33195382677457
499,499.332232940835
500,499.3333585057031
501,499.33527915619396
502,499.33793740344714
503,499.34127014860843
504,499.3452092450399
505,499.34968210515797
506,499.3546123459819
507,499.3599204659925
508,499.36552454552043
509,499.371340963127
510,499.377285120373
511,499.3832721666527
512,499.38921771485076
513,499.3950385378517
514,499.4006532354343
515,499.40598286102056
516,499.41095149868045
517,499.4154867827786
518,499.41952035483126
519,499.4229882534966
520,499.4258312341243
521,499.4279950149085
522,499.4294304483991
523,499.4300936201662
524,499.42994588015415
525,499.4289538154444
526,499.427089174659
527,499.4243287541309
528,499.42065425526766
529,499.41605212188347
530,499.410513365391
531,499.40403338457014
532,499.39661178567366
533,499.3882522080485
534,499.37896215980805
535,499.36875286708135
536,499.3576391389628
537,499.34563924876926
538,499.33277483116257
539,499.31907079439463
540,499.30455524691905
541,499.28925943735896
542,499.2732177064047
543,499.25646744886063
544,499.2390490836012
545,499.22100602828186
546,499.2023846743393
547,499.1832343564716
548,499.1636073096928
549,499.14355860642263
550,499.1231460661618
551,499.1024301310369
552,499.0814737014353
553,499.06034192683245
554,499.0391019477347
555,499.01782258553067
556,498.9965739782859
557,498.9754271624964
558,498.95445360344144
559,498.93372467951434
560,498.91331112828675
561,498.8932824639949
562,498.8737063777435
563,498.85464813301326
564,498.8361699698763
565,498.8183305314135
566,498.80118432515883
567,498.78478123116327
568,498.7691660666295
569,498.7543782148962
570,498.74045132388494
571,498.72741307663335
572,498.71528503494375
573,498.7040825563468
574,498.69381478375004
575,498.68448470600254
576,498.6760892865906
577,498.66861965719613
578,498.6620613728814
579,498.6563947259837
580,498.6515951161913
581,498.6476334743925
582,498.6444767372516
583,498.64208836787805
584,498.64042891597063
585,498.63945660911793
586,498.63912796571066
587,498.6393984191386
588,498.64022294281756
589,498.64155666641875
590,498.6433554753776
591,498.6455765876591
592,498.64817910294914
593,498.65112451959305
594,498.65437721438883
595,498.65790488067387
596,498.66167892116033
597,498.665674793053
598,498.66987230350327
599,498.67425585345535
600,498.678814628156
601,498.6835427337897
602,498.6884392818111
603,498.69350842469856
604,498.69875934812876
605,498.70420622477104
606,498.70986813441846
607,498.715768954274
608,498.7219372217788
609,498.72840597051817
610,498.7352125381205
611,498.7423983443504
612,498.7500086378455
613,498.75809221066794
614,498.76670108047426
615,498.77589014021197
616,498.7857167747556
617,498.79624044323674
618,498.8075222255617
619,498.8196243318334
620,498.83260957415246
621,498.84654080195736
622,498.8614803047413
623,498.8774891890013
624,498.89462673882787
625,498.91294977109146
626,498.93251199647415
627,498.9533633967377
628,498.97554962704544
629,498.9991114503537
630,499.0240842093233
631,499.0504973400653
632,499.07837393123833
633,499.1077303314241
634,499.13857580726767
635,499.1709122544916
636,499.20473396348245
637,499.2400274406831
638,499.27677128655296
639,499.3149361304393
640,499.3544846221465
641,499.39537147906566
642,499.4375435867777
643,499.4809401508115
644,499.5254928978935
645,499.5711263259962
646,499.61775800318264
647,499.6652989153377
648,499.71365386222817
649,499.7627219001136
650,499.81239682783286
651,499.86256771239226
652,499.9131194497454
653,499.96393335661935
654,500.0148877896404
655,500.06585878819214
656,500.11672073701527
657,500.16734704343554
658,500.217610822648
659,500.2673855835725
660,500.3165459081768
661,500.3649681187001
662,500.4125309289873
663,500.45911607742363
664,500.5046089396729
665,500.54889911981184
666,500.5918810186142
667,500.633454377557
668,500.6735247965768
669,500.712004222827
670,500.74881140687364
671,500.783872322076
672,500.81712054255775
673,500.8484975754609
674,500.8779531440011
675,500.9054454187275
676,500.9309411949659
677,500.95441601479814
678,500.9758542324008
679,500.9952490221082
680,501.0126023289239
681,501.0279247614241
682,501.0412354274459
683,501.0525617137079
684,501.06193901101256
685,501.0694103864492
686,501.0750262034239
687,501.07884369020724
688,501.08092645860336
689,501.0813439764226
690,501.0801710002521
691,501.0774869775346
692,501.07337542829913
693,501.06792331702087
694,501.0612204244653
695,501.0533587281899
696,501.044431798704
697,501.03453421644855
698,501.023761013365
699,501.01220714254055
700,500.99996698037154
701,500.98713386720203
702,500.9737996934834
703,500.96005453862256
704,500.94598636887673
705,500.9316807990934
706,500.9172209206695
707,500.90268719471095
708,500.88815740568214
709,500.8737066680329
710,500.8594074769249
711,500.8453297936589
712,500.8315411557399
713,500.81810680031396
714,500.80508978848115
715,500.7925511175877
716,500.7805498095766
717,500.7691429657367
718,500.75838578106794
719,500.74833151422337
720,500.73903141129176
721,500.7305345836989
722,500.72288784228033
723,500.716135490764
724,500.7103190822007
725,500.7054771415246
726,500.7016448570435
727,500.6988537439412
728,500.69713128429123
729,500.69650055054655
730,500.69697982216195
731,500.6985822070708
732,500.7013152807324
733,500.70518075539536
734,500.7101741914221
735,500.7162847613597
736,500.7234950758206
737,500.73178107792484
738,500.74111201060833
739,500.75145045943566
740,500.7627524728645
741,500.7749677614715
742,500.7880399767736
743,500.8019070689314
744,500.81650172112376
745,500.8317518569684
746,500.84758121584366
747,500.86390998914663
748,500.8806555087394
749,500.8977329776878
750,500.91505623299
751,500.93253852982195
752,500.9500933365193
753,500.9676351292359
754,500.9850801753926
755,501.0023472957408
756,501.01935859569187
757,501.0360401572126
758,501.05232268325057
759,501.0681420875486
760,501.0834400236428
761,501.0981643476846
762,501.1122695105706
763,501.12571687566515
764,501.13847495898517
765,501.15051958928086
766,501.1618339864527
767,501.17240875828315
768,501.18224181687464
769,501.19133821686745
770,501.19970991777177
771,501.2073754732884
772,501.2143596513656
773,501.220692989526
774,501.2264112906831
775,501.23155506537347
776,501.2361689267918
777,501.2403009451471
778,501.24400196816674
779,501.24732491533086
780,501.25032405426543
781,501.2530542683855
782,501.25557032557765
783,501.25792615860746
784,501.26017416868314
785,501.26236456355565
786,501.2645447403192
787,501.26675872090044
788,501.2690466458269
789,501.27144433005486
790,501.2739828836252
791,501.2766883992543
792,501.27958170815265
793,501.28267820438975
794,501.28598773730533
795,501.28951457095883
796,501.29325740914993
797,501.2972094837654
798,501.30135870303315
799,501.30568785507427
800,501.310174861385
801,501.3147930748017
802,501.31951161702443
803,501.32429575145994
804,501.3291072874764
805,501.33390501201796
806,501.3386451440638
807,501.3432818066864
808,501.34776751047144
809,501.35205364114324
810,501.35609094408926
811,501.35982999958026
812,501.3632216845222
813,501.3662176184879
814,501.3687705927148
815,501.37083498077334
816,501.3723671292429
817,501.37332572647944
818,501.3736721479035
819,501.37337077744434
820,501.372389306398
821,501.37069901199413
822,501.3682750178241
823,501.36509653725807
824,501.3611470997183
825,501.3564147584492
826,501.3508922772619
827,501.34457729297895
828,501.3374724502931
829,501.3295855062282
830,501.3209294018137
831,501.31152229888755
832,501.30138758048287
833,501.2905538142263
834,501.2790546794449
835,501.26692885989496
836,501.2542199046674
837,501.2409760594017
838,501.2272500685788
839,501.21309894822116
840,501.1985837276102
841,501.1837691586982
842,501.1687233922795
843,501.15351762052217
844,501.1382256865591
845,501.1229236638483
846,501.10768941040385
847,501.0926021046599
848,501.0777417701826
849,501.06318879603236
850,501.04902345860313
851,501.0353254492277
852,501.02217341008554
853,501.0096444796479
854,500.9978138484181
855,500.9867543258591
856,500.9765359195751
857,500.96722542766855
858,500.95888604493007
859,500.9515769834472
860,500.94535310838637
861,500.9402645900847
862,500.93635657427205
863,500.9336688731931
864,500.9322356814621
865,500.9320853214741
866,500.933240023776
867,500.93571574755924
868,500.93952204551994
869,500.94466197641435
870,500.9511320680465
871,500.95892233288487
872,500.9680163377723
873,500.97839132843876
874,500.9900184088702
875,501.00286277485793
876,501.01688400018037
877,501.0320363730577
878,501.0482692798924
879,501.06552763276966
880,501.08375233656193
881,501.1028807905811
882,501.1228474184966
883,501.14358421879524
884,501.16502132658263
885,501.18708757634613
886,501.20971105491685
887,501.23281963470043
888,501.2563414791929
889,501.28020551524395
890,501.3043418688925
891,501.3286822636111
892,501.3531603813605
893,501.3777121878443
894,501.4022762237956
895,501.42679386423146
896,501.45120954744317
