frame_number,force
0,599.4327400000452
1,599.8304610243473
2,600.2067863441667
3,600.5424906116561
4,600.8223548568873
5,601.036421675732
6,601.1805528346375
7,601.2562973701746
8,601.270174288479
9,601.2325351485694
10,601.1562012712523
11,601.0550687472609
12,600.9428387043822
13,600.8319696208897
14,600.7328871822484
15,600.6534461273618
16,600.5986244796165
17,600.5704384387428
18,600.5680810055591
19,600.5882915590732
20,600.6259481246087
21,600.6748387360816
22,600.7285199176348
23,600.781130507638
24,600.8280300249905
25,600.8661858287758
26,600.8943143289686
27,600.9128366906766
28,600.9237075918805
29,600.9301337401298
30,600.9361665448097
31,600.9461665036112
32,600.9641873905996
33,600.9933790745097
34,601.0355282908782
35,601.0908370903664
36,601.1579849653747
37,601.2344542647536
38,601.3170465981589
39,601.4024885992375
40,601.4880077169813
41,601.5717535724436
42,601.6529676816863
43,601.7318691202419
44,601.8092996482467
45,601.8862303201497
46,601.9632637057778
47,602.0402657748949
48,602.1162197245736
49,602.1893204924805
50,602.2572596493294
51,602.3176193356877
52,602.368302123155
53,602.4079438619424
54,602.4362645451461
55,602.4543071342008
56,602.464508609518
57,602.4705527074444
58,602.476978667515
59,602.4885674213018
60,602.5095856477943
61,602.5430191780805
62,602.5899500570613
63,602.6492128845568
64,602.7174087019881
65,602.7892779473661
66,602.8583611043169
67,602.9178259452669
68,602.9613247331268
69,602.9837587094548
70,602.981856463168
71,602.9545093021288
72,602.9028477154096
73,602.8300791928067
74,602.7411276207511
75,602.6421207016352
76,602.5397785454866
77,602.4407676281329
78,602.3510886440347
79,602.2755579590454
80,602.2174237006619
81,602.1781305871887
82,602.1572197560905
83,602.1523433922831
84,602.1593982946964
85,602.1728097392863
86,602.185991862495
87,602.191971379562
88,602.1841119409537
89,602.1568390930639
90,602.1062553000669
91,602.0305574764618
92,601.9302135547373
93,601.8078934006535
94,601.6681698200259
95,601.5170187209028
96,601.3611679809246
97,601.2073697688148
98,601.0616887433067
99,600.9289002222845
100,600.8120756702151
101,600.7124014138473
102,600.6292384558863
103,600.5603937228587
104,600.5025436271133
105,600.451739129896
106,600.4039299146468
107,600.3554627441652
108,600.3035212874604
109,600.246477566973
110,600.1841233497491
111,600.117746224618
112,600.0500139881664
113,599.9846463209747
114,599.9258941848278
115,599.8779011300544
116,599.8440598336539
117,599.8264844455864
118,599.8256948096474
119,599.8405637892307
120,599.8685266798814
121,599.9060025372127
122,599.9489413752747
123,599.9933941201623
124,600.0360010354011
125,600.0743089668991
126,600.1068660165948
127,600.1331010807626
128,600.1530516880408
129,600.1670346338743
130,600.1753568663104
131,600.1781460311619
132,600.1753459140052
133,600.1668748781419
134,600.1528935885798
135,600.1340872108076
136,600.1118513218736
137,600.0882853000801
138,600.0659402125765
139,600.0473347242272
140,600.0343290880852
141,600.0275099424706
142,600.0257602453382
143,600.026154129846
144,600.0242350680464
145,600.014638948263
146,599.9919468610635
147,599.9516136022495
148,599.8908129271456
149,599.8090564407437
150,599.708471717299
151,599.5936684360048
152,599.4711872721173
153,599.3486148573688
154,599.2335336087409
155,599.1325161366507
156,599.050348539476
157,598.9895945685786
158,598.9505345340524
159,598.9314513682912
160,598.9291835115164
161,598.9398135136214
162,598.9593318053161
163,598.9841323307604
164,599.0112581728034
165,599.038390491055
166,599.0636367240693
167,599.0852195318562
168,599.1011944323956
169,599.109315786498
170,599.1071179624953
171,599.092202264978
172,599.0626593797228
173,599.0175322834218
174,598.9572266312679
175,598.8837863708665
176,598.8009660490214
177,598.7140571798336
178,598.6294728134314
179,598.5541509212826
180,598.4948762206341
181,598.4576260198819
182,598.4470246519694
183,598.4659543648523
184,598.5153295554039
185,598.594014807906
186,598.698869188598
187,598.8249197594288
188,598.9656835905952
189,599.113656618021
190,599.2609640742637
191,599.4001178327354
192,599.5247694617575
193,599.6303276847867
194,599.7143480666805
195,599.7766707550659
196,599.8193314562362
197,599.8462847274842
198,599.8629717078257
199,599.8757591749804
200,599.8912859370724
201,599.915771031964
202,599.9543534720784
203,600.0105397446772
204,600.0858311495041
205,600.179582241982
206,600.2891016279735
207,600.4099602306023
208,600.5364413605024
209,600.662061053073
210,600.7800993239853
211,600.8841031410198
212,600.968343916548
213,601.0282289085341
214,601.0606667038495
215,601.0643684430495
216,601.0400409512645
217,600.9904171999866
218,600.9200879185289
219,600.8351382549635
220,600.7426293205858
221,600.6499797259935
222,600.564306491818
223,600.4917915128534
224,600.437144855432
225,600.4032301062042
226,600.3908989637112
227,600.3990548123656
228,600.4249322140219
229,600.4645495766758
230,600.5132700981037
231,600.5663891883595
232,600.6196611116136
233,600.6696982693968
234,600.7142212615705
235,600.7521768003393
236,600.7837438315925
237,600.8102229158221
238,600.8337905084301
239,600.8571245373383
240,600.8829530569913
241,600.9136074073522
242,600.9506576789789
243,600.9946797164595
244,601.0451697315709
245,601.1006009922966
246,601.1586064344255
247,601.2162600562551
248,601.2704179974633
249,601.3180772834912
250,601.3567141500546
251,601.3845626766097
252,601.4007914878651
253,601.4055467712338
254,601.399855528669
255,601.3854111888501
256,601.3642853150589
257,601.3386210288697
258,601.3103632220487
259,601.281069263872
260,601.251826259179
261,601.2232768127619
262,601.1957265812423
263,601.1692848503604
264,601.1439837274387
265,601.1198327110801
266,601.0967904567134
267,601.0746692847972
268,601.0530187888868
269,601.0310499369026
270,601.0076523644278
271,600.9815225261599
272,600.9513703308434
273,600.9161369856083
274,600.8751612248798
275,600.8282670995699
276,600.7757854296844
277,600.7185388916363
278,600.6578098114004
279,600.5952836593007
280,600.5329471263173
281,600.4729304890585
282,600.4173051879965
283,600.3678603155023
284,600.3258864423418
285,600.2920013861556
286,600.2660569601381
287,600.247155216551
288,600.2337745716779
289,600.2239752261979
290,600.2156384589521
291,600.2067037281856
292,600.1953917287991
293,600.180418624306
294,600.1611986010304
295,600.1380043724746
296,600.1120383932642
297,600.0853838264688
298,600.0608374194445
299,600.0416417385451
300,600.0311283384721
301,600.0322878374852
302,600.0473148378053
303,600.0772101665825
304,600.1215247776535
305,600.1782972329787
306,600.2441965911386
307,600.3148508273576
308,600.3853133183366
309,600.4505964934422
310,600.5061947702918
311,600.5485329879768
312,600.5753003197555
313,600.5856501460822
314,600.5802594522162
315,600.5612493810579
316,600.5319772527671
317,600.4967227133782
318,600.4603015619183
319,600.4276443213055
320,600.4033763090774
321,600.3914385800729
322,600.3947912678775
323,600.4152313424418
324,600.4533338049276
325,600.5085022821413
326,600.5791031047218
327,600.6626527764223
328,600.7560270352732
329,600.855663265061
330,600.9577358143065
331,601.0582894298907
332,601.1533239484128
333,601.2388435585148
334,601.3109093960254
335,601.3657463769696
336,601.3999456488244
337,601.4107747996225
338,601.3965645842927
339,601.3570982752159
340,601.2939088001962
341,601.2104002110908
342,601.1117466014668
343,601.0045645514539
344,600.8963861219074
345,600.7949764099345
346,600.7075608213842
347,600.6400636158755
348,600.59648928254
349,600.5785685254722
350,600.5857349161176
351,600.6154208819228
352,600.6635940884718
353,600.725417133209
354,600.7959071992026
355,600.8704916496462
356,600.9453948718742
357,601.0178407751672
358,601.0860933513711
359,601.1493682347127
360,601.207639472945
361,601.2613609155107
362,601.3111329909732
363,601.3573695765601
364,601.4000416148053
365,601.4385705258045
366,601.4719026223154
367,601.4987360050864
368,601.517830754218
369,601.5283276700995
370,601.5300163332148
371,601.5235104265188
372,601.5103030625911
373,601.4926925691237
374,601.4735909250111
375,601.4562480878591
376,601.4439369087397
377,601.4396382705806
378,601.4457519835577
379,601.4638505294753
380,601.494491999197
381,601.5371101790713
382,601.5900043170981
383,601.650455180444
384,601.7149843977892
385,601.7797451004316
386,601.8409943445205
387,601.8955681546593
388,601.9412709882631
389,601.9771070214927
390,602.0033123062927
391,602.0211817222687
392,602.0327179772987
393,602.040160930792
394,602.0454782598401
395,602.0499047540104
396,602.0536050295325
397,602.055509854802
398,602.0533503545498
399,602.0438919768696
400,602.0233460390774
401,601.987905917908
402,601.9343256231487
403,601.8604464404831
404,601.7655885433747
405,601.6507515497946
406,601.5186014706703
407,601.3732549419534
408,601.219900278142
409,601.0643177581712
410,600.9123781032503
411,600.7695993028683
412,600.6408170848389
413,600.5299800646652
414,600.4400428403819
415,600.3729221802909
416,600.3295005537622
417,600.3096814153184
418,600.3125012259641
419,600.3362912081536
420,600.3788758201468
421,600.437796277813
422,600.510542740679
423,600.5947647604476
424,600.6884210396514
425,600.7898397686545
426,600.8976826213784
427,601.0108211106178
428,601.1281413233663
429,601.2483071312505
430,601.3695367682244
431,601.4894631901201
432,601.605136117156
433,601.7131898342406
434,601.8101653192239
435,601.8929456567718
436,601.9592364352714
437,602.0080008943172
438,602.0397549676107
439,602.0566486508338
440,602.0623058460761
441,602.0614526846099
442,602.0594100583096
443,602.0615346947786
444,602.0726659339304
445,602.0966091659258
446,602.1356956457103
447,602.1904873827522
448,602.2596964452151
449,602.340339443317
450,602.4280820486568
451,602.5176922485786
452,602.6035303458593
453,602.6800355532969
454,602.7421911247933
455,602.7859482754805
456,602.8085710057253
457,602.8088507124083
458,602.7871518321476
459,602.7452858843184
460,602.6862485274944
461,602.613874745619
462,602.5324679692566
463,602.4464443555457
464,602.3600133732499
465,602.2769016862685
466,602.2001229064809
467,602.1317978004711
468,602.0730357878152
469,602.0238969046728
470,601.983456988491
471,601.9499899652053
472,601.921256781337
473,601.8948565613335
474,601.86857035338
475,601.8406314387404
476,601.8098870562887
477,601.775849909563
478,601.7386564823707
479,601.6989590317045
480,601.6577864416872
481,601.6164079609234
482,601.5762182898148
483,601.5386447352996
484,601.5050710075869
485,601.4767767594612
486,601.4548951602222
487,601.4403827085368
488,601.4339813684043
489,601.4361542735895
490,601.4470031283125
491,601.4662021785892
492,601.4929749577018
493,601.5261024673448
494,601.5639284927115
495,601.6043428746034
496,601.6447569359515
497,601.6821079716697
498,601.7129340292379
499,601.7335508376684
500,601.7403392793171
501,601.7301140863501
502,601.7005081989206
503,601.6502944283478
504,601.5795795248697
505,601.4898331103105
506,601.3837490815246
507,601.264975655578
508,601.1377774526026
509,601.006694233846
510,600.8762369987514
511,600.7506303512146
512,600.6335912463848
513,600.5281354392079
514,600.4364132284461
515,600.3595823352856
516,600.2977276501056
517,600.2498408441385
518,600.2138751364579
519,600.1868867105726
520,600.1652671385093
521,600.1450636208752
522,600.1223716996006
523,600.0937660360302
524,600.0567155343099
525,600.0099200240031
526,599.9535136015862
527,599.8891034932587
528,599.8196419723241
529,599.7491472975369
530,599.6822960389671
531,599.6239184981662
532,599.5784470658075
533,599.5493792392822
534,599.5388141537934
535,599.5471165904657
536,599.5727642997189
537,599.6124318144571
538,599.6613390807221
539,599.7138382591982
540,599.7641409809542
541,599.807038570679
542,599.8384697589106
543,599.8558371490057
544,599.8580385935048
545,599.8452501384573
546,599.818564267019
547,599.7796216785721
548,599.73035083942
549,599.6728605272378
550,599.6094577986985
551,599.5427201937379
552,599.4755479019315
553,599.4111514907808
554,599.3529703592542
555,599.3045389516813
556,599.2693107584696
557,599.2504306013965
558,599.2504443490375
559,599.2709669257342
560,599.3123757099794
561,599.3736207211309
562,599.4522254928862
563,599.5445027555079
564,599.6459459532675
565,599.7516985197974
566,599.8569743320381
567,599.9573302599276
568,600.0487669717456
569,600.1277131289919
570,600.1909876113614
571,600.2358247190743
572,600.2600084465525
573,600.2621135450134
574,600.2417994372012
575,600.2000603449844
576,600.1393283222316
577,600.0633704193843
578,599.9769948768927
579,599.8856400874731
580,599.794938641019
581,599.7103346134688
582,599.6368018448003
583,599.5786708350769
584,599.539528927035
585,599.5221315412796
586,599.5282707388266
587,599.5585895493128
588,599.6123826097119
589,599.687461245656
590,599.7801712937264
591,599.8856279966949
592,599.99817494729
593,600.1120019982476
594,600.2218002191788
595,600.3233113924147
596,600.4136530791104
597,600.4913644473854
598,600.5561992098015
599,600.6087556422109
600,600.6500623218865
601,600.6812337617755
602,600.7032757412147
603,600.7170628515698
604,600.7234534612206
605,600.7234772985117
606,600.7185340955828
607,600.7105586965437
608,600.7021194137004
609,600.6964221358921
610,600.697199119117
611,600.7084686510483
612,600.734165580725
613,600.7776744575256
614,600.841339550535
615,600.9260523701878
616,601.031009397493
617,601.1536937498591
618,601.2900785744001
619,601.4349950406099
620,601.5825752228416
621,601.7266879808195
622,601.8613316506666
623,601.9809974825268
624,602.0810312186139
625,602.1579883462778
626,602.2099324734783
627,602.2366068127716
628,602.2394342652318
629,602.221352671855
630,602.1865261058775
631,602.1399694179953
632,602.0871050624937
633,602.0332733104239
634,601.9832430090449
635,601.9407951749221
636,601.9084503243838
637,601.8873762945093
638,601.8774663456834
639,601.8775473699109
640,601.885673960157
641,601.899471017543
642,601.9164928072945
643,601.9345682974937
644,601.9520982646773
645,601.9682586072811
646,601.9830623994615
647,601.9972578446467
648,602.0120821212096
649,602.0289260265148
650,602.0489786472583
651,602.0729203444213
652,602.1007200370781
653,602.1315674365737
654,602.1639379432751
655,602.1957613729119
656,602.2246530399892
657,602.2481616183032
658,602.263989721145
659,602.2701577138868
660,602.265110391508
661,602.2477973700279
662,602.217774438751
663,602.1753580239449
664,602.121813545649
665,602.0594979734724
666,601.9918528112324
667,601.9231774373432
668,601.8581854003761
669,601.8014199603383
670,601.7566476074995
671,601.7263445224512
672,601.7113470831056
673,601.7106808385964
674,601.7215479062038
675,601.739455280768
676,601.7584899690125
677,601.7717650421289
678,601.7720529138887
679,601.7525766515055
680,601.7078633417685
681,601.6345212275158
682,601.5318109356674
683,601.4019189536984
684,601.2498801170216
685,601.0831396479952
686,600.9108067023128
687,600.7427127523625
688,600.588416184705
689,600.4562823271041
690,600.3527389353848
691,600.2817795187034
692,600.2447570714191
693,600.2404694591029
694,600.2654885588838
695,600.3146470718589
696,600.381591826699
697,600.4593438950844
698,600.5408470118217
699,600.6195004129512
700,600.6896496090624
701,600.7469729022171
702,600.7886898021169
703,600.8135503934817
704,600.8216293523567
705,600.8140071582352
706,600.7924406855236
707,600.7590997121603
708,600.7163936744163
709,600.6668618812071
710,600.6130752764954
711,600.5575072001529
712,600.5023586147948
713,600.4493502079962
714,600.3995181303274
715,600.353072913295
716,600.3093844735926
717,600.2671216820195
718,600.2245158704601
719,600.1796731500264
720,600.1308579174367
721,600.0767018489572
722,600.0163299150271
723,599.9494171781586
724,599.8762016122934
725,599.7974892362353
726,599.7146887681656
727,599.6298862052312
728,599.5459217286422
729,599.4663927868048
730,599.3955043198769
731,599.3377223625624
732,599.2972447961411
733,599.2773639718887
734,599.2798450963472
735,599.3044682499138
736,599.3488681528465
737,599.408745673629
738,599.478426186828
739,599.5516386123542
740,599.6223346884116
741,599.6853838066421
742,599.7370437988037
743,599.7751800125592
744,599.7992534537909
745,599.8101198798231
746,599.8096887709387
747,599.8004972374134
748,599.7852641566388
749,599.766502391804
750,599.7462722644422
751,599.7261386475587
752,599.7073350335609
753,599.6910598771674
754,599.6787766085889
755,599.6723887186731
756,599.6742116258515
757,599.6867392252962
758,599.712275665805
759,599.7525434980773
760,599.8083715885912
761,599.8795224222451
762,599.9646736368707
763,600.0615455771749
764,600.1671543490947
765,600.27814740334
766,600.3911490581049
767,600.5030322167571
768,600.6110613802265
769,600.7129149343596
770,600.8066550640945
771,600.8907324077164
772,600.9640823377549
773,601.0263126382092
774,601.0779241747682
775,601.1204676748002
776,601.156540646595
777,601.1895785967116
778,601.2234746565662
779,601.2621247241675
780,601.3090041511299
781,601.3668419987097
782,601.4374058199737
783,601.521375057118
784,601.6182739046452
785,601.7264485880396
786,601.843095767967
787,601.9643625053718
788,602.0855358253862
789,602.2013262235579
790,602.3062339850221
791,602.3949745158827
792,602.4629301961814
793,602.5065931927365
794,602.5239634720873
795,602.5148601799015
796,602.481090866835
797,602.4264178596278
798,602.3562862674142
799,602.2773344539522
800,602.1967650349167
801,602.1216755737481
802,602.0584270445418
803,602.0120979028887
804,601.9860641520069
805,601.9817504876538
806,601.9985816789214
807,602.0341230103278
808,602.084362694783
809,602.1440798122619
810,602.2072543356576
811,602.2674960792647
812,602.3184879872603
813,602.3544504120928
814,602.3706255444316
815,602.3637467906901
816,602.3324125032441
817,602.2772644875179
818,602.2009051897963
819,602.1075619816166
820,602.0025821220393
821,601.8918785492382
822,601.7814301683173
823,601.6768854977254
824,601.5832586539689
825,601.5046745704386
826,601.4441294456109
827,601.4032704325705
828,601.3822388034581
829,601.3796386349785
830,601.3926773967744
831,601.4174826341609
832,601.4495503662847
833,601.484245857743
834,601.517263400792
835,601.5449550029869
836,601.5644600574748
837,601.5736204465788
838,601.5707442020558
839,601.554347550959
840,601.5230117249475
841,601.4754257589128
842,601.4105907319757
843,601.3280932803716
844,601.2283427245111
845,601.1126898376328
846,600.9833821661031
847,600.8433573398374
848,600.6959313424798
849,600.5444791862436
850,600.3922014319478
851,600.242025675032
852,600.0966377210312
853,599.9585900825504
854,599.8303997328611
855,599.7145398288815
856,599.6132730429327
857,599.528357628442
858,599.4607332169013
859,599.4103133426307
860,599.3759686844598
861,599.3557121656818
862,599.3470368003758
863,599.3473332540526
864,599.3543184823292
865,599.3664130399504
866,599.3830027776197
867,599.4045297662702
868,599.4323938692813
869,599.4686937589681
870,599.5158620272928
871,599.5762449292578
872,599.6516635765593
873,599.7429916394676
874,599.8497983222866
875,599.9701203965761
876,600.1004247146626
877,600.2357970019032
878,600.3703533402036
879,600.4978285137016
880,600.6122562298067
881,600.7086305993746
882,600.7834422873109
883,600.8350173906495
884,600.8636282285842
885,600.8713701414612
886,600.8618117137984
887,600.8394487451533
888,600.8090343921518
889,600.774902526272
890,600.7404171854807
891,600.7076514692744
892,600.6773379138858
893,600.6490681288545
894,600.621672467317
895,600.5936841997818
896,600.5637840189017
897,600.5311323409823
898,600.4955334881911
899,600.457429585887
900,600.4177705143544
901,600.3778286470214
902,600.3390183306676
903,600.302753180477
904,600.2703513930244
905,600.2429922461381
906,600.2217262665122
907,600.2075291941541
908,600.2013627213765
909,600.2041858309185
910,600.2168770054433
911,600.2400749090027
912,600.2739888841526
913,600.3182459216359
914,600.3718264037351
915,600.4331060905598
916,600.4999827374746
