frame_number,force
0,601.9318200000461
1,602.0276063477041
2,602.1209526939364
3,602.2092968984203
4,602.2899037706878
5,602.3599230375062
6,602.4165470783075
7,602.4572301933182
8,602.4799340770173
9,602.4833792562902
10,602.4672793180864
11,602.4325113022796
12,602.3811559374059
13,602.316347479914
14,602.2419120696708
15,602.161838220961
16,602.0796869824758
17,601.9980795710834
18,601.9183842408039
19,601.8406729555084
20,601.7639496466219
21,601.686582546604
22,601.6068232516842
23,601.5232831024442
24,601.4352668448984
25,601.3429171279773
26,601.2471759950379
27,601.1496070378648
28,601.0521438773369
29,600.9568386383722
30,600.8656725386847
31,600.7804510836585
32,600.7027453665618
33,600.6337942696433
34,600.5742953427136
35,600.5240920971247
36,600.4818587367505
37,600.4449197557595
38,600.4093016321235
39,600.370036544381
40,600.3216740455985
41,600.2589280503413
42,600.177384682392
43,600.0741980443586
44,599.9486908482617
45,599.8027648488982
46,599.641031657492
47,599.4706025568042
48,599.300521666313
49,599.140888045028
50,599.001778258614
51,598.8921262274229
52,598.8187219012185
53,598.7854576150092
54,598.7929015522849
55,598.838233306025
56,598.9155458440408
57,599.0164914792351
58,599.1312104485214
59,599.2494300403885
60,599.3615828098646
61,599.4597876511602
62,599.5385695783235
63,599.595244955889
64,599.6299493007405
65,599.6453298237873
66,599.6459668851606
67,599.637622351214
68,599.6264318653976
69,599.6181601438583
70,599.6176165036509
71,599.628279388945
72,599.6521261188734
73,599.6896374878656
74,599.7399494273417
75,599.8011337464762
76,599.8705858850385
77,599.9454730948859
78,600.0231621059805
79,600.1015271513489
80,600.1790617421067
81,600.2547794589057
82,600.3279611009341
83,600.3978550449121
84,600.4634488722578
85,600.5234033945551
86,600.5761829871026
87,600.6203445790729
88,600.6548875988591
89,600.6795462131445
90,600.694936512955
91,600.7025393718905
92,600.7045628234681
93,600.7037464369791
94,600.703140780478
95,600.7058531226786
96,600.7147362317465
97,600.732019040072
98,600.7589138643172
99,600.7952644907303
100,600.8393198480275
101,600.8877240205363
102,600.9357870153825
103,600.9780347292458
104,601.0089546320147
105,601.0237953714122
106,601.0192668524347
107,600.9940152123111
108,600.9487951476922
109,600.8863208922612
110,600.8108417037312
111,600.72754162876
112,600.6418868401945
113,600.5590307066893
114,600.4833465195792
115,600.4181104216489
116,600.3653234220805
117,600.3256520247107
118,600.2984776831952
119,600.2820556666026
120,600.2737706755954
121,600.2704465379512
122,600.268657717142
123,600.2650160472979
124,600.2564356047703
125,600.2403806312198
126,600.2150835989972
127,600.1797063670989
128,600.1344162166588
129,600.0803616658159
130,600.0195568588948
131,599.9546987489512
132,599.8889319448833
133,599.8255588552944
134,599.7677002758361
135,599.7179483342059
136,599.6780897303225
137,599.6489800352012
138,599.6306103513281
139,599.6223424405183
140,599.6232288411168
141,599.6323096657561
142,599.6487994484103
143,599.6721341678298
144,599.701909064719
145,599.7377694364209
146,599.7793116394673
147,599.826027577237
148,599.8773014896803
149,599.9324521235084
150,599.9908071894499
151,600.0517902722416
152,600.1149866191591
153,600.1801494660207
154,600.2471314282908
155,600.3157652029198
156,600.385742935902
157,600.4565371470148
158,600.5273805900837
159,600.5973019970886
160,600.6652078104684
161,600.7299963822034
162,600.7906826537557
163,600.8465030044235
164,600.8969704983225
165,600.9418650122062
166,600.9811685524826
167,601.014980547706
168,601.0434530975892
169,601.0667652326798
170,601.0851220932993
171,601.0987440479798
172,601.1078149124444
173,601.1123808434662
174,601.1122178730513
175,601.106703900487
176,601.0947340149152
177,601.074712100064
178,601.0446464879669
179,601.0023710948757
180,600.9458968626294
181,600.8738684542285
182,600.7860611993543
183,600.6838128211173
184,600.5702665612926
185,600.4503320282791
186,600.3303457645272
187,600.2174983021423
188,600.1191402743592
189,600.0420658665241
190,599.9918258884599
191,599.9720970358363
192,599.9841515211043
193,600.0265119912748
194,600.0949033445426
195,600.182593146299
196,600.2811343561096
197,600.3814164176263
198,600.4748478412337
199,600.5544668934122
200,600.615795963975
201,600.657300250347
202,600.680381888385
203,600.6889342341573
204,600.6885703273437
205,600.6856886561957
206,600.6865340587051
207,600.6963670460979
208,600.7188025444198
209,600.7553466555975
210,600.805153425903
211,600.865030383528
212,600.9297265260651
213,600.9925217747779
214,601.046085862201
215,601.0834948711386
216,601.0992245015984
217,601.0899236523975
218,601.0548252695589
219,600.9957505708784
220,600.9167605768052
221,600.8235663395527
222,600.7228204671197
223,600.6213968697302
224,600.5257407085845
225,600.4413433016208
226,600.3723726278134
227,600.3214726013722
228,600.2897316426748
229,600.2768115652907
230,600.2812183185198
231,600.3006779171601
232,600.3325550062148
233,600.3742400761723
234,600.4234506409782
235,600.4784236681121
236,600.5379911234191
237,600.601526414634
238,600.6687510866338
239,600.739413680234
240,600.8128898411035
241,600.8877896406167
242,600.9616797964159
243,601.0310200780615
244,601.0913675538943
245,601.1378315845818
246,601.1656945339639
247,601.1710761017777
248,601.1515245122148
249,601.1064514804542
250,601.0373624368196
251,600.9478563861203
252,600.8433925114068
253,600.7308528581588
254,600.6179594061456
255,600.5126135976922
256,600.4222216575857
257,600.3530639512616
258,600.3097645938398
259,600.2949138882162
260,600.3088884963112
261,600.3498995311213
262,600.4142684432061
263,600.4968841394525
264,600.5917573896596
265,600.6925937685459
266,600.7933506081242
267,600.888776577715
268,600.9749126114009
269,601.0494793576548
270,601.1120482942016
271,601.163923607944
272,601.2077317191321
273,601.2467887789036
274,601.2843677457699
275,601.3230018348532
276,601.3639413427163
277,601.4068425533025
278,601.4497247403301
279,601.4891882852897
280,601.5208497071467
281,601.539926075041
282,601.541892545729
283,601.5231376904052
284,601.4815440967086
285,601.4169208786919
286,601.3312190708255
287,601.22848597131
288,601.1145593816741
289,600.996551234758
290,600.8822070875302
291,600.7792415225946
292,600.6947335223961
293,600.6346288201081
294,600.6033575243966
295,600.6035518322802
296,600.6358477251549
297,600.6987717834758
298,600.7887334974741
299,600.9001491471582
300,601.0257169899032
301,601.1568566914243
302,601.2843175749293
303,601.3989370352061
304,601.4924900030198
305,601.5585290347839
306,601.5930899517253
307,601.5951361698209
308,601.5666406720457
309,601.5122639088628
310,601.4386663854214
311,601.3535655054364
312,601.2646884818477
313,601.1787878895562
314,601.1008737050611
315,601.033771665565
316,600.9780502251988
317,600.9322862790812
318,600.893582333653
319,600.8582186367114
320,600.8223274609925
321,600.7825051392745
322,600.736311162314
323,600.682621615406
324,600.6218012697998
325,600.5556547894702
326,600.4871404473956
327,600.4198822076227
328,600.357568754924
329,600.3033529317835
330,600.2593623054802
331,600.2264138267217
332,600.2039930066411
333,600.190504524418
334,600.1837342499578
335,600.1814074795458
336,600.1817097904684
337,600.1836594352573
338,600.1872665611455
339,600.1934651436123
340,600.2038474363476
341,600.220261899552
342,600.2443504908877
343,600.2771038263859
344,600.3185114623644
345,600.3673772226684
346,600.4213426839651
347,600.4771151106314
348,600.5308515222882
349,600.5786281316292
350,600.6169195040309
351,600.6430088417402
352,600.6552508695352
353,600.6531296051526
354,600.6371026833403
355,600.6082844157828
356,600.5680598201411
357,600.5177214705079
358,600.458191166891
359,600.3898603493342
360,600.3125750542285
361,600.2257924048474
362,600.1289225337234
363,600.0218278205766
364,599.9053875819392
365,599.7819817293753
366,599.655737844247
367,599.5324345765645
368,599.4190371632154
369,599.3229214906879
370,599.2509017235424
371,599.2082158747053
372,599.197645687246
373,599.2189379352099
374,599.2686428001014
375,599.3404045193242
376,599.4256565910716
377,599.5146072191438
378,599.5973624339549
379,599.6650345200787
380,599.7107171896299
381,599.7302521638529
382,599.7227385191875
383,599.6907369993957
384,599.6401125361552
385,599.579471824062
386,599.5192074080355
387,599.4702409896091
388,599.4426361303083
389,599.4443013647208
390,599.4800123553633
391,599.5509282935952
392,599.6546617165784
393,599.7858222200304
394,599.936860414104
395,600.0990281867273
396,600.2633214941075
397,600.4213251836426
398,600.5659012327085
399,600.6916635853646
400,600.7951980754409
401,600.8750309945995
402,600.9314047186132
403,600.9659500082319
404,600.9813436547181
405,600.9810205314757
406,600.9689748338783
407,600.9496361265913
408,600.9277621335744
409,600.908279177284
410,600.8960271140124
411,600.8954106591681
412,600.9100027447554
413,600.9421757984919
414,600.9928473261948
415,601.061408744637
416,601.1458549933748
417,601.2430655989941
418,601.3491484257646
419,601.4597666242555
420,601.570402026616
421,601.6765348044734
422,601.7737438855479
423,601.8577657526725
424,601.9245717363468
425,601.9705087570145
426,601.992501990767
427,601.9882781404189
428,601.9565631715137
429,601.8972292444985
430,601.8113840586768
431,601.7013995150554
432,601.5708725243716
433,601.4245057935742
434,601.2678922032213
435,601.1071895223769
436,600.9486902746188
437,600.7983192136999
438,600.6611155491855
439,600.5407751338154
440,600.4393381704601
441,600.3570968080192
442,600.2927499152557
443,600.2437612836942
444,600.206820683538
445,600.178297862758
446,600.1546175212261
447,600.1325356340569
448,600.109329975122
449,600.0829277257295
450,600.0520018136884
451,600.0160781729955
452,599.9756834117571
453,599.9325141619126
454,599.8895529383606
455,599.8510299866559
456,599.8221498295927
457,599.8085523820546
458,599.8155450249112
459,599.8472109627911
460,599.9055536509084
461,599.9898554422788
462,600.0963958140742
463,600.2185971071107
464,600.3475754589969
465,600.4730077776937
466,600.5841957486388
467,600.6712035313315
468,600.7259492758056
469,600.7431329763969
470,600.7208879361384
471,600.6610623284135
472,600.5690789435491
473,600.4533767101213
474,600.324491766722
475,600.1938844777209
476,600.0726615593901
477,599.9703672899891
478,599.8940086192468
479,599.8474342078499
480,599.8311221334332
481,599.8423666521558
482,599.8758062611466
483,599.924203208926
484,599.9793598128738
485,600.0330431122416
486,600.0778017219815
487,600.1075964820326
488,600.1182092829573
489,600.1074290748626
490,600.0750406031324
491,600.0226576669809
492,599.9534458367065
493,599.8717765025816
494,599.7828523581487
495,599.6923394261264
496,599.6060241060798
497,599.52948883224
498,599.4677843830027
499,599.425087163281
500,599.4043593494868
501,599.407051565232
502,599.4328875410508
503,599.4797630401791
504,599.5437942179499
505,599.6195542402304
506,599.7005178291191
507,599.7796883083321
508,599.8503370021433
509,599.9067649043444
510,599.9449981143388
511,599.9633363915057
512,599.9626844637551
513,599.9466115529534
514,599.9211048541517
515,599.8940070066672
516,599.8741631423418
517,599.8703571215809
518,599.8901788688047
519,599.9390028021469
520,600.0192412329149
521,600.1299716589399
522,600.2669603837245
523,600.4230464678858
524,600.5888116355313
525,600.7534402253727
526,600.9056742680312
527,601.0347860972768
528,601.1314992313554
529,601.1887752937625
530,601.2023741292242
531,601.1711175130132
532,601.0968410286014
533,600.9840718776458
534,600.8395017862705
535,600.6713353919982
536,600.4885902597977
537,600.3004100303718
538,600.1154410922124
539,599.9413244087443
540,599.7843535733165
541,599.6493254090559
542,599.539562063036
543,599.4570440396667
544,599.4025882622662
545,599.3760271859157
546,599.3763683149773
547,599.4019263430819
548,599.4504281950126
549,599.5190966077752
550,599.6047138140945
551,599.7036550593118
552,599.8118813996159
553,599.9249079059009
554,600.0377995004674
555,600.145254873349
556,600.2418083264064
557,600.3221371719324
558,600.381437529516
559,600.4158257563079
560,600.4227215039604
561,600.4011661330962
562,600.3520331345388
563,600.2780964745695
564,600.1839339326361
565,600.0756590462137
566,599.9605070808383
567,599.8463418771407
568,599.7411687953808
569,599.6527061162777
570,599.588003510679
571,599.5530571590396
572,599.5523887250764
573,599.5886102157941
574,599.6620442155992
575,599.7704811496994
576,599.9091379441612
577,600.070856716684
578,600.2465574337197
579,600.4259295215924
580,600.5983100118012
581,600.7536576591324
582,600.8835070678364
583,600.9817808995631
584,601.0453523492108
585,601.0742854307742
586,601.0717313761002
587,601.043507487566
588,600.9974162077053
589,600.9423805746584
590,600.887487641212
591,600.8410448540094
592,600.8097583832493
593,600.7981305819852
594,600.8081440416017
595,600.8392538170484
596,600.8886591447267
597,600.9517927635073
598,601.0229590711263
599,601.09605593365
600,601.1653100237324
601,601.2259443192804
602,601.2746961092514
603,601.3101258700028
604,601.3326944526038
605,601.3446186884721
606,601.3495332824011
607,601.3519976174526
608,601.3569025376011
609,601.3688540058279
610,601.3916210882536
611,601.4277186277803
612,601.4781536183879
613,601.5423210138248
614,601.6180151898426
615,601.7015378812947
616,601.7879138150456
617,601.8712380764395
618,601.945160281432
619,602.0034746559546
620,602.040752962656
621,602.052939662767
622,602.0378301485268
623,601.9953719769152
624,601.9277542413258
625,601.8392683811438
626,601.7359367343246
627,601.6249287981826
628,601.5138257539354
629,601.409833898228
630,601.3190647835573
631,601.2459889644014
632,601.1931369351831
633,601.1610713131595
634,601.148601234304
635,601.1531689734458
636,601.1713165533573
637,601.1991387958825
638,601.2326533839074
639,601.2680622628143
640,601.301917260108
641,601.3312133602876
642,601.3534224420531
643,601.3664753521036
644,601.3687127333567
645,601.3588404476695
646,601.335923412783
647,601.2994288396287
648,601.249302658144
649,601.1860484414586
650,601.1107769197972
651,601.0251982591363
652,600.9315362467454
653,600.8323537535316
654,600.7302939662214
655,600.6277701246336
656,600.5266764759868
657,600.4282144941985
658,600.3329001509707
659,600.24075163632
660,600.1515942174635
661,600.0653906384196
662,599.9825164377584
663,599.9039321099608
664,599.8312327936687
665,599.7665750199548
666,599.7124995469235
667,599.6716866971791
668,599.646682733035
669,599.6396263892927
670,599.6520001825654
671,599.6844338728963
672,599.7365835193406
673,599.8070932693586
674,599.8936308093316
675,599.9929833747265
676,600.1012084365802
677,600.2138429378268
678,600.3261741641355
679,600.4335546045455
680,600.5317141671683
681,600.6170134100854
682,600.6866032780192
683,600.7384927049205
684,600.7715478828388
685,600.7854463477444
686,600.7805976896385
687,600.7580330302663
688,600.7192584184985
689,600.6660689604901
690,600.6003415735264
691,600.5238527819287
692,600.4381738309286
693,600.3446702475613
694,600.244598194599
695,600.1392646042642
696,600.0302045953355
697,599.9193278351895
698,599.8089971462233
699,599.7020258561305
700,599.6016083251533
701,599.5112148020302
702,599.4344697544055
703,599.3750010200745
704,599.3362296415294
705,599.3210848130961
706,599.3316604604452
707,599.3688603879333
708,599.4320998839127
709,599.5191347256464
710,599.6260644267925
711,599.7475144514033
712,599.876969252353
713,600.0072216338815
714,600.1309131205372
715,600.241141815582
716,600.3321009768141
717,600.3996909120577
718,600.4420230243854
719,600.4597126273425
720,600.455858719581
721,600.4356574956781
722,600.4056849489667
723,600.3729775637387
724,600.3440985085421
725,600.3243727009407
726,600.3174109461659
727,600.324955699475
728,600.3470078041933
729,600.3821510697993
730,600.4279727505987
731,600.4814749632267
732,600.5393929811714
733,600.5983900221353
734,600.6551659105493
735,600.7065587587838
736,600.749712156733
737,600.7823380708118
738,600.8030525947502
739,600.8117138097457
740,600.8096595385147
741,600.7997416015043
742,600.786094348388
743,600.7736534266865
744,600.7675204998591
745,600.7723035890026
746,600.7915350067128
747,600.8272124801155
748,600.8794733600395
749,600.9464182099736
750,601.0241301815049
751,601.1069509537722
752,601.188040949143
753,601.2601743597841
754,601.3166405250208
755,601.3520897244169
756,601.3631854001987
757,601.3489802706247
758,601.3109881619549
759,601.2529620380549
760,601.1804165271432
761,601.0999608795543
762,601.0185343281549
763,600.9426470160605
764,600.8777214448268
765,600.8276119243632
766,600.7943586677692
767,600.7782013256651
768,600.7778290575635
769,600.7907919820079
770,600.8139625021951
771,600.843934631968
772,600.877294304284
773,600.9107655740636
774,600.9412967888532
775,600.9661670346044
776,600.9831620898445
777,600.9908093119578
778,600.9886089179671
779,600.9771867406582
780,600.9583176352097
781,600.9348001218843
782,600.9101834873637
783,600.8883627162566
784,600.8730741896044
785,600.867351098166
786,600.87302773195
787,600.8903972489652
788,600.9181079050993
789,600.9533315666437
790,600.9921800586819
791,601.030298597059
792,601.0635364443124
793,601.0885825198422
794,601.1034537787106
795,601.1077371243741
796,601.1025271448291
797,601.0900802470237
798,601.0732901760574
799,601.055132175342
800,601.0382049084849
801,601.0244407949041
802,601.0149904349638
803,601.0102425434703
804,601.0099270350534
805,601.0132565452492
806,601.0190766516832
807,601.0260124996358
808,601.0326177110211
809,601.0375387185738
810,601.0396917039665
811,601.0384198511666
812,601.033584073738
813,601.0255562929223
814,601.0151189747171
815,601.0033066012969
816,600.9912378721176
817,600.9799722433314
818,600.970387455847
819,600.9630451241537
820,600.9580193493535
821,600.9547086312407
822,600.9517018038933
823,600.9467847521265
824,600.9371376856492
825,600.9197029222616
826,600.8916462588426
827,600.8508197146515
828,600.7961501338947
829,600.7279031201344
830,600.6477942135097
831,600.5589393829185
832,600.465652137497
833,600.3731021350052
834,600.2868602880026
835,600.2123786819582
836,600.1544766708541
837,600.1169033159154
838,600.1020202746139
839,600.1106195817134
840,600.1418716535809
841,600.1933872252943
842,600.2613688431145
843,600.3408296376072
844,600.4258751521671
845,600.5100672036484
846,600.5868925219431
847,600.6503258864358
848,600.6954191185285
849,600.7188009930475
850,600.7189736541494
851,600.6963464931848
852,600.6530344250912
853,600.5925180672021
854,600.5192808224474
855,600.4385006911317
856,600.3558111334072
857,600.2770883808996
858,600.208195564443
859,600.1546293127554
860,600.1210697874569
861,600.1109050309839
862,600.1258456667821
863,600.1657424158333
864,600.2286700548864
865,600.3112662264484
866,600.4092413181255
867,600.517941172988
868,600.6328605689032
869,600.7500464211247
870,600.8663575763413
871,600.9795529797731
872,601.0881851909041
873,601.1913055454544
874,601.288037792284
875,601.3771256413879
876,601.4565821774512
877,601.5235505245098
878,601.5744283354844
879,601.6052381789734
880,601.6121728890453
881,601.5922224756259
882,601.5437854693371
883,601.4671679354357
884,601.3648799864046
885,601.2416613330773
886,601.104204732288
887,600.9605938780971
888,600.8195218050236
889,600.6893921610861
890,600.5774167540828
891,600.4888159839868
892,600.4262252523389
893,600.3894148050344
894,600.3754157352871
895,600.3790808064484
896,600.3940013433026
897,600.4135957030173
898,600.4321330952066
899,600.4454844308909
900,600.4514853105466
901,600.4499137198329
902,600.4421799417634
903,600.4308670836041
904,600.4192459255278
905,600.4108409024741
906,600.4090702208923
907,600.416939578171
908,600.4367511839544
909,600.4698088129148
910,600.5161480166254
911,600.5743682403707
912,600.6416543458711
913,600.7140352290261
914,600.7868596139954
915,600.8554125670796
916,600.9155686083523
917,600.9643681210391
