frame_number,force
0,546.2135600000533
1,546.1715684402956
2,546.1304392757542
3,546.0908196557822
4,546.0530277028046
5,546.0170892378827
6,545.9829017793702
7,545.9504518033903
8,545.9200004530251
9,545.8921719329676
10,545.8679087424164
11,545.8482868055861
12,545.8342127625115
13,545.8260634686565
14,545.823367437523
15,545.8246405968716
16,545.8274519804531
17,545.8287217318016
18,545.8251811764388
19,545.8138817042592
20,545.7926340849215
21,545.7602891877697
22,545.7168233553465
23,545.6632446583673
24,545.60136926814
25,545.5335280993199
26,545.4622608616102
27,545.3900402852028
28,545.3190515981858
29,545.2510500214984
30,545.1873294959776
31,545.1288246100223
32,545.0763172325597
33,545.0306645188505
34,544.9929535267305
35,544.9645221849187
36,544.9468311321684
37,544.9412045894479
38,544.9484874182923
39,544.96869453811
40,545.0007496224075
41,545.0424109157706
42,545.090449637938
43,545.1410762496029
44,545.1905270185107
45,545.2356706246655
46,545.2744951755628
47,545.3063800938314
48,545.3321167532517
49,545.3536908193778
50,545.3738708013743
51,545.3956711242935
52,545.421780652181
53,545.4540595324321
54,545.4931937479159
55,545.5385563901704
56,545.5882751613473
57,545.6394702768766
58,545.6886112838532
59,545.731931613968
60,545.7658307299051
61,545.7871992586607
62,545.7936298014623
63,545.7835118607303
64,545.7560368049317
65,545.7111518312728
66,545.6495023142398
67,545.5723927250432
68,545.4817756022998
69,545.3802454317138
70,545.2709871783497
71,545.1576334668271
72,545.0440196683655
73,544.9338622284071
74,544.8303990695672
75,544.7360268002268
76,544.6519670447926
77,544.5780065518162
78,544.5123775254472
79,544.4518510834699
80,544.3920834469643
81,544.3281834394163
82,544.2553918300733
83,544.1697190248902
84,544.0684063032153
85,543.9501492705392
86,543.8151022390275
87,543.6647221606285
88,543.5015092622524
89,543.3286870132251
90,543.1498507423103
91,542.9686003155517
92,542.7881644479547
93,542.6110353210803
94,542.4386592946734
95,542.2712528821357
96,542.1078157303173
97,541.9463864086513
98,541.7845304848701
99,541.6199778289407
100,541.4512704786831
101,541.2782702696625
102,541.1024094704311
103,540.9266363962823
104,540.7550885400548
105,540.5925836051291
106,540.4440359015005
107,540.3138973328857
108,540.2057040662634
109,540.1217756055798
110,540.0630649975383
111,540.0291256263464
112,540.0181635301603
113,540.0271733782995
114,540.0521809044784
115,540.0886126731693
116,540.1317836215246
117,540.1774497085025
118,540.22234225778
119,540.264599897567
120,540.3040379397654
121,540.3422213595466
122,540.3823257006727
123,540.4287938359809
124,540.4868351828982
125,540.5618496466623
126,540.6588692127309
127,540.7820970793993
128,540.9345987272121
129,541.1181653956302
130,541.3333332456897
131,541.579510624516
132,541.8551463819451
133,542.1578687442328
134,542.4845462605441
135,542.8312691286039
136,543.1933004785562
137,543.5650797342075
138,543.9403613970194
139,544.3125350038816
140,544.6751000637676
141,545.0221988557194
142,545.349086359478
143,545.652449821709
144,545.9305488845979
145,546.1831928635356
146,546.4115838239824
147,546.6180401256082
148,546.8056073879869
149,546.9775841613792
150,547.137020915074
151,547.286262572428
152,547.4265956291514
153,547.5580525094847
154,547.6794205606783
155,547.7884803845856
156,547.8824506923439
157,547.9585645366731
158,548.0146697366469
159,548.0497421620521
160,548.0642171429303
161,548.0600785001161
162,548.0406986121986
163,548.0104823620295
164,547.9744018893341
165,547.9375043475878
166,547.9044508915772
167,547.879124111603
168,547.8643215232793
169,547.8615287074065
170,547.8707532266161
171,547.8904180752338
172,547.9173490575538
173,547.9469114558296
174,547.9733380980039
175,547.9902469762039
176,547.9912896061129
177,547.970824978071
178,547.9244973456679
179,547.8496144939405
180,547.7452694519567
181,547.6122085441841
182,547.4525020226652
183,547.2691017347926
184,547.0653703718738
185,546.8446527131033
186,546.6099447995531
187,546.3637018351656
188,546.1078025824385
189,545.8436602370192
190,545.5724503893682
191,545.2954188704119
192,545.0142229277596
193,544.7312408507165
194,544.4497703549591
195,544.1740430107582
196,543.9090200333892
197,543.6599999307462
198,543.4321360898912
199,543.2299912824817
200,543.0572218963543
201,542.916409260092
202,542.8089911579939
203,542.735229751051
204,542.6941790385052
205,542.6836587797883
206,542.70027435305
207,542.739525885258
208,542.7960266654693
209,542.863817159443
210,542.9367360142875
211,543.0088079755494
212,543.0746298753401
213,543.1297531894912
214,543.1710474254104
215,543.1969912388156
216,543.2078128712433
217,543.2054119336941
218,543.1930409820006
219,543.1747916496727
220,543.1549860699633
221,543.1375892836858
222,543.1257283263247
223,543.1213564832515
224,543.1250690261925
225,543.1360689892485
226,543.1522852136449
227,543.1706445449945
228,543.1874891006163
229,543.199106979896
230,543.2023152207732
231,543.1950088175712
232,543.1765806637927
233,543.1481317230367
234,543.1124319671444
235,543.0736489487333
236,543.0369035843433
237,543.0077249114687
238,542.9914717983905
239,542.9927918272679
240,543.0151943686952
241,543.0608062841854
242,543.1303434818785
243,543.2232800433931
244,543.3381500157345
245,543.4728904791261
246,543.6251318368762
247,543.7923601587112
248,543.971914864562
249,544.1608394001092
250,544.3556577122331
251,544.5521778840096
252,544.7454085141765
253,544.9296256825611
254,545.0985797917706
255,545.2458064547784
256,545.3650090202733
257,545.4504980593471
258,545.4976808664093
259,545.50357611904
260,545.4672906704648
261,545.3903592436997
262,545.2768391961188
263,545.1330861697351
264,544.9672059626924
265,544.788255849556
266,544.6053219152716
267,544.426613408336
268,544.2586998023262
269,544.1059851253697
270,543.9704753963672
271,543.8518561082511
272,543.7478616643203
273,543.6548818027292
274,543.5687064723046
275,543.4852729121466
276,543.4012711959168
277,543.3144989178383
278,543.2239194032223
279,543.1294478104786
280,543.0315501106849
281,542.9307816283283
282,542.8274004907704
283,542.7211560750991
284,542.6112865149806
285,542.4966956541547
286,542.3762404328661
287,542.2490424811315
288,542.1147371320252
289,541.9735945269846
290,541.8264926822642
291,541.674772315474
292,541.5200288149927
293,541.3638904951484
294,541.2078177678167
295,541.0529561178681
296,540.9000782284421
297,540.7496397679021
298,540.6019502447381
299,540.4574363532844
300,540.3169544615018
301,540.1820900819164
302,540.055367240164
303,539.9402862458569
304,539.8411234200405
305,539.7624662487198
306,539.7085184698142
307,539.6822782098947
308,539.6847452991562
309,539.7143279554838
310,539.7665911969118
311,539.8344347463591
312,539.9087157596368
313,539.9792476434419
314,540.0360332158457
315,540.070551415578
316,540.0769085977204
317,540.0526727626458
318,539.9992343746877
319,539.9216006945594
320,539.827639577904
321,539.7269157356792
322,539.6293545680351
323,539.5439855631053
324,539.4779603750708
325,539.435947169548
326,539.4199138551406
327,539.4292494181525
328,539.461137669724
329,539.511089423435
330,539.573551982149
331,539.6425344998901
332,539.7121987547181
333,539.7773658927864
334,539.8338944282677
335,539.8789045078548
336,539.9108533601459
337,539.9294900242132
338,539.9357217325469
339,539.9314156547617
340,539.9191541958216
341,539.9019656850895
342,539.8830586219716
343,539.8655909820195
344,539.8525038580708
345,539.8464357298275
346,539.8497069073237
347,539.8643339517544
348,539.8920242785042
349,539.9341238636146
350,539.9915277303281
351,540.0645826126414
352,540.1530040027286
353,540.2558107719838
354,540.3712698154567
355,540.4968522806272
356,540.6292268251066
357,540.7643337066343
358,540.897580518169
359,541.0241767369522
360,541.1395888504181
361,541.24006209092
362,541.3231314979745
363,541.3880400946823
364,541.435991337547
365,541.470180402579
366,541.4955722242332
367,541.5184246344947
368,541.5455928580288
369,541.5836911967447
370,541.6382140708143
371,541.7127213867484
372,541.8081865432476
373,541.922609881315
374,542.0509996246358
375,542.1857749369468
376,542.3175519325224
377,542.4361861086536
378,542.5319034797978
379,542.5963527361167
380,542.6234377887454
381,542.6098416984355
382,542.555221668874
383,542.4621192447927
384,542.3356667709476
385,542.1831710689105
386,542.013629307705
387,541.8372002850452
388,541.6646304462274
389,541.5066244631911
390,541.3731585796899
391,541.2727592604558
392,541.2118013813853
393,541.1939064326842
394,541.2195285023031
395,541.285801024159
396,541.3866918928381
397,541.5134852326015
398,541.65556665147
399,541.8014343743807
400,541.9398109057577
401,542.0607102031795
402,542.1563279986553
403,542.2216586408185
404,542.2547919518789
405,542.2568992559405
406,542.2319569935919
407,542.1862565632848
408,542.1277220969786
409,542.0650483210096
410,542.0067056717253
411,541.9599180436269
412,541.9297568142932
413,541.9184916758502
414,541.9253037844445
415,541.9464192835882
416,541.9756702588797
417,542.0054302985545
418,542.0277988058374
419,542.0358373415202
420,542.024626330412
421,541.9919412973663
422,541.9384436538504
423,541.8674048151821
424,541.7840877045091
425,541.6949684973068
426,541.6069824303963
427,541.5269203897863
428,541.4610109000924
429,541.4146437193067
430,541.3921707048898
431,541.3967566923081
432,541.430299021838
433,541.4934416774843
434,541.5856820328446
435,541.7055429639054
436,541.8507820618132
437,542.0186237181238
438,542.2060114670442
439,542.409875277302
440,542.6273872510435
441,542.8561497633063
442,543.0942491053992
443,543.3401369473388
444,543.5923591867173
445,543.8491967036067
446,544.1082933559138
447,544.366341018281
448,544.6188891915549
449,544.8603401172658
450,545.084167051083
451,545.2833577097492
452,545.451046015151
453,545.5812537012448
454,545.6696209189655
455,545.7139815500523
456,545.7146624675429
457,545.6744559069537
458,545.5982918186538
459,545.4926857642957
460,545.3650560223344
461,545.2230070508608
462,545.0736672307286
463,544.9231439946265
464,544.7761361858356
465,544.6357384735359
466,544.5034686291662
467,544.3795179345902
468,544.2631733984783
469,544.1533172485022
470,544.0488937045084
471,543.9492478223061
472,543.8542799737043
473,543.7644111622586
474,543.6804079309392
475,543.6031582167449
476,543.5334993182742
477,543.4721610591274
478,543.4198196727806
479,543.377203798975
480,543.3451792245709
481,543.3247547141166
482,543.3169777060107
483,543.3227178699755
484,543.3423666457721
485,543.3755066337455
486,543.4206208524511
487,543.4749153074537
488,543.5343165195698
489,543.5936797172603
490,543.6472090457185
491,543.6890539155335
492,543.7140080474039
493,543.7182046718689
494,543.699686153128
495,543.6587417467199
496,543.5979484980824
497,543.5219007103179
498,543.4366619003874
499,543.3490160114015
500,543.2656305336942
501,543.1922700344782
502,543.1332008058245
503,543.0908887471115
504,543.0660192973439
505,543.0577935563873
506,543.0644074664248
507,543.0836055017663
508,543.1132100627763
509,543.1515551331339
510,543.1977835893587
511,543.2519872102835
512,543.3151792468153
513,543.389107152082
514,543.4759417910099
515,543.5779023551805
516,543.6968775952303
517,543.8340879940054
518,543.9898131952384
519,544.1631906346747
520,544.3520795597912
521,544.5529900855579
522,544.7611042657463
523,544.9704472375392
524,545.1742680441142
525,545.3656446957452
526,545.5382534877613
527,545.6871745219775
528,545.8095740040729
529,545.9051215259792
530,545.9760590234314
531,546.0269127235221
532,546.063903611671
533,546.0941543652176
534,546.1248129669794
535,546.1622158138708
536,546.211198243634
537,546.2746378973281
538,546.3532876368238
539,546.4459075745953
540,546.5496430045578
541,546.6605475594815
542,546.7741446310089
543,546.8859448028886
544,546.9918621010678
545,547.0884854168573
546,547.17317988872
547,547.2440300086033
548,547.2996796234718
549,547.3391493892548
550,547.3617055981122
551,547.3668205638368
552,547.3542231606752
553,547.3240083575282
554,547.2767645707619
555,547.2136822743927
556,547.1366166242102
557,547.0480862876439
558,546.9512002229956
559,546.8495120039929
560,546.7468075884466
561,546.646839134922
562,546.5530206632156
563,546.46810124772
564,546.3938424772887
565,546.3307555410374
566,546.2779774968731
567,546.2333573234762
568,546.1937766361176
569,546.1556688551046
570,546.1156503829279
571,546.0711520725927
572,546.020934852297
573,545.9653807092736
574,545.9064745630947
575,545.8474480070524
576,545.7921393838487
577,545.7442044671468
578,545.7063484448204
579,545.6797291484138
580,545.6636263186339
581,545.6554157487922
582,545.6508438602316
583,545.6445600820983
584,545.630824877529
585,545.6042776443393
586,545.5606337036255
587,545.4971907805851
588,545.4130660478928
589,545.3091509061925
590,545.1878412121794
591,545.0526459829539
592,544.9077822151545
593,544.7578350662963
594,544.6075223620561
595,544.4615650814867
596,544.3246306405999
597,544.2012869701173
598,544.095903430424
599,544.0124719530166
600,543.9543792553875
601,543.9242021000075
602,543.9235942141962
603,543.9532849177859
604,544.0131493118754
605,544.1022805367581
606,544.219008816476
607,544.3608492113417
608,544.5243953041436
609,544.7052012429565
610,544.8977126580972
611,545.0953139530229
612,545.2905449235209
613,545.475507200185
614,545.6424445792549
615,545.7844409493064
616,545.896132928586
617,545.9743048683745
618,546.0182502869526
619,546.0298401603034
620,546.0133012366518
621,545.974753156825
622,545.921581924557
623,545.8617453612059
624,545.8031081995098
625,545.7528805441239
626,545.7171903051027
627,545.700784603385
628,545.7068485578931
629,545.7369435543146
630,545.7910713994393
631,545.8678510213889
632,545.9647670999252
633,546.0784385373383
634,546.2048631292528
635,546.339615051016
636,546.4780000888247
637,546.6152060879406
638,546.7465063388305
639,546.8675601163869
640,546.9748073466646
641,547.0659030223859
642,547.1401121016335
643,547.1985905368933
644,547.24449552956
645,547.2828827097669
646,547.3203580526155
647,547.364471125217
648,547.422880758681
649,547.5023924569899
650,547.6080275868558
651,547.742299970073
652,547.9048353669122
653,548.0923964513362
654,548.2993026179037
655,548.5181764816296
656,548.7409033375133
657,548.9596507623123
658,549.1677755103805
659,549.360467082788
660,549.535044513052
661,549.6909045991931
662,549.8291832534004
663,549.9522323578035
664,550.0630408999166
665,550.1647340708546
666,550.2602534625044
667,550.3522591488531
668,550.4432195848079
669,550.5355887299072
670,550.6319349673556
671,550.734904979327
672,550.8469746708938
673,550.9700240147491
674,551.1048331544715
675,551.2506153450564
676,551.4046900912808
677,551.5623793973956
678,551.7171846623431
679,551.861257837325
680,551.98611882105
681,552.0835156815906
682,552.14629813551
683,552.1691818554351
684,552.1493110075954
685,552.0865641696871
686,551.9835843858745
687,551.845545935201
688,551.6796992797784
689,551.4947592106339
690,551.3002122898197
691,551.1056084556409
692,550.9198728793491
693,550.750660276413
694,550.603802962586
695,550.4829530466683
696,550.3895272329258
697,550.3229974229915
698,550.2814651281839
699,550.2623763542531
700,550.263210933334
701,550.282007119437
702,550.3176335476022
703,550.3697781165334
704,550.4386763522483
705,550.5246455065504
706,550.6275252270145
707,550.7461468782716
708,550.8779498716428
709,551.0188312303846
710,551.1632658476325
711,551.3046828124625
712,551.436037464729
713,551.5504912439259
714,551.6421058301219
715,551.7064610474567
716,551.7411083891079
717,551.7457892064483
718,551.722393487541
719,551.6746936144394
720,551.6079220734084
721,551.5282597473399
722,551.4422799353616
723,551.3563761650894
724,551.2761971136405
725,551.2061176704822
726,551.1487933476875
727,551.1048708344921
728,551.0729332677524
729,551.0497186327655
730,551.0305776279203
731,551.0100815471255
732,550.9826824961158
733,550.9433512393074
734,550.8881372387535
735,550.8146010660269
736,550.7220774529272
737,550.6117508350117
738,550.4865571058056
739,550.3509452730107
740,550.2105309399383
741,550.071664252399
742,549.9409393184762
743,549.8246919595201
744,549.7285471764119
745,549.6570653904727
746,549.6135024417592
747,549.599671792148
748,549.6158937272414
749,549.6610191665443
750,549.7325088936615
751,549.826542892148
752,549.9381455736004
753,550.0613379227459
754,550.1893491194807
755,550.3149222171476
756,550.4307247655887
757,550.5298340551898
758,550.6062312041317
759,550.6552297805988
760,550.6737813818963
761,550.6606231715477
762,550.6162477803598
763,550.5426901998449
764,550.4431512080157
765,550.3215088443826
766,550.1817928342125
767,550.0277059795819
768,549.8622757929852
769,549.687704560498
770,549.5054433492325
771,549.316446836564
772,549.1215017968387
773,548.9215004628104
774,548.7175600413985
775,548.5109489151093
776,548.3028425436198
777,548.0939850658751
778,547.8843666020925
779,547.6730261202222
780,547.4580502407559
781,547.2367811122799
782,547.0062029803221
783,546.7634558503061
784,546.50640846886
785,546.2341995889386
786,545.947642153867
787,545.6494039234392
788,545.3439250881387
789,545.0370780396782
790,544.7356018639873
791,544.4463695508243
792,544.1755852880082
793,543.9280494088763
794,543.7066331666343
795,543.5120528253221
796,543.3429445092326
797,543.1961658070053
798,543.0672208200807
799,542.9507244179912
800,542.8408670795808
801,542.7318803252521
802,542.6185082624744
803,542.4964644810216
804,542.3628217946633
805,542.2162709217822
806,542.0571994339763
807,541.8875760806854
808,541.7106654435681
809,541.5306268024091
810,541.3520555990987
811,541.179512601267
812,541.0170749603589
813,540.86794424626
814,540.7341517273052
815,540.6163989637165
816,540.5140581627014
817,540.4253354864189
818,540.3475745611689
819,540.2776504319013
820,540.2123885791659
821,540.1489504923928
822,540.0851504519136
823,540.0196889212754
824,539.9522926282625
825,539.8837421805374
826,539.8157606997149
827,539.7507495982935
828,539.691397423522
829,539.6402391360709
830,539.5992721596193
831,539.5697183222321
832,539.5519663066469
833,539.5456681039232
834,539.5499265343524
835,539.5635139894429
836,539.5850888164852
837,539.6133908480501
838,539.6473882043098
839,539.6863350052835
840,539.729713036136
841,539.7770753379284
842,539.8278605442133
843,539.8812663842322
844,539.9362432532553
845,539.9916131153938
846,540.046268562987
847,540.09938289497
848,540.150567603917
849,540.1999383227497
850,540.2480800949121
851,540.2959321646194
852,540.344638811054
853,540.3954220193081
854,540.449510310148
855,540.5081187744954
856,540.5724515070451
857,540.6437069210003
858,540.7230907199128
859,540.8118463541608
860,540.911289881486
861,541.0228132423241
862,541.1478221321196
863,541.2875950350106
864,541.4430704164083
865,541.614582136825
866,541.801570028097
867,542.002299869922
868,542.2136402400901
869,542.4309588952254
870,542.6482089393489
871,542.8582618794981
872,543.0534957167997
873,543.2265666147774
874,543.3712206239068
875,543.482979786929
876,543.5595743798043
877,543.601064927999
878,543.6096690832219
879,543.5893587882975
880,543.5453211090336
881,543.4833839643308
882,543.4094900549667
883,543.3292617885044
884,543.2476643169848
885,543.168768362258
886,543.0956273049582
887,543.0302769454248
888,542.9738280277027
889,542.9265825224296
890,542.8881031122178
891,542.8572003284382
892,542.831846185152
893,542.8090665422571
894,542.784906043999
895,542.7545719911332
896,542.7128110608328
897,542.6544679278195
898,542.5750867336506
899,542.471409639826
900,542.3416969238924
901,542.1858741811827
902,542.0055488754628
903,541.8039298457049
904,541.5856566308781
905,541.356524026826
906,541.1230903656153
907,540.8921947078018
908,540.670459276362
909,540.4638791788941
910,540.2775759185805
911,540.1157258906507
912,539.9816073592667
913,539.8776714477518
914,539.80554489688
915,539.7659102535289
916,539.758271786954
917,539.7806842696829
918,539.8295694642795
