acceleration,velocity,displacement
0.009146492657940713,0.0,0.0
0.00966527960536701,4.702943065826931e-06,1.1757357664567329e-09
0.010182519447172928,9.664892828961915e-06,4.767694740153945e-09
0.010696675907022633,1.4884691667510806e-05,1.0905090864272125e-08
0.011206234164278975,2.0360419185336207e-05,1.971636857748388e-08
0.011709711093940192,2.6089405499891e-05,3.1328824748790683e-08
0.012205664972919453,3.206824951660591e-05,4.5868238502914914e-08
0.012692704550113586,3.8292841897364166e-05,6.345851135640743e-08
0.013169497418988924,4.475839238963979e-05,8.422131992815842e-08
0.013634777659285273,5.145946115920834e-05,1.0827578331537045e-07
0.014087352724666716,5.838999375519634e-05,1.3573814704397162e-07
0.014526109548174012,6.554335932340652e-05,1.6672148531362235e-07
0.014950019824882583,7.291239166667068e-05,2.0133542306114164e-07
0.015358144420704137,8.048943272806736e-05,2.3968587915982615e-07
0.015749636856297707,8.826637804731783e-05,2.8187483185367244e-07
0.016123745828964656,9.623472371863342e-05,3.2800010729516027e-07
0.01647981675909776,0.00010438561436564902,3.781551918162309e-07
0.016817292371971646,0.00011270989164841638,4.3242906831974723e-07
0.017135712342646776,0.00012119814282707099,4.909060769386191e-07
0.017434712038878176,0.00012984074892245223,5.536657998759999e-07
0.017714020394354133,0.0001386279320307603,6.207829701143031e-07
0.017973456934919484,0.0001475498013630787,6.923274034627628e-07
0.018212927969262636,0.00015659639758912422,7.683639532008135e-07
0.01843242195241262,0.00016575773506954304,8.489524863654804e-07
0.01863200404226221,0.00017502384156821175,9.34147880524919e-07
0.018811809894916574,0.00018438479505250644,1.0240000396800985e-06
0.01897203877609475,0.00019383075722025927,1.11855392774829e-06
0.019112946095418654,0.00020335200343813762,1.217849617912889e-06
0.019234835491804443,0.0002129389488349434,1.3219223559811592e-06
0.019338050607902692,0.00022258217035987018,1.4308026357798627e-06
0.019422966692619843,0.00023227242468500082,1.5445162845410804e-06
0.019489982171518497,0.0002420006619010354,1.6630845561875895e-06
0.019539510330287668,0.00025175803502648696,1.7865242304194702e-06
0.019571971263785844,0.00026153590542500534,1.914847715532343e-06
0.01958778424553011,0.0002713258443023343,2.048063152964178e-06
0.019587360666041016,0.0002811196305302271,2.1861745216723186e-06
0.019571097675151534,0.0002909092451155252,2.329181740583757e-06
0.019539372648632737,0.00030068686269647127,2.477080767536756e-06
0.01949253858515791,0.0003104448405049189,2.6298636933371038e-06
0.019430920521749596,0.0003201757052816458,2.7875188297837448e-06
0.019354813029507204,0.00032987213866946,2.950030790771521e-06
0.01926447881434649,0.00033952696163042344,3.117380565846492e-06
0.01916014840098105,0.0003491331184342553,3.2895455858626616e-06
0.019042020828892937,0.0003586836607417238,3.4664997806566566e-06
0.018910265246184103,0.00036817173226049305,3.6482136289072108e-06
0.018765023256440028,0.0003775905543861491,3.834654200568871e-06
0.018606411855339407,0.000386933413164094,4.025785192456432e-06
0.01843452679044958,0.00039619364782554124,4.221566957703841e-06
0.018249446193030577,0.00040536464107141125,4.421956529928079e-06
0.018051234360924286,0.0004144398112099,4.626907642998407e-06
0.017839945605252438,0.00042341260620144415,4.836370747351243e-06
0.017615628101198925,0.00043227649962805696,5.050293023808619e-06
0.017378327702546294,0.0004410249885789933,5.268618395860381e-06
0.017128091691410358,0.00044965159342748247,5.491287541362e-06
0.01686497243626266,0.0004581498594594007,5.718237904583721e-06
0.016589030921005735,0.00046651336029871783,5.94940370952325e-06
0.01630034009150999,0.0004747357030518468,6.184715975360891e-06
0.01599898795675481,0.00048281053506391296,6.424102534889831e-06
0.01568508038874082,0.0004907315521502869,6.667488056693381e-06
0.015358743584496548,0.0004984925081435962,6.914794071766852e-06
0.015020126172505142,0.0005060872255828467,7.165939005198463e-06
0.014669400955998864,0.0005135096073649727,7.420838213435417e-06
0.014306766286816526,0.0005207536491756765,7.67940402757058e-06
0.013932447059901099,0.000527813452512356,7.941545802992587e-06
0.013546695314248923,0.0005346832381058935,8.20716997564715e-06
0.013149790424815138,0.0005413573595406595,8.476180125058788e-06
0.012742038873996994,0.0005478303168653625,8.748477044160293e-06
0.012323773601597414,0.0005540967699842612,9.0239588158727e-06
0.01189535294549652,0.0005601515516210346,9.302520896274023e-06
0.011457159197354171,0.0005659896796567473,9.584056204093468e-06
0.01100959680800025,0.0005716063686580858,9.868455216172175e-06
0.010553090288012096,0.0005769970404320889,1.0155606068444719e-05
0.010088081860767687,0.0005821573334692838,1.0445394661920062e-05
0.00961502893478396,0.0005870831111681717,1.0737704773079425e-05
0.009134401463954249,0.0005917704687678563,1.1032418168063433e-05
0.008646679254289054,0.0005962157389474171,1.1329414719992251e-05
0.008152349257427279,0.0006004154960753463,1.1628572528747941e-05
0.007651902876373883,0.0006043665591087965,1.1929768042543978e-05
0.007145833304821815,0.0006080659931540955,1.22328761806097e-05
0.0066346329237675795,0.0006115111097112428,1.2537770456326034e-05
0.006118790779888409,0.0006146994656371568,1.2844323100163135e-05
0.005598790167846704,0.0006176288608740906,1.3152405181790946e-05
0.005075106338158032,0.0006202973350005917,1.3461886730759617e-05
0.0045482043556275605,0.0006227031626740381,1.3772636855178275e-05
0.004018537135982208,0.0006248448480469406,1.408452385785852e-05
0.0034865436855861915,0.0006267211182523326,1.4397415349433339e-05
0.0029526475622292606,0.0006283309160642865,1.4711178358012494e-05
0.002417255567147352,0.0006296733918466306,1.5025679434990223e-05
0.0018807566703297805,0.000630747894906,1.534078475667838e-05
0.0013435211631245027,0.0006315539643643635,1.5656360221495974e-05
0.0008059000238961881,0.0006320913196611186,1.5972271542502343e-05
0.0002682244737523437,0.0006323598507855308,1.6288384335114004e-05
-0.00026919430624378776,0.0006323596083274079,1.660456419989224e-05
-0.0008060653209297687,0.0006320907934206144,1.6920676800329244e-05
-0.0013421177816028316,0.0006315537476449813,1.7236587935595644e-05
-0.0018771010000145703,0.0006307489429495769,1.7552163608244283e-05
-0.002410784148333524,0.0006296769716624899,1.78672700868973e-05
-0.0029429558765945245,0.0006283385366562578,1.8181773963976985e-05
-0.0034734237814421985,0.0006267344417417486,1.8495542208576487e-05
-0.0040020137248050845,0.0006248655823651868,1.880844221460322e-05
-0.004528569004282289,0.000622732936682915,1.9120341844365247e-05
-0.005052949373385148,0.0006203375570884982,1.94311094678081e-05
-0.005575029900362688,0.0006176805622700612,1.974061399764774e-05
-0.006094699646091684,0.0006147631298834477,2.0048724920686117e-05
-0.00661186014057578,0.0006115864899367808,2.0355312325641174e-05
-0.0071264236462456314,0.0006081519189900755,2.066024692787289e-05
-0.00763831121140966,0.0006044607352756617,2.0963400091439324e-05
-0.008147450533693467,0.0006005142948393859,2.1264643848968086e-05
-0.008653773668054022,0.0005963139887889491,2.156385091987517e-05
-0.00915721462381202,0.0005918612417159826,2.1860894727501402e-05
-0.009657706897284363,0.0005871575113357085,2.2155649415764326e-05
-0.010155180983003352,0.0005822042893656366,2.244798986593966e-05
-0.010649561903022242,0.0005770031036441303,2.2737791714192102e-05
-0.01114076679265623,0.0005715555214702106,2.3024931370470688e-05
-0.01162870258228706,0.0005658631541264748,2.330928603936986e-05
-0.012113263820502556,0.0005599276625257774,2.3590733743532922e-05
-0.012594330692469792,0.0005537507638975343,2.386915335013875e-05
-0.013071767291271508,0.0005473342394015989,2.4144424600963535e-05
-0.013545420196854265,0.0005406799425295675,2.4416428146446327e-05
-0.01401511741596778,0.000533789808126362,2.468504558411031e-05
-0.014480667742097936,0.0005266658618368455,2.4950159501601112e-05
-0.014941860597121666,0.0005193102297520407,2.5211653524498335e-05
-0.015398466402408715,0.000511725148002158,2.5469412368936886e-05
-0.015850237494009968,0.0005039129720280533,2.5723321898944438e-05
-0.016296909554363,0.0004958761852659601,2.5973269188267942e-05
-0.01673820349463931,0.0004876174070037096,2.621914258633536e-05
-0.017173827696729222,0.0004791393992058674,2.6460831787887754e-05
-0.017603480514295805,0.0004704450721531112,2.6698227905727497e-05
-0.018026852933247496,0.00046153748879122536,2.693122354596358e-05
-0.018443631293508036,0.0004524198677345365,2.715971288509502e-05
-0.01885349996981109,0.0004430955849187067,2.738359174825833e-05
-0.019256143902877866,0.00043356817395053443,2.760275768797564e-05
-0.019651250874574255,0.0004238413252561714,2.7817110062777314e-05
-0.020038513438941988,0.00041391888417779233,2.8026550115135806e-05
-0.020417630452707485,0.00040380484820488,2.8230981048231475e-05
-0.02078830818450281,0.0003935033635455774,2.843030810116909e-05
-0.02115026101418214,0.00038301872124590615,2.8624438622366962e-05
-0.021503211758847514,0.00037235535305264874,2.88132821409416e-05
-0.02184689167884484,0.00036151782719322565,2.899675043600307e-05
-0.02218104022357574,0.0003505108442176205,2.917475760385578e-05
-0.02250540457495941,0.0003393392330179867,2.9347220123164683e-05
-0.022819739042436924,0.00032800794711363763,2.9514056918197588e-05
-0.023123804364641513,0.00031652206126186804,2.9675189420291463e-05
-0.02341736697980709,0.0003048867684257559,2.983054162771337e-05
-0.023700198333019958,0.0002931073770975491,2.9980040164094196e-05
-0.023972074284855902,0.00028118930894308015,3.0123614335604353e-05
-0.024232774672222738,0.00026913809670381047,3.0261196187016076e-05
-0.02448208305586708,0.000256959382271788,3.0392720556759977e-05
-0.02471978667840348,0.0002446589148382204,3.051812513103748e-05
-0.024945676651490306,0.00023224254900574694,3.063735049699847e-05
-0.025159548383433747,0.00021971624274701594,3.0750340194936656e-05
-0.02536120224510272,0.0002070860550898818,3.085704076939588e-05
-0.025550444458935333,0.0001943581434138723,3.095740181902182e-05
-0.02572708819217551,0.00018153876025109458,3.105137604493806e-05
-0.025890954841193383,0.00016863424949275236,3.113891929737402e-05
-0.02604187550024318,0.00015565104190739322,3.121999062022406e-05
-0.02617969260876845,0.00014259564988014032,3.129455229317094e-05
-0.02630426176708228,0.00012947466128617765,3.136256987096252e-05
-0.026415453706463345,0.00011629473241779125,3.1424012219388515e-05
-0.026513156402065096,0.00010306257989065914,3.147885154746563e-05
-0.0265972773265147,8.97849714585142e-05,3.152706343530293e-05
-0.026667745853510765,7.646871566350783e-05,3.156862685708343e-05
-0.02672451582845904,6.312065024301538e-05,3.160352419856006e-05
-0.02676756832477175,4.9747629204707674e-05,3.163174126842199e-05
-0.026796914597019914,3.6356508474259756e-05,3.1653267302841736e-05
-0.026812599221227532,2.2954130019697893e-05,3.166809496246523e-05
-0.026814703378140244,9.547304369855949e-06,3.1676220321062616e-05
-0.02680334819546114,-3.857208523544398e-06,3.1677642845024196e-05
-0.026778698033377728,-1.7252720080754115e-05,3.167236536287312e-05
-0.026740963584039535,-3.063263548510843e-05,3.1660394023981654e-05
-0.02669040466098934,-4.3990477546365655e-05,3.164173824572379e-05
-0.026627332571250925,-5.731991185442572e-05,3.1616410648373585e-05
-0.02655211197970839,-7.061477299216554e-05,3.1584426977161934e-05
-0.026465162186003977,-8.386909153359363e-05,3.154580601103049e-05
-0.026366957740052644,-9.707712151510778e-05,3.1500569457768314e-05
-0.026258028328953197,-0.00011023336803235924,3.144874183538145e-05
-0.026138957878159844,-0.0001233326145841375,3.1390350339727324e-05
-0.02601038282109718,-0.00013636994975895175,3.132542469864155e-05
-0.025872989503334408,-0.00014934079284005964,3.12539970129918e-05
-0.025727510704123414,-0.0001622409178919241,3.11761015853088e-05
-0.02557472128237541,-0.00017506647588854882,3.109177473686368e-05
-0.025415432984427173,-0.00018781401445524946,3.100105461427773e-05
-0.025250488480856138,-0.00020048049482157028,3.090398098695853e-05
-0.025080754721064802,-0.00021306330562205052,3.0800595036847625e-05
-0.024907115702925444,-0.0002255602732280481,3.06909391421351e-05
-0.02473046475738863,-0.00023796966834312662,3.0575056656742304e-05
-0.024551696456141393,-0.0002502902086465091,3.0452991687494895e-05
-0.024371698266914578,-0.00026252105732727307,3.032478887100145e-05
-0.02419134209748073,-0.0002746618174183719,3.019049315231504e-05
-0.024011475876689194,-0.0002867125219119144,3.005014956748247e-05
-0.023832915317263285,-0.0002986736197104025,2.990380303207689e-05
-0.02365643599455172,-0.0003105459575383563,2.9751498137764697e-05
-0.02348276586146472,-0.0003223307580023604,2.9593278958879518e-05
-0.02331257830220889,-0.00033402959404327877,2.942918887086811e-05
-0.023146485806374552,-0.00034564436007042463,2.9259270382339682e-05
-0.022985034326288456,-0.0003571772401035904,2.908356498229618e-05
-0.022828698370170656,-0.0003686306732777052,2.8902113003950854e-05
-0.022677876880908773,-0.00038000731709047505,2.871495350635881e-05
-0.022532889948746596,-0.00039131000879788887,2.8522124174886718e-05
-0.02239397640073259,-0.00040254172538525866,2.832366124134093e-05
-0.02226129229974882,-0.000413705542560379,2.8119599424354523e-05
-0.02213491037516626,-0.00042480459322910774,2.7909971890407153e-05
-0.022014820399690497,-0.0004358420259228219,2.769481023561917e-05
-0.021900930522585377,-0.00044682096365339087,2.7474144488225117e-05
-0.021793069562861044,-0.00045774446367475246,2.724800313139308e-05
-0.021690990253005162,-0.000468615478628719,2.7016413145817213e-05
-0.021594373407251836,-0.00047943681954378323,2.677940007127409e-05
-0.021502832971207655,-0.0004902111211383981,2.6536988086103543e-05
-0.02141592189138121,-0.0005009408098540453,2.628920010335543e-05
-0.021333138723802172,-0.0005116280750078412,2.6036057882139958e-05
-0.021253934884844727,-0.0005222748434100028,2.5777582152535495e-05
-0.021177722435882028,-0.0005328827577401845,2.551379275224795e-05
-0.021103882283576576,-0.0005434531589200492,2.524470877308289e-05
-0.021031772665832192,-0.0005539870726574014,2.4970348715188527e-05
-0.02096073777981816,-0.000564485200268814,2.4690730646956975e-05
-0.02089011639797866,-0.0005749479138132633,2.4405872368436455e-05
-0.02081925031864122,-0.0005853752554924182,2.4115791576110034e-05
-0.020747492515022094,-0.000595766941200834,2.382050602693672e-05
-0.02067421487648331,-0.0006061223680487104,2.3520033699624334e-05
-0.020598815467228523,-0.0006164406256346384,2.3214392951203496e-05
-0.020520725247427523,-0.0006267205108133023,2.2903602667091512e-05
-0.020439414205745243,-0.0006369605456765955,2.2587682402969038e-05
-0.020354396847723232,-0.0006471589984399627,2.2266652516939898e-05
-0.020265236983615986,-0.0006573139068977975,2.1940534290605458e-05
-0.020171551766901122,-0.0006674231040854268,2.1609350037859652e-05
-0.020073014946238414,-0.0006774842457637117,2.1273123200397368e-05
-0.01996935930345707,-0.0006874948393261356,2.0931878429124904e-05
-0.01986037825636591,-0.0006974522737160913,2.058564165086435e-05
-0.019745926608917504,-0.0007073538499324122,2.0234440119952222e-05
-0.019625920435804356,-0.0007171968116935927,1.987830245454572e-05
-0.019500336099645816,-0.0007269783758274552,1.951725865766546e-05
-0.019369208420378294,-0.0007366957619574612,1.915134012321923e-05
-0.019232628044527054,-0.0007463462210736875,1.8780579627461445e-05
-0.01909073808425014,-0.0007559270626058818,1.8405011306541553e-05
-0.018943730103258418,-0.000765435679652759,1.8024670620976894e-05
-0.018791839522076796,-0.0007748695720590928,1.7639594308048932e-05
-0.018635340510236156,-0.000784226367067171,1.7249820323267367e-05
-0.018474540434685417,-0.0007935038373034014,1.6855387772174722e-05
-0.01830977393911685,-0.000802699915896852,1.645633683387466e-05
-0.01814139673014805,-0.0008118127085641682,1.6052708677759405e-05
-0.01796977914092268,-0.000820840502531936,1.5644545374985378e-05
-0.017795299535611337,-0.0008297817722010695,1.5231889806302127e-05
-0.01761833761688971,-0.0008386351814891948,1.4814785567879561e-05
-0.017439267704562084,-0.0008473995828195577,1.4393276876802373e-05
-0.017258452063434543,-0.0008560740127615569,1.3967408477907095e-05
-0.017076234366848513,-0.0008646576843691276,1.3537225553624424e-05
-0.016892933385676254,-0.0008731499763072587,1.3102773638455328e-05
-0.016708836989857985,-0.0008815504189011422,1.2664098539653228e-05
-0.01652419654196381,-0.0008898586772840977,1.2221246265606918e-05
-0.016339221751502854,-0.0008980745318574644,1.1774262963321527e-05
-0.01615407604597392,-0.0009061978563068337,1.1323194866280454e-05
-0.01596887250166446,-0.0009142285934437433,1.0868088253842809e-05
-0.015783670365266757,-0.000922166729160476,1.0408989423191753e-05
-0.015598472186232582,-0.0009300122647983508,9.945944674702047e-06
-0.015413221572528675,-0.0009377651882380412,9.47900031144295e-06
-0.01522780158609132,-0.0009454254440276962,9.008202653376514e-06
-0.015042033808443937,-0.00095299290287633,8.533598066650507e-06
-0.014855678119820965,-0.0009604673308583962,8.055233008216825e-06
-0.014668433235521878,-0.000967848358697232,7.573154085827918e-06
-0.014479938031879842,-0.0009751354515140824,7.087408133275089e-06
-0.0142897736793555,-0.0009823278794418913,6.5980423005360955e-06
-0.014097466587462719,-0.0009894246895085959,6.1051041582984735e-06
-0.013902492155874292,-0.0009964246791944302,5.608641816122717e-06
-0.01370427931386069,-0.0010033263720618639,5.108704053308644e-06
-0.01350221580941666,-0.0010101279958426833,4.605340461332507e-06
-0.013295654178103137,-0.0010168274633395632,4.0986015965369455e-06
-0.013083918287368539,-0.0010234223564559311,3.5885391415880717e-06
-0.01286631032619872,-0.001029909913609323,3.075206074071758e-06
-0.012642118097307612,-0.0010362870207151996,2.5586568404906276e-06
-0.012410622467255853,-0.0010425502058563404,2.0389475338477424e-06
-0.012171104835743317,-0.0010486956376820902,1.5161360729631347e-06
-0.01192285449889381,-0.0010547191275157494,9.902823816636749e-07
-0.011665175800372898,-0.001060616135090566,4.61448566012096e-07
-0.011397394981026104,-0.0010663817777859157,-7.03009122070245e-08
-0.011118866645879504,-0.001072010843192642,-6.048990674516639e-07
-0.01082897976975424,-0.0010774978047965503,-1.1422762294489619e-06
-0.010527163168439983,-0.001082836840531099,-1.6823598907808743e-06
-0.010212890375638585,-0.0010880218539171187,-2.225074564392929e-06
-0.009885683882492164,-0.0010930464974816514,-2.7703416522426214e-06
-0.009545118709806271,-0.001097904198129726,-3.318079326145466e-06
-0.009190825292092954,-0.0011025881841302007,-3.868202421710448e-06
-0.008822491663116501,-0.001107091513369003,-4.420622346085249e-06
-0.008439864951864025,-0.0011114071025227481,-4.9752470000581866e-06
-0.008042752226410398,-0.0011155277568173168,-5.531980714893203e-06
-0.007631020752542307,-0.0011194462000620549,-6.090724204113046e-06
-0.00720459775205361,-0.0011231551046882039,-6.65137453030061e-06
-0.006763469746290708,-0.00112664712156279,-7.213825086863359e-06
-0.006307681559312231,-0.0011299149093891906,-7.777965594601354e-06
-0.005837335044095072,-0.0011329511635400423,-8.343682112833662e-06
-0.005352587592462777,-0.0011357486441991816,-8.910857064768468e-06
-0.004853650492366186,-0.001138300203720389,-9.47936927674836e-06
-0.0043407871952867725,-0.0011405988131423022,-1.0049094030964033e-05
-0.0038143115469594147,-0.0011426375878278638,-1.0619903131206575e-05
-0.003274586021989174,-0.001144409812220101,-1.1191664981218567e-05
-0.002722019995151165,-0.001145908963724386,-1.1764244675204688e-05
-0.002157068077997659,-0.0011471287357426732,-1.2337504100071453e-05
-0.0015802285426872419,-0.0011480630598978444,-1.2911302048981583e-05
-0.0009920418444559498,-0.0011487061274946303,-1.3485494345829702e-05
-0.0003930892433718202,-0.0011490524102665872,-1.4059933980270006e-05
0.00021600848521028307,-0.0011490966804561277,-1.4634471252950685e-05
