frame_number,force
0,613.0035810581684
1,612.9597207214196
2,612.916764174134
3,612.8748298219108
4,612.8340342596613
5,612.7944919169112
6,612.7563147071634
7,612.7196116829016
8,612.6844886977135
9,612.6510480760546
10,612.6193882897757
11,612.5896036391856
12,612.5617839354715
13,612.5360141811908
14,612.5123742464983
15,612.4909385403045
16,612.4717756771257
17,612.4549481419208
18,612.4405119568779
19,612.4285163555455
20,612.4190034702864
21,612.4120080386842
22,612.4075571336206
23,612.405669920733
24,612.4063574461705
25,612.4096224572337
26,612.4154592588211
27,612.4238536094156
28,612.4347826611158
29,612.4482149487436
30,612.4641104335165
31,612.4824206069303
32,612.5030886596608
33,612.5260497182791
34,612.551231149989
35,612.5785529331196
36,612.6079280891296
37,612.639263170681
38,612.6724588000975
39,612.7074102530183
40,612.7440080825652
41,612.7821387791689
42,612.8216854603462
43,612.8625285837538
44,612.9045466763374
45,612.9476170723976
46,612.9916166536996
47,613.0364225852118
48,613.0819130408972
49,613.1279679153404
50,613.1744695185728
51,613.2213032527789
52,613.2683582705913
53,613.3155281156081
54,613.3627113463126
55,613.4098121440687
56,613.4567409041127
57,613.5034148061175
58,613.5497583588624
59,613.5957039122069
60,613.6411921289086
61,613.6861724089146
62,613.7306032594843
63,613.7744526052828
64,613.8176980327562
65,613.8603269628032
66,613.9023367457561
67,613.9437346735975
68,613.9845379059481
69,614.0247733079275
70,614.0644771991565
71,614.1036950140317
72,614.1424808742867
73,614.1808970760243
74,614.2190134949166
75,614.2569069148504
76,614.2946602866564
77,614.332361924787
78,614.3701046512192
79,614.4079848974103
80,614.4461017762585
81,614.4845561359645
82,614.5234496063716
83,614.5628836463538
84,614.6029585988438
85,614.6437727584746
86,614.6854214556356
87,614.7279961602638
88,614.7715836089578
89,614.8162649594979
90,614.8621149771287
91,614.9092012573376
92,614.9575834910793
93,615.0073127805724
94,615.0584310159529
95,615.1109703241143
96,615.1649526009323
97,615.2203891374032
98,615.2772803490814
99,615.3356156159599
100,615.3953732365296
101,615.4565204961872
102,615.5190138475303
103,615.5827991985295
104,615.6478123036164
105,615.713979251959
106,615.7812170464335
107,615.8494342658802
108,615.9185318020071
109,615.9884036609194
110,616.0589378180031
111,616.1300171138553
112,616.2015201780843
113,616.2733223674355
114,616.3452967054642
115,616.41731481313
116,616.489247822729
117,616.5609672704454
118,616.6323459645997
119,616.7032588272714
120,616.7735837068376
121,616.8432021585432
122,616.912000189705
123,616.9798689655813
124,617.0467054714399
125,617.1124131262208
126,617.1769023434772
127,617.2400910355464
128,617.301905056749
129,617.3622785808892
130,617.4211544076793
131,617.4784841921418
132,617.5342285908804
133,617.588357319848
134,617.6408491200672
135,617.691691630421
136,617.7408811695477
137,617.7884224314628
138,617.8343281012594
139,617.8786183978159
140,617.9213205500937
141,617.9624682130592
142,618.0021008291722
143,618.0402629419754
144,618.077003469452
145,618.1123749463385
146,618.1464327463865
147,618.1792342973276
148,618.2108383023425
149,618.2413039817503
150,618.2706903475848
151,618.2990555222872
152,618.3264561115578
153,618.352946640741
154,618.3785790634947
155,618.4034023499682
156,618.4274621588215
157,618.450800593717
158,618.4734560415751
159,618.4954630879029
160,618.516852504055
161,618.5376513017351
162,618.5578828505371
163,618.5775670544756
164,618.5967205832243
165,618.6153571531703
166,618.6334878522408
167,618.6511215010241
168,618.6682650416896
169,618.6849239460973
170,618.7011026350524
171,618.7168049010963
172,618.7320343269402
173,618.7467946907794
174,618.7610903491585
175,618.7749265882857
176,618.7883099354102
177,618.8012484224332
178,618.8137517942515
179,618.8258316550882
180,618.8375015479423
181,618.8487769652097
182,618.8596752916068
183,618.8702156828484
184,618.8804188846807
185,618.8903069970264
186,618.8999031879139
187,618.9092313623568
188,618.9183157924671
189,618.9271807161427
190,618.93584991225
191,618.9443462605608
192,618.9526912952136
193,618.9609047609615
194,618.9690041813436
195,618.9770044469849
196,618.9849174310365
197,618.9927516378126
198,619.0005118898407
199,619.008199057553
200,619.0158098347523
201,619.0233365620993
202,619.030767100252
203,619.0380847535495
204,619.0452682438647
205,619.0522917324845
206,619.0591248860809
207,619.0657329816277
208,619.0720770450243
209,619.0781140191548
210,619.0837969584791
211,619.0890752485724
212,619.0938948503251
213,619.0981985697056
214,619.1019263545351
215,619.1050156192338
216,619.107401597229
217,619.1090177194679
218,619.1097960169623
219,619.1096675455872
220,619.1085628318688
221,619.1064123384948
222,619.1031469475234
223,619.0986984580693
224,619.0930000943064
225,619.085987019441
226,619.077596851556
227,619.0677701769732
228,619.0564510556374
229,619.0435875116743
230,619.0291320015048
231,619.0130418518025
232,618.9952796599447
233,618.9758136505372
234,618.9546179833642
235,618.9316730102485
236,618.9069654799677
237,618.8804886911586
238,618.8522425934442
239,618.8222338373167
240,618.7904757737446
241,618.7569884048144
242,618.7217982867661
243,618.6849383867388
244,618.646447894819
245,618.6063719936224
246,618.5647615882365
247,618.5216729994855
248,618.4771676232249
249,618.4313115581778
250,618.3841752050851
251,618.3358328404876
252,618.2863621689189
253,618.2358438574474
254,618.1843610563628
255,618.1319989092672
256,618.0788440550311
257,618.0249841235559
258,617.9705072274458
259,617.915501452276
260,617.8600543485016
261,617.8042524279704
262,617.7481806679824
263,617.6919220264906
264,617.6355569732476
265,617.5791630427647
266,617.522814415382
267,617.4665815327024
268,617.4105307532794
269,617.3547240536599
270,617.2992187787527
271,617.2440674444347
272,617.1893175946424
273,617.1350117147448
274,617.0811872022163
275,617.0278763940322
276,616.97510664812
277,616.922900474774
278,616.871275713962
279,616.8202457553609
280,616.769819798571
281,616.7200031507404
282,616.6707975582415
283,616.6222015687117
284,616.5742109196416
285,616.526818949153
286,616.4800170233699
287,616.4337949732565
288,616.3881415326684
289,616.3430447691394
290,616.2984924996546
291,616.2544726847783
292,616.2109737954215
293,616.1679851471126
294,616.1254971970613
295,616.0835017997277
296,616.0419924172019
297,616.0009642814806
298,615.9604145064538
299,615.9203421478704
300,615.8807482098545
301,615.8416355969405
302,615.8030090113098
303,615.7648747961609
304,615.7272407279213
305,615.6901157618673
306,615.6535097371979
307,615.6174330487227
308,615.5818962934728
309,615.5469099016797
310,615.5124837621173
311,615.4786268511941
312,615.445346873658
313,615.4126499211657
314,615.3805401538515
315,615.3490195094612
316,615.318087444292
317,615.2877407097656
318,615.2579731678348
319,615.2287756477316
320,615.2001358459719
321,615.172038270865
322,615.1444642317529
323,615.1173918720586
324,615.0907962444649
325,615.0646494263908
326,615.0389206740018
327,615.0135766126562
328,614.9885814606839
329,614.9638972819823
330,614.939484261758
331,614.9153009993514
332,614.8913048124566
333,614.8674520476449
334,614.8436983922643
335,614.8199991824955
336,614.7963097022255
337,614.7725854682437
338,614.7487824994339
339,614.7248575706589
340,614.7007684546667
341,614.6764741564289
342,614.6519351439902
343,614.6271135793305
344,614.6019735527302
345,614.576481324278
346,614.550605575489
347,614.5243176722568
348,614.4975919384335
349,614.470405938195
350,614.4427407650847
351,614.4145813356308
352,614.3859166850393
353,614.3567402615793
354,614.3270502153854
355,614.2968496771799
356,614.2661470229204
357,614.2349561209367
358,614.2032965582414
359,614.1711938426303
360,614.1386795771513
361,614.1057916031418
362,614.0725741069609
363,614.0390776843592
364,614.0053593561204
365,613.9714825295819
366,613.9375169024839
367,613.9035383075418
368,613.8696284974859
369,613.8358748708159
370,613.8023701383679
371,613.7692119305412
372,613.7365023452851
373,613.7043474378999
374,613.6728566550217
375,613.642142216404
376,613.6123184491644
377,613.5835010800577
378,613.5558064920411
379,613.5293509518596
380,613.5042498156196
381,613.4806167195637
382,613.4585627635063
383,613.4381956943744
384,613.4196190966943
385,613.4029315955515
386,613.3882260759444
387,613.3755889215394
388,613.3650992765187
389,613.3568283363763
390,613.3508386760444
391,613.3471836255329
392,613.3459067039158
393,613.3470411220706
394,613.3506093633683
395,613.3566228499066
396,613.3650816999717
397,613.37597458004
398,613.3892786518908
399,613.4049596129731
400,613.4229718266251
401,613.4432585382018
402,613.4657521731639
403,613.4903747130046
404,613.5170381441454
405,613.5456449740199
406,613.5760888080501
407,613.6082549810608
408,613.6420212364968
409,613.677258446628
410,613.7138313668537
411,613.751599417257
412,613.7904174849934
413,613.8301367424762
414,613.8706054784747
415,613.9116699410114
416,613.9531751913327
417,613.9949659673932
418,614.0368875540298
419,614.0787866557467
420,614.1205122666837
421,614.1619165308134
422,614.202855584059
423,614.2431903693073
424,614.2827874155275
425,614.3215195734576
426,614.3592667024923
427,614.395916305978
428,614.4313641141887
429,614.4655146150569
430,614.4982815323342
431,614.5295882499121
432,614.5593681799451
433,614.5875650711973
434,614.6141332528034
435,614.6390378079931
436,614.6622546728752
437,614.6837706569078
438,614.7035833832393
439,614.7217011479509
440,614.7381426977356
441,614.7529369267152
442,614.7661224951939
443,614.7777473753526
444,614.7878683301537
445,614.7965503319053
446,614.8038659265067
447,614.8098945490273
448,614.814721796415
449,614.8184386637985
450,614.8211407517833
451,614.8229274531874
452,614.8239011287483
453,614.8241662820487
454,614.8238287436271
455,614.8229948728651
456,614.821770784352
457,614.8202616037665
458,614.8185707570299
459,614.8167992953307
460,614.8150452578
461,614.813403073685
462,614.8119630070188
463,614.8108106485137
464,614.8100264610075
465,614.8096853857021
466,614.8098565162478
467,614.8106028461494
468,614.81198109201
469,614.8140415913219
470,614.8168282697965
471,614.8203786705093
472,614.8247240357969
473,614.8298894324759
474,614.8358939111085
475,614.8427506909005
476,614.8504673638504
477,614.8590461146252
478,614.8684839549933
479,614.8787729723977
480,614.8899005916733
481,614.9018498483907
482,614.9145996730895
483,614.9281251875708
484,614.9423980161953
485,614.957386615624
486,614.9730566254028
487,614.9893712396863
488,615.0062915979304
489,615.0237771900651
490,615.0417862699521
491,615.0602762704826
492,615.0792042146691
493,615.09852711857
494,615.1182023826351
495,615.1381881680622
496,615.1584437548427
497,615.1789298784732
498,615.1996090423169
499,615.2204458021325
500,615.2414070188399
501,615.2624620755289
502,615.2835830551122
503,615.3047448757251
504,615.3259253818513
505,615.3471053901759
506,615.3682686905082
507,615.3894020039905
508,615.4104949029141
509,615.4315396981298
510,615.452531300797
511,615.473467065162
512,615.4943466185084
513,615.515171683478
514,615.535945896542
515,615.5566746246801
516,615.5773647808677
517,615.598024638151
518,615.6186636415773
519,615.6392922165301
520,615.6599215711856
521,615.6805634905089
522,615.7012301198794
523,615.7219337380099
524,615.742686520756
525,615.7635002989759
526,615.784386314264
527,615.8053549762645
528,615.8264156249593
529,615.8475763012435
530,615.8688435292484
531,615.890222114006
532,615.9117149580007
533,615.9333228999296
534,615.9550445788342
535,615.9768763267737
536,615.9988120930086
537,616.020843401798
538,616.0429593445656
539,616.065146606099
540,616.0873895239762
541,616.1096701801331
542,616.1319685227933
543,616.1542625159204
544,616.1765283124574
545,616.1987404472916
546,616.2208720459632
547,616.2428950450476
548,616.2647804196156
549,616.2864984127148
550,616.3080187622209
551,616.329310921815
552,616.3503442744365
553,616.3710883375384
554,616.3915129598678
555,616.4115885098212
556,616.4312860557676
557,616.4505775384653
558,616.4694359344873
559,616.4878354081518
560,616.5057514490252
561,616.5231609929801
562,616.5400425261463
563,616.5563761717975
564,616.5721437600758
565,616.5873288799812
566,616.6019169127035
567,616.6158950452409
568,616.6292522632996
569,616.6419793226123
570,616.654068697987
571,616.6655145097043
572,616.6763124275302
573,616.6864595538068
574,616.6959542888112
575,616.7047961832585
576,616.7129857836713
577,616.7205244761286
578,616.727414333117
579,616.733657967452
580,616.7392583968758
581,616.7442189230272
582,616.7485430287225
583,616.7522342975344
584,616.7552963594478
585,616.7577328658649
586,616.7595474961361
587,616.7607439958516
588,616.7613262446932
589,616.7612983494483
590,616.760664756286
591,616.7594303753708
592,616.7576007100652
593,616.7551819827006
594,616.7521812499297
595,616.7486065031618
596,616.7444667527558
597,616.7397720974312
598,616.7345337821343
599,616.7287642482352
600,616.7224771795369
601,616.715687546381
602,616.7084116484684
603,616.7006671551062
604,616.692473139703
605,616.6838501042372
606,616.6748199897877
607,616.665406170698
608,616.6556334312261
609,616.6455279236543
610,616.6351171059832
611,616.624429656465
612,616.6134953621714
613,616.60234497964
614,616.5910100667184
615,616.5795227853056
616,616.5679156747898
617,616.5562213962141
618,616.544472447976
619,616.5327008552379
620,616.5209378371441
621,616.5092134580085
622,616.497556269956
623,616.4859929544076
624,616.4745479689374
625,616.463243205761
626,616.4520976690578
627,616.4411271797824
628,616.4303441174278
629,616.4197572077119
630,616.4093713635319
631,616.3991875842934
632,616.3892029163322
633,616.3794104749842
634,616.3697995269656
635,616.360355629872
636,616.3510608236388
637,616.3418938673202
638,616.3328305142239
639,616.3238438192898
640,616.3149044737563
641,616.3059811626604
642,616.2970409400967
643,616.2880496157453
644,616.2789721448635
645,616.2697730136156
646,616.2604166124576
647,616.2508675919584
648,616.2410911975187
649,616.231053581694
650,616.2207220949033
651,616.2100655566901
652,616.199054510169
653,616.1876614621902
654,616.175861111588
655,616.1636305677686
656,616.150949561477
657,616.1378006485443
658,616.1241694058277
659,616.1100446168257
660,616.095418443008
661,616.0802865760148
662,616.0646483656524
663,616.0485069190867
664,616.0318691676739
665,616.0147458990543
666,615.9971517528685
667,615.9791051786574
668,615.9606283546985
669,615.941747067279
670,615.9224905511588
671,615.9028912931508
672,615.8829848013505
673,615.8628093425898
674,615.8424056504591
675,615.8218166059247
676,615.801086892281
677,615.7802626261937
678,615.7593909671493
679,615.7385197086002
680,615.7176968552865
681,615.6969701926763
682,615.6763868562115
683,615.6559929095671
684,615.6358329416938
685,615.6159496917926
686,615.5963837101204
687,615.5771730613645
688,615.5583530764033
689,615.5399561571822
690,615.522011637737
691,615.5045457018647
692,615.4875813547371
693,615.4711384426491
694,615.4552337131068
695,615.4398809069686
696,615.4250908749646
697,615.4108717120754
698,615.3972289046327
699,615.3841654863971
700,615.3716822006885
701,615.3597776651948
702,615.3484485346341
703,615.3376896550787
704,615.3274942032523
705,615.3178538044949
706,615.3087586242682
707,615.3001974302142
708,615.2921576248327
709,615.2846252522256
710,615.2775849851353
711,615.2710200998986
712,615.2649124467827
713,615.2592424220695
714,615.2539889472581
715,615.2491294604956
716,615.2446399254898
717,615.2404948628506
718,615.2366674079307
719,615.233129398315
720,615.2298514935109
721,615.2268033288105
722,615.2239537042947
723,615.2212708083789
724,615.2187224734861
725,615.2162764597682
726,615.213900761592
727,615.2115639307251
728,615.2092354096783
729,615.2068858683878
730,615.204487537482
731,615.2020145317969
732,615.1994431584067
733,615.1967522040422
734,615.1939231973421
735,615.1909406420964
736,615.1877922187151
737,615.1844689526456
738,615.1809653499797
739,615.1772795014051
740,615.1734131557013
741,615.1693717636147
742,615.1651644929524
743,615.1608042165556
744,615.1563074763257
745,615.1516944280099
746,615.1469887720237
747,615.1422176745077
748,615.1374116805697
749,615.1326046196257
750,615.1278335018221
751,615.1231384043236
752,615.1185623460316
753,615.1141511489968
754,615.1099532850394
755,615.106019707306
756,615.102403668193
757,615.0991605261737
758,615.0963475440237
759,615.0940236799227
760,615.0922493714211
761,615.0910863107282
762,615.0905972085116
763,615.0908455425418
764,615.0918952870852
765,615.0938106191076
766,615.0966555983053
767,615.1004938195532
768,615.1053880380321
769,615.1113997686837
770,615.118588862694
771,615.1270130646014
772,615.1367275546295
773,615.1477844821044
774,615.1602324971736
775,615.1741162892308
776,615.1894761412537
777,615.2063475093814
778,615.2247606363159
779,615.244740205918
780,615.2663050453967
781,615.2894678812669
782,615.3142351556945
783,615.3406069103571
784,615.3685767447375
785,615.3981318545148
786,615.4292531538227
787,615.4619154831006
788,615.4960879019919
789,615.5317340637642
790,615.5688126639742
791,615.6072779524791
792,615.6470802953606
793,615.6881667719491
794,615.7304817913443
795,615.7739677121746
796,615.8185654489058
797,615.8642150484694
798,615.9108562228919
799,615.9584288267345
800,616.0068732714939
801,616.0561308718862
802,616.1061441209736
803,616.156856892479
804,616.2082145695706
805,616.2601641004317
806,616.3126539828821
807,616.3656341834472
808,616.4190559997934
809,616.4728718779759
810,616.5270351965653
811,616.5815000286137
812,616.6362208907026
813,616.6911524872306
814,616.7462494579671
815,616.8014661369825
816,616.8567563307114
817,616.9120731221705
818,616.9673687074843
819,617.0225942696699
820,617.0776998929971
821,617.132634519458
822,617.1873459473796
823,617.2417808713802
824,617.2958849626989
825,617.3496029888153
826,617.4028789705749
827,617.4556563739325
828,617.50787833246
829,617.559487896049
830,617.6104283006231
831,617.6606432531746
832,617.7100772261296
833,617.7586757549768
834,617.8063857334181
835,617.8531557011867
836,617.8989361208533
837,617.9436796409258
838,617.9873413434542
839,618.0298789755249
840,618.0712531651382
841,618.1114276222777
842,618.1503693256197
843,618.1880486952001
844,618.2244397517569
845,618.2595202637511
846,618.2932718827169
847,618.3256802669806
848,618.3567351935153
849,618.3864306578056
850,618.4147649615314
851,618.4417407871285
852,618.4673652567927
853,618.4916499716718
854,618.5146110254645
855,618.5362689861946
856,618.5566488408627
857,618.5757798993382
858,618.5936956553472
859,618.6104336035171
860,618.6260350123379
861,618.6405446535998
862,618.6540104892981
863,618.6664833175209
864,618.6780163797984
865,618.6886649334808
866,618.6984857931354
867,618.7075368442031
868,618.7158765307797
869,618.7235633185277
870,618.7306551343353
871,618.7372087864362
872,618.743279371421
873,618.7489196767203
874,618.7541795881511
875,618.7591055123747
876,618.7637398241463
877,618.7681203479526
878,618.7722798827384
879,618.7762457770935
880,618.7800395609884
881,618.7836766392013
882,618.7871660508712
883,618.7905102988377
884,618.7937052513668
885,618.7967401175562
886,618.799597496557
887,618.8022534999758
888,618.8046779463714
889,618.8068346262659
890,618.8086816351316
891,618.8101717702029
892,618.8112529850076
893,618.8118688938982
894,618.8119593179753
895,618.8114608634708
896,618.8103075234135
897,618.8084312928939
898,618.8057627876111
899,618.8022318550088
900,618.7977681673995
901,618.7923017870036
902,618.7857636937805
903,618.7780862682822
904,618.769203723109
905,618.7590524771965
906,618.7475714670848
907,618.734702389447
908,618.7203898703873
909,618.7045815593417
910,618.6872281482994
911,618.6682833199167
912,618.6477036304599
913,618.6254483350581
914,618.6014791633988
915,618.5757600539615
916,618.5482568547246
917,618.5189369985641
