acceleration,velocity,displacement
-0.0442168350236818,0.0,0.0
-0.04455501454796872,-2.219296239291263e-05,-5.548240598228158e-09
-0.04485733264896424,-4.454604919214587e-05,-2.2232993494492785e-08
-0.0451329297852954,-6.704361480071078e-05,-5.013040949270694e-08
-0.045390736094844855,-8.967453127074584e-05,-8.930994601057109e-08
-0.045639275666704636,-0.00011243203421113322,-1.3983658738104086e-07
-0.04588649145535146,-0.00013531347599164724,-2.0177296493173597e-07
-0.04613958629810322,-0.0001583199954300109,-2.7518133278715054e-07
-0.046404875627287026,-0.00018145611091135847,-3.601253593724929e-07
-0.04668764986517918,-0.00020472924228447502,-4.5667169767145126e-07
-0.04699204810057909,-0.00022814916677591459,-5.648912999365486e-07
-0.04732094827708462,-0.0002517274158703305,-6.848604455981098e-07
-0.04767588185372447,-0.0002754766234030328,-8.166614554164507e-07
-0.04805698163281282,-0.0002994098392746671,-9.603830710858756e-07
-0.048462969669064916,-0.00032353982710013656,-1.1161204876795765e-06
-0.048891188957705514,-0.00034787836675682915,-1.283975036143818e-06
-0.0493376793797962,-0.00037243558384120456,-1.4640535237933264e-06
-0.04979729521900741,-0.00039721932749090547,-1.6564672516263538e-06
-0.05026385806857844,-0.0004222346158128019,-1.8613307374522807e-06
-0.050730336016660556,-0.0004474831643341117,-2.078760182489009e-06
-0.05118903909054084,-0.000472963008110912,-2.308871725600265e-06
-0.051631822303767234,-0.000498668223459489,-2.5517795334928652e-06
-0.05205029029304029,-0.000524588751608691,-2.80759377725991e-06
-0.05243600032392936,-0.0005507103242629334,-3.0764185462278163e-06
-0.05278066260096912,-0.000577014489994158,-3.3583497497920893e-06
-0.05307633768429309,-0.0006034787400654736,-3.653473057306997e-06
-0.053315629921754606,-0.0006300767319669855,-3.961861925315112e-06
-0.05349187359955931,-0.000656778607847314,-4.2835757602686874e-06
-0.05359930627246484,-0.0006835514028153201,-4.618658262934346e-06
-0.053633221974629074,-0.0007103595348770936,-4.967135997357449e-06
-0.05359009529796839,-0.000737165364195243,-5.329017222125533e-06
-0.05346766624040336,-0.0007639298045798359,-5.704291014319303e-06
-0.053264977000961826,-0.0007906129653901772,-6.092926706811806e-06
-0.05298235599654158,-0.0008171747986395531,-6.494873647819239e-06
-0.052621349813204495,-0.0008435757250919897,-6.910061278752125e-06
-0.052184608902274936,-0.0008697772147708595,-7.338399513717838e-06
-0.05167573664734897,-0.0008957423011582655,-7.77977939270012e-06
-0.05109911328980591,-0.0009214360136425542,-8.234073971400324e-06
-0.05045970566848033,-0.0009468257183821258,-8.701139404406494e-06
-0.049762871379290835,-0.0009718813626440686,-9.180816174663043e-06
-0.04901416359398103,-0.0009965756213873866,-9.672930420670906e-06
-0.04821914211068863,-0.001020883947813554,-1.0177295312971142e-05
-0.047383197292898235,-0.0010447845326644507,-1.0693712433090643e-05
-0.04651139493598321,-0.001068258180721671,-1.1221973111437174e-05
-0.045608350443638486,-0.0010912881170665764,-1.1761859685884236e-05
-0.04467813980874739,-0.0011138597396296729,-1.2313146650058298e-05
-0.04372425336561484,-0.0011359603379232635,-1.2875601669446532e-05
-0.042749596425544725,-0.0011575788003710533,-1.3448986454020112e-05
-0.04175653822948117,-0.0011787053340348097,-1.4033057487621577e-05
-0.04074700674956285,-0.0011993312202795707,-1.4627566626200173e-05
-0.03972262253140425,-0.0012194486275998125,-1.5232261588170019e-05
-0.038684861168723564,-0.0012390504985248445,-1.5846886369701185e-05
-0.03763523122655044,-0.001258130521623663,-1.6471181624738312e-05
-0.036575452010640074,-0.0012766831924329607,-1.710488505325247e-05
-0.03550761421050409,-0.0012947039589882468,-1.774773184110777e-05
-0.03443430777998934,-0.00131218943948587,-1.83994551907263e-05
-0.033358705968559825,-0.0013291376929230074,-1.905978697382852e-05
-0.03228460054359403,-0.0013455485195510459,-1.9728458526947034e-05
-0.0312163887285258,-0.001361423766869076,-2.0405201598552066e-05
-0.03015901626192577,-0.0013767676181166888,-2.1089749444798508e-05
-0.029117883280282423,-0.001391586843002241,-2.178183806007824e-05
-0.028098720318320416,-0.0014058909939018917,-2.2481207519304272e-05
-0.027107440832672306,-0.00141969253418964,-2.3187603401327154e-05
-0.026149975782580284,-0.0014330068883434532,-2.3900778256960428e-05
-0.0252320965196541,-0.0014458524064190118,-2.4620493080651045e-05
-0.024359234268871384,-0.0014582502391161432,-2.5346518742034832e-05
-0.02353630585971119,-0.0014702241241482889,-2.607863733285094e-05
-0.022767554575435382,-0.0014818000892570756,-2.681664338620228e-05
-0.022056412579189777,-0.0014930060810457318,-2.7560344928777984e-05
-0.021405389110121055,-0.0015038715314680596,-2.830956433190643e-05
-0.020815987461684973,-0.0015144268756110111,-2.9064138933676197e-05
-0.020288653329242682,-0.001524703035808743,-2.9823921411531135e-05
-0.019822756682860408,-0.0015347308883117688,-3.058877989256126e-05
-0.01941660818002373,-0.0015445407295274897,-3.135859779702108e-05
-0.01906750911784245,-0.0015541617588519562,-3.213327341911594e-05
-0.018771831709895607,-0.0015636215940588907,-3.291271925734365e-05
-0.01852512474735734,-0.001572945833173204,-3.3696861114151675e-05
-0.018322238224051872,-0.0015821576739160563,-3.448563699092399e-05
-0.018157458494155083,-0.001591277598095608,-3.5278995808926905e-05
-0.01802464302130557,-0.0016003231234744733,-3.6076895989319425e-05
-0.01791734223698442,-0.0016093086197890459,-3.687930392513531e-05
-0.017828897216434186,-0.0016182451796524005,-3.768619237499567e-05
-0.01775250607337882,-0.0016271405304748537,-3.8497538802527484e-05
-0.017681257680752,-0.0016359989714133864,-3.9313323677999545e-05
-0.01760813676233571,-0.0016448213200241583,-4.013352875085893e-05
-0.01752600877162714,-0.001653604856407649,-4.0958135294966883e-05
-0.017427596023803525,-0.0016623432576065066,-4.178712232347042e-05
-0.017305457676861227,-0.0016710265210316728,-4.262046476812997e-05
-0.017151985234402898,-0.0016796408817594888,-4.345813161882776e-05
-0.016959423527614793,-0.0016881687339499933,-4.430008402275513e-05
-0.016719925770022695,-0.0016965885712744027,-4.5146273349061225e-05
-0.01642564945043786,-0.001704874965079518,-4.599663923314971e-05
-0.016068895703442235,-0.001712998601367988,-4.685110762476158e-05
-0.015642288127433956,-0.001720926397325707,-4.770958887443501e-05
-0.015138980191618079,-0.0017286217144054702,-4.85719759023678e-05
-0.01455287613896168,-0.001736044678488115,-4.94381425005912e-05
-0.013878848825347853,-0.0017431526097291925,-5.0307941822645526e-05
-0.013112937652407564,-0.0017499005563486314,-5.118120511416498e-05
-0.01225251053673837,-0.0017562419183959179,-5.205774073285112e-05
-0.011296377269494697,-0.0017621291403474761,-5.293733349753697e-05
-0.010244847849419814,-0.0017675144466272048,-5.381974439428064e-05
-0.009099735946522426,-0.0017723505925761904,-5.470471065408149e-05
-0.007864311909539507,-0.0017765916045402058,-5.559194620336059e-05
-0.006543211295794461,-0.0017801934853415393,-5.648114247583102e-05
-0.005142305036526621,-0.0017831148644246197,-5.737196956327256e-05
-0.003668537094784646,-0.0017853175749574476,-5.8264077673118076e-05
-0.0021297352824511916,-0.0017867671430517565,-5.9157098852620374e-05
-0.0005344012313602806,-0.0017874331771802095,-6.005064893267837e-05
0.0011085132776536184,-0.0017872896491686362,-6.094432963926558e-05
0.002789834661505065,-0.0017863150621838465,-6.18377308171037e-05
0.004500389993201127,-0.00178449250602017,-6.273043270915471e-05
0.006231211740335986,-0.0017818096055867857,-6.362200823705644e-05
0.007973711906957474,-0.0017782583746749623,-6.451202523212189e-05
0.009719812688106849,-0.0017738349935261962,-6.540004857417218e-05
0.01146202330838613,-0.001768539534527073,-6.62856422061855e-05
0.013193458509018055,-0.001762375664072722,-6.716837100583545e-05
0.014907801903495147,-0.0017553503489695936,-6.804780250909602e-05
0.016599224518203396,-0.001747473592364169,-6.892350849442947e-05
0.018262273066407864,-0.0017387582179680162,-6.979506644701252e-05
0.019891743550807413,-0.0017292197138137125,-7.066206092995795e-05
0.02148255479459715,-0.0017188761392273615,-7.152408489321822e-05
0.023029634596235974,-0.0017077480918796532,-7.238074095099497e-05
0.02452782887335077,-0.0016958587260122566,-7.323164265546795e-05
0.025971841508847706,-0.001683233808416707,-7.40764157890752e-05
0.027356209957827757,-0.001669901795550038,-7.491469969006688e-05
0.028675319756767886,-0.0016558939131213891,-7.574614861723473e-05
0.02992346005220068,-0.001641244218169147,-7.657043315005736e-05
0.031094921070985763,-0.0016259896228883505,-7.738724161032174e-05
0.03218413208385824,-0.0016101698595996396,-7.819628148094373e-05
0.03318583502702457,-0.0015938273678219189,-7.899728078779912e-05
0.03409528517579253,-0.0015770070877712146,-7.97899894016974e-05
0.03490846661512658,-0.0015597561498234848,-8.057418021109608e-05
0.035622307594833126,-0.0015421234562709948,-8.13496501126197e-05
0.036234880394436474,-0.0015241591592736773,-8.211622076650586e-05
0.03674557259262626,-0.0015059140460269116,-8.287373906783101e-05
0.037155220987997936,-0.0014874388476317556,-8.362207729124568e-05
0.037466204487540136,-0.001468783491262871,-8.436113287596933e-05
0.037682496621915994,-0.0014499963159855071,-8.509082782778142e-05
0.03780968068410256,-0.0014311232716590024,-8.581110772469255e-05
0.037854930117095134,-0.001412207118958703,-8.652194032234697e-05
0.037826954305453915,-0.0013932866478530658,-8.722331376404991e-05
0.03773590714520872,-0.0013743959324904,-8.791523440913578e-05
0.0375932543521055,-0.0013555636421160714,-8.85977243027874e-05
0.037411595985494095,-0.0013368124295316715,-8.927081832069933e-05
0.037204442789206364,-0.0013181584198379962,-8.993456103304176e-05
0.03698594830680419,-0.0012996108220639936,-9.058900334351726e-05
0.0367706030911763,-0.0012811716842144984,-9.123419897008688e-05
0.03657290185346196,-0.0012628358079783389,-9.187020084313509e-05
0.03640699746845012,-0.0012445908331478609,-9.249705750341664e-05
0.036286356295645215,-0.001226417494706837,-9.311480958538032e-05
0.03622342771056946,-0.0012082900487052832,-9.372348647123334e-05
0.036229338493773224,-0.0011901768571541975,-9.432310319769821e-05
0.03631362133142605,-0.0011720411171978976,-9.491365769128624e-05
0.03648398680582303,-0.0011538417151635853,-9.549512839937661e-05
0.03674614868504751,-0.0011355341812908676,-9.606747237349023e-05
0.0371037106725847,-0.0011170717164514597,-9.663062384792581e-05
0.03755811788534026,-0.0010984062593119785,-9.718449334186666e-05
0.03810866952442961,-0.001079489562459536,-9.772896729730954e-05
0.03875258334359077,-0.001060274249242531,-9.826390825023505e-05
0.03948510003532955,-0.001040714828397801,-9.878915551964513e-05
0.04029961695500836,-0.0010207686491502165,-9.930452638903213e-05
0.0411878440372699,-0.001000396783902147,-9.980981774729522e-05
0.04213997822407192,-0.0009795648283368115,-0.00010030480815035495
0.043144895165248935,-0.0009582436099894812,-0.00010078926025993653
0.04419035831920028,-0.000936409796618369,-0.00010126292361158849
0.045263245760531125,-0.0009140463955984361,-0.00010172553765964268
0.04634979363703715,-0.000891143135749044,-0.00010217683504247956
0.04743585288173828,-0.0008676967241193501,-0.00010261654500744665
0.048507154208989656,-0.0008437109723466681,-0.00010304439693156315
0.0495495768144021,-0.0008191967895908203,-0.00010346012387204752
0.05054941794130844,-0.0007941720409018927,-0.0001038634660796707
0.051493661647285235,-0.0007686612710047443,-0.00010425417440764736
0.05237024414369675,-0.0007426952945569988,-0.0001046320135490378
0.053168310436950195,-0.0007163106559118371,-0.00010499676503665501
0.053878454783070635,-0.0006895489646068318,-0.00010534822994178467
0.05449293700139965,-0.0006624561166607143,-0.00010568623121210155
0.055005867169770344,-0.0006350814156179217,-0.00010601061559517122
0.055413351114633344,-0.0006074766110468208,-0.0001063212551018374
0.05571358825814886,-0.0005796948762036252,-0.00010661804797365001
0.05590691343170621,-0.0005517897507811614,-0.0001069009191303962
0.055995776989180276,-0.0005238140781759398,-0.00010716982008763549
0.055984662784412005,-0.0004958189682325418,-0.0001074247283492376
0.055879949162943233,-0.0004678528152457029,-0.00010766564629510716
0.05568972182169859,-0.0004399603974995425,-0.00010789259959829348
0.055423548228262766,-0.00041218207998705217,-0.00010810563521766513
0.055092221740967166,-0.0003845531374947447,-0.00010830481902203557
0.05470748152563293,-0.00035710321167809465,-0.00010849023310932878
0.0542817138852471,-0.00032985591282537463,-0.00010866197289045465
0.053827641834394355,-0.0003028285738954643,-0.00010882014401213486
0.053358011012550825,-0.000276032160683728,-0.00010896485919577966
0.05288528028556332,-0.00024947133785919946,-0.00010909623507041539
0.052421325277564164,-0.00022314468646841758,-0.0001092143890764973
0.05197716359518092,-0.0001970450642502313,-0.00010931943651417697
0.051562711225650676,-0.0001711600955450234,-0.00010941148780412577
0.05118657898650313,-0.00014547277299198493,-0.00010949064602126003
0.05085591553623149,-0.00011996214936130128,-0.00010955700475184835
0.050576300660120636,-9.460409531221326e-05,-0.00010961064631301673
0.05035169051892114,-6.937209751745281e-05,-0.00010965164036122414
0.05018441502164239,-4.423807113231193e-05,-0.00010968004290338658
0.05007522573867431,-1.9173160942232754e-05,-0.00010969589571140522
0.0500233909299843,5.851493224931897e-06,-0.00010969922612833454
0.05002683306115173,3.0864049222715904e-05,-0.00010969004724272263
0.05008230375406272,5.589133342651952e-05,-0.00010966835839706033
0.050185590487285874,8.095830698685666e-05,-0.00010963414598695698
0.05033174747094014,0.00010608764147641317,-0.00010958738449984117
0.05051534005804099,0.00013129941335865845,-0.0001095280377361324
0.050730688929100695,0.00015661092060544388,-0.00010945606015264138
0.050972098629803335,0.00018203661749516988,-0.00010937139826811622
0.05123405613724209,0.00020758815618693123,-0.00010927399207469569
0.05151138881653476,0.00023327451742537544,-0.00010916377640629261
0.051799375787270195,0.00025910220857632666,-0.00010904068222479219
0.052093811194888866,0.0002850755053218664,-0.00010890463779631764
0.052391022249069504,0.000311196713682856,-0.00010875556974156646
0.052687848915705535,0.00033746643147404976,-0.00010859340395527724
0.05298159452474215,0.00036388379233416167,-0.00010841806639932518
0.05326995627379686,0.00039044668003379644,-0.0001082294837812332
0.053550942317626124,0.0004171519046816522,-0.00010802758413505433
0.05382277980880528,0.00044399533521326,-0.0001078122973250806
0.054083817658923825,0.00047097198458019227,-0.00010758355549513224
0.05433242910955793,0.0004980760462723127,-0.00010734129348741912
0.05456692096530177,0.0005253008837910276,-0.00010708544925490328
0.05478545675437595,0.000552638978220947,-0.00010681596428940028
0.05498599950334851,0.0005800818422853781,-0.00010653278408427371
0.055166277075310674,0.000607619911430043,-0.00010623585864584486
0.0553237708172451,0.0006352424234031819,-0.00010592514306213655
0.05545572782741633,0.0006629372980643472,-0.00010560059813176966
0.05555919769961999,0.0006906910294461064,-0.00010526219104989205
0.055631093810107404,0.0007184886023235383,-0.00010490989614194964
0.055668276134740305,0.0007463134448097502,-0.00010454369563016631
0.055667648882042724,0.0007741474260639459,-0.00010416358041244788
0.055626263893763676,0.0008019709042578976,-0.00010376955082986742
0.055541420019034886,0.0008297628252360972,-0.00010336161739749393
0.05541074894316486,0.0008575008674766471,-0.00010293980147431575
0.05523227961079886,0.000885161624615138,-0.0001025041358512928
0.055004476995020216,0.0009127208137665927,-0.00010205466524169736
0.054726255463592194,0.0009401534968812459,-0.0001015914466640354
0.05439697022057044,0.0009674343033022866,-0.00010111454971398952
0.05401639134618229,0.0009945376436939748,-0.00010062405672724045
0.05358466474094671,0.0010214379077157572,-0.00010012006283938801
0.05310226403470611,0.0010481096399096704,-9.960267595248166e-05
0.05256993758264492,0.001074527690314008,-9.907201661992575e-05
0.0519886544878012,0.0011006673383316195,-9.852821786276434e-05
0.05135955267291434,0.0011265043901217983,-9.797142493065098e-05
0.050683890885610726,0.0011520152510114297,-9.740179502036768e-05
0.04996300617479662,0.0011771769752765315,-9.681949696379569e-05
0.049198278954362476,0.0012019672965588213,-9.622471089583685e-05
0.048391108257950295,0.0012263646433618995,-9.561762791085667e-05
0.04754289918119227,0.0012503481452216852,-9.499844971371077e-05
0.046655062954577886,0.0012738976357556278,-9.436738826846644e-05
0.045729028764306894,0.001296993658685349,-9.372466544485619e-05
0.0447662662517115,0.0013196174824393536,-9.3070512659575e-05
0.043768318247621375,0.0013417511285641868,-9.240517050682412e-05
0.04273684374410068,0.0013633774190621173,-9.172888836991755e-05
0.041673670903983384,0.0013844800477241382,-9.104192400322098e-05
0.040580859023655616,0.0014050436802060479,-9.034454307123844e-05
0.039460766596793255,0.0014250540866111601,-8.963701862953414e-05
0.03831612029933799,0.0014444983083351929,-8.891963053079754e-05
0.03715007817392634,0.001463364857953509,-8.819266473922537e-05
0.03596628054698266,0.0014816439476337362,-8.745641253782856e-05
0.034768883607553355,0.0014993277386723702,-8.671116961625204e-05
0.033562571535499,0.0015164106024581332,-8.595723503096941e-05
0.032352543048212175,0.001532889381104061,-8.519491003507885e-05
0.031144468486891647,0.001548763633987837,-8.442449678130587e-05
0.029944415590115687,0.0015640358550070889,-8.364629690905715e-05
0.028758745653716045,0.0015787116453180468,-8.286061003397587e-05
0.02759398505606142,0.0015927998279954912,-8.206773216564749e-05
0.026456678981163502,0.0016063124940047975,-8.126795408514741e-05
0.02535323494574017,0.0016192649724865234,-8.046155971852458e-05
0.024289763832707215,0.0016316757221811352,-7.964882454485766e-05
0.0232719252789329,0.0016435661444590452,-7.883001407819762e-05
0.022304782638243332,0.0016549603214383393,-7.800538246172327e-05
0.021392671388706836,0.0016658846849450769,-7.717517121012742e-05
0.020539084520621528,0.001676367623922409,-7.633960813291055e-05
0.019746578698789347,0.0016864390397272617,-7.549890646699813e-05
0.019016704456846518,0.0016961298605161707,-7.465326424193727e-05
0.018349961142458567,0.001705471526915997,-7.380286389507922e-05
0.017745773557779343,0.0017144954605910565,-7.294787214820246e-05
0.017202485086781266,0.0017232325252521967,-7.208844015174164e-05
0.016717363474118736,0.0017317124873924216,-7.122470389858049e-05
0.01628661892881171,0.0017399634829931541,-7.03567849059841e-05
0.015905436911960887,0.0017480114969533472,-6.948479116099747e-05
0.015568028493036077,0.0017558798633045966,-6.860881832093299e-05
0.01526770062771953,0.0017635887955847855,-6.772895115621065e-05
0.014996948691201889,0.0017711549579145158,-6.684526521783583e-05
0.014747573921552676,0.0017785910885677043,-6.595782870621527e-05
0.01451082754800477,0.0017859056889350936,-6.506670451183956e-05
0.014277580602065843,0.0017931027909726112,-6.417195239186263e-05
0.014038514726307317,0.0018001818148047045,-6.327363124041831e-05
0.013784326398923095,0.001807137525086012,-6.237180140544563e-05
0.013505936173498401,0.0018139600907291175,-6.146652700149184e-05
0.013194695855211278,0.001820635248736295,-6.055787816662549e-05
0.012842588650145023,0.001827144569862634,-5.9645933211975756e-05
0.01244241876128312,0.001833465821715491,-5.873078061408122e-05
0.011987987352817522,0.0018395734232440162,-5.7812520802841345e-05
0.01147425170659158,0.0018454389830088683,-5.6891267701278125e-05
0.010897464181846327,0.0018510319119809779,-5.596714997753066e-05
0.010255287676935594,0.0018563200999456733,-5.5040311974549e-05
0.009546884764644475,0.0018612706430560684,-5.411091428879856e-05
0.00877297794539111,0.0018658506087335773,-5.317913397585115e-05
