frame_number,force
0,612.8884618135263
1,612.8672380852338
2,612.8482649754721
3,612.8309688403734
4,612.8147892355393
5,612.7991911996907
6,612.7836762428377
7,612.7677923238272
8,612.7511430939444
9,612.7333965328367
10,612.7142928764149
11,612.6936515085017
12,612.6713763166243
13,612.6474589662739
14,612.6219796597145
15,612.5951051472765
16,612.5670839611221
17,612.5382390400379
18,612.5089581331836
19,612.4796825546416
20,612.4508949175796
21,612.4231063912641
22,612.3968438583028
23,612.3726371742566
24,612.3510065964267
25,612.3324503942304
26,612.3174327096408
27,612.3063718746039
28,612.2996295330494
29,612.2975010255677
30,612.300207602406
31,612.3078910984968
32,612.3206116242436
33,612.3383485686084
34,612.3610048697644
35,612.3884141886679
36,612.420350381425
37,612.4565385495094
38,612.4966669802646
39,612.5403994376032
40,612.5873874113412
41,612.6372819754301
42,612.6897448373309
43,612.744458073997
44,612.8011320284062
45,612.8595108962911
46,612.9193756285916
47,612.980543891567
48,613.0428669945885
49,613.1062239405115
50,613.1705130258995
51,613.2356416443173
52,613.3015151200913
53,613.3680255517206
54,613.4350417301198
55,613.5024011129916
56,613.569904551128
57,613.6373140779025
58,613.7043537290158
59,613.7707131160379
60,613.8360533330879
61,613.9000147389006
62,613.9622262122584
63,614.0223155335016
64,614.0799204997477
65,614.1347002540408
66,614.1863462222497
67,614.2345921011697
68,614.2792224924908
69,614.3200799194705
70,614.3570700372724
71,614.3901648746074
72,614.4194039713743
73,614.4448933486179
74,614.4668023735908
75,614.4853587216776
76,614.5008417452339
77,614.5135746522717
78,614.5239160241298
79,614.532251358786
80,614.5389854231762
81,614.5445361231748
82,614.549330336744
83,614.5538017976628
84,614.558390775982
85,614.563545027008
86,614.5697212892306
87,614.5773865406827
88,614.5870182811791
89,614.599103215514
90,614.6141337982925
91,614.6326022158082
92,614.6549916393238
93,614.6817650026723
94,614.7133519856504
95,614.7501351504235
96,614.792436270209
97,614.8405039072576
98,614.8945032478651
99,614.9545089880654
100,615.020501672721
101,615.0923674781475
102,615.1699011613066
103,615.2528118003594
104,615.3407309429292
105,615.4332227944915
106,615.5297960912629
107,615.6299172813543
108,615.7330245620824
109,615.8385422107292
110,615.9458945457524
111,616.0545187759195
112,616.1638759292363
113,616.2734590526634
114,616.3827980344101
115,616.4914607641593
116,616.5990508333132
117,616.7052024227037
118,616.8095732908063
119,616.9118368411927
120,617.0116741854969
121,617.1087669986293
122,617.2027918167609
123,617.293416262139
124,617.3802975122082
125,617.4630832101884
126,617.5414149499857
127,617.6149343933062
128,617.6832919280776
129,617.7461575647254
130,617.8032335302019
131,617.8542677906507
132,617.8990675668326
133,617.9375118773969
134,617.9695622875403
135,617.9952713137067
136,618.0147882531537
137,618.0283624797468
138,618.0363443940412
139,618.0391841924389
140,618.0374284651332
141,618.0317144580687
142,618.0227617453716
143,618.0113610911683
144,617.998360413016
145,617.9846479697873
146,617.9711331706426
147,617.9587256857093
148,617.9483137318884
149,617.9407424412318
150,617.9367931211353
151,617.9371640745719
152,617.9424535611245
153,617.9531454873925
154,617.9695984423875
155,617.9920385900789
156,618.0205566242148
157,618.0551085635248
158,618.0955197976776
159,618.1414916384269
160,618.192609711969
161,618.2483537440647
162,618.3081085069272
163,618.3711758501114
164,618.4367878234149
165,618.5041209110442
166,618.5723113106741
167,618.6404710443768
168,618.70770458945
169,618.7731257416913
170,618.8358745330555
171,618.8951340991094
172,618.9501473314127
173,619.0002329840055
174,619.0448007640398
175,619.0833649073595
176,619.1155557697409
177,619.1411289576729
178,619.1599714691192
179,619.1721043176834
180,619.1776812845412
181,619.1769837708089
182,619.1704120735565
183,619.1584736411132
184,619.1417689159007
185,619.120975275726
186,619.0968294561035
187,619.0701088060749
188,619.0416118062851
189,619.012138357289
190,618.9824703620836
191,618.953353120138
192,618.9254780828047
193,618.8994675651672
194,618.8758619714739
195,618.855109942682
196,618.8375616592085
197,618.8234654048046
198,618.8129674016752
199,618.8061148174478
200,618.8028617290237
201,618.8030777529145
202,618.8065590249313
203,618.8130411724438
204,618.8222138038019
205,618.8337358472886
206,618.8472508758437
207,618.8624014498049
208,618.8788415786796
209,618.8962466343061
210,618.9143203400739
211,618.9327987417577
212,618.9514513395835
213,618.9700798137229
214,618.9885149245016
215,619.0066121508928
216,619.0242464871549
217,619.0413066715781
218,619.0576890838979
219,619.0732916307694
220,619.088008049345
221,619.1017230849294
222,619.1143088995916
223,619.125622896832
224,619.1355070091054
225,619.1437884677066
226,619.1502821087948
227,619.1547942196847
228,619.1571277363486
229,619.1570883707458
230,619.1544911001142
231,619.1491664035693
232,619.1409656486129
233,619.129765134251
234,619.1154685240946
235,619.0980076852085
236,619.0773421509974
237,619.0534574919811
238,619.0263628646956
239,618.9960879935633
240,618.9626798444292
241,618.9261992370003
242,618.8867175858991
243,618.8443138885682
244,618.7990720565418
245,618.7510787228869
246,618.7004216892227
247,618.6471891376118
248,618.5914696351326
249,618.5333528757418
250,618.47293109231
251,618.4103011109901
252,618.3455670480703
253,618.2788436367869
254,618.2102601160317
255,618.1399645019482
256,618.0681279173428
257,617.9949485570621
258,617.9206548834858
259,617.8455077338932
260,617.7698010816137
261,617.6938611917149
262,617.6180439277908
263,617.5427300936032
264,617.4683189162032
265,617.395219983018
266,617.3238440616935
267,617.2545932800467
268,617.1878511495244
269,617.1239728619299
270,617.0632761870813
271,617.006033214215
272,616.9524631590779
273,616.9027264747879
274,616.8569204709165
275,616.8150764859051
276,616.777158421049
277,616.7430623091769
278,616.712616677326
279,616.6855836829058
280,616.6616611714152
281,616.6404858367406
282,616.6216376317063
283,616.6046455753498
284,616.5889951235218
285,616.5741372141998
286,616.5594989246224
287,616.5444954462131
288,616.5285429014607
289,616.5110714755482
290,616.4915384184746
291,616.4694406061783
292,616.4443264393465
293,616.4158068867177
294,616.3835654735433
295,616.3473670025285
296,616.3070648000672
297,616.2626063102642
298,616.2140368763513
299,616.1615015226632
300,616.1052444990614
301,616.0456063143068
302,615.9830180022411
303,615.9179924696516
304,615.8511129671974
305,615.7830189385436
306,615.7143896654474
307,615.6459262440615
308,615.5783325586308
309,615.5122960624028
310,615.4484692371252
311,615.3874524974335
312,615.3297790710905
313,615.2759021468615
314,615.2261844323834
315,615.1808902091096
316,615.140179962901
317,615.1041076552337
318,615.0726206588122
319,615.0455623357724
320,615.0226772105696
321,615.0036186524887
322,614.9879588932009
323,614.9752010938175
324,614.9647931239552
325,614.9561427535738
326,614.9486340269232
327,614.9416445898585
328,614.9345636310976
329,614.9268099201838
330,614.9178492789441
331,614.9072107891639
332,614.8945011188654
333,614.8794164563213
334,614.8617515757592
335,614.8414055165917
336,614.8183833396556
337,614.7927935515913
338,614.764841119264
339,614.7348164598525
340,614.7030811931569
341,614.6700516046334
342,614.6361807105811
343,614.6019397238837
344,614.5677997166531
345,614.5342143020752
346,614.5016040588149
347,614.4703431600665
348,614.4407483818696
349,614.413070503466
350,614.3874880902745
351,614.3641036686589
352,614.3429422622376
353,614.3239521419093
354,614.3070075229728
355,614.2919129263671
356,614.2784090143251
357,614.2661798088482
358,614.2548612272678
359,614.2440508585975
360,614.2333188945441
361,614.2222200570408
362,614.2103061777138
363,614.1971388731836
364,614.1823016766814
365,614.1654110932999
366,614.1461262817562
367,614.1241573085159
368,614.0992720642271
369,614.0713019379364
370,614.0401462442462
371,614.0057752773351
372,613.968231819603
373,613.9276309940417
374,613.884158465078
375,613.838067098694
376,613.789672270314
377,613.7393460647291
378,613.6875106445273
379,613.63463106126
380,613.5812077564091
381,613.5277689786512
382,613.4748633340768
383,613.4230526447421
384,613.3729051679235
385,613.3249890076287
386,613.2798652941134
387,613.2380805706903
388,613.2001579511877
389,613.1665869767176
390,613.1378125336681
391,613.114223525742
392,613.09614215534
393,613.0838146739349
394,613.0774043527117
395,613.0769872613507
396,613.0825512399402
397,613.0939981768049
398,613.1111493819475
399,613.1337535712397
400,613.1614968426624
401,613.19401404573
402,613.2309010488916
403,613.2717274831488
404,613.3160495222278
405,613.3634222104768
406,613.4134108578814
407,613.4656010782304
408,613.5196070946527
409,613.5750779760575
410,613.6317015183729
411,613.6892055439292
412,613.7473565059554
413,613.8059555379882
414,613.8648324538161
415,613.9238385022162
416,613.9828387578821
417,614.0417049090341
418,614.1003090083055
419,614.1585185543021
420,614.2161930499052
421,614.2731819293087
422,614.3293235108218
423,614.3844444919603
424,614.4383595032425
425,614.4908703906232
426,614.5417651859357
427,614.5908170719393
428,614.6377839113044
429,614.6824089697996
430,614.7244233336778
431,614.7635503008057
432,614.7995117790057
433,614.8320364537348
434,614.8608692114616
435,614.8857811180012
436,614.9065792457
437,614.9231157906
438,614.9352960703219
439,614.9430850330143
440,614.9465118953311
441,614.9456726185317
442,614.9407301730187
443,614.9319128002543
444,614.9195106017354
445,614.9038707399641
446,614.8853914053849
447,614.8645145884535
448,614.8417176690969
449,614.8175039006318
450,614.7923919794652
451,614.7669050344043
452,614.741559528711
453,614.7168546784765
454,614.693262959041
455,614.671222077379
456,614.651128525325
457,614.6333326102414
458,614.6181347078408
459,614.6057823595086
460,614.5964677715134
461,614.5903253539883
462,614.5874291904448
463,614.5877906762537
464,614.5913568942651
465,614.5980105203358
466,614.60757210639
467,614.6198054258288
468,614.6344261877123
469,614.6511139135898
470,614.6695262678261
471,614.689314782006
472,614.7101407715382
473,614.7316902471607
474,614.7536867030474
475,614.7759008463622
476,614.7981566925735
477,614.8203339317304
478,614.8423668680667
479,614.8642403785433
480,614.8859832649161
481,614.9076593086579
482,614.9293564689582
483,614.951174966949
484,614.9732152764806
485,614.9955671169379
486,615.01830037661
487,615.0414585597146
488,615.065054955187
489,615.0890713509575
490,615.1134588350905
491,615.1381401355184
492,615.1630130836162
493,615.1879549929419
494,615.2128278338243
495,615.2374840563693
496,615.2617728952466
497,615.2855470040266
498,615.3086692312158
499,615.3310192417144
500,615.3524995777417
501,615.3730407048322
502,615.3926046082612
503,615.4111865735034
504,615.4288148792219
505,615.4455482480726
506,615.4614710694609
507,615.4766866589125
508,615.4913091082659
509,615.5054545026885
510,615.5192323632318
511,615.532738132883
512,615.5460474086091
513,615.5592124472787
514,615.5722612276562
515,615.5851990608408
516,615.5980124955998
517,615.6106751207873
518,615.6231547738602
519,615.6354215419768
520,615.6474558055424
521,615.6592555221023
522,615.670842052154
523,615.6822640740365
524,615.693599440537
525,615.7049550809396
526,615.7164651670328
527,615.728287757985
528,615.7406001091645
529,615.7535928399645
530,615.7674632030337
531,615.7824077477255
532,615.7986146950261
533,615.8162563414277
534,615.8354818223851
535,615.8564106072835
536,615.8791271087783
537,615.9036766985032
538,615.930063255832
539,615.9582482513734
540,615.9881513390254
541,616.0196524293704
542,616.0525951519925
543,616.0867914891081
544,616.122027260194
545,616.1580681200776
546,616.1946657747105
547,616.231564130378
548,616.268505030616
549,616.3052331780605
550,616.3414999118036
551,616.3770657333456
552,616.4117017207598
553,616.445190115826
554,616.4773244172901
555,616.5079093473906
556,616.5367610886179
557,616.5637081189732
558,616.5885927540522
559,616.6112732474368
560,616.6316261955627
561,616.6495490932159
562,616.6649630522368
563,616.6778157599281
564,616.6880846845539
565,616.6957804155292
566,616.7009499244372
567,616.7036794674858
568,616.7040968152799
569,616.7023724773237
570,616.6987195793135
571,616.6933920668598
572,616.6866809817354
573,616.6789087207965
574,616.6704214399821
575,616.6615800172108
576,616.6527501160318
577,616.6442918620863
578,616.6365495312854
579,616.6298415470467
580,616.624451050364
581,616.6206173482747
582,616.6185286177938
583,616.6183162885353
584,616.6200515367714
585,616.6237442914002
586,616.629345029186
587,616.6367493848625
588,616.6458052727558
589,616.6563219250343
590,616.6680800658164
591,616.680842327458
592,616.6943629296084
593,616.7083956385641
594,616.7226992191224
595,616.737040007235
596,616.7511917482684
597,616.7649332961765
598,616.7780450555766
599,616.7903051528679
600,616.801486258079
601,616.8113537834662
602,616.8196659105236
603,616.8261755765707
604,616.8306342299173
605,616.832796955595
606,616.8324285896091
607,616.8293106225799
608,616.8232488419699
609,616.8140816256092
610,616.8016886084282
611,616.7859992485753
612,616.7670007479009
613,616.7447448507181
614,616.7193531506474
615,616.6910205657406
616,616.6600166010503
617,616.6266840009541
618,616.5914344668906
619,616.5547412885054
620,616.5171289997377
621,616.4791604679614
622,616.441422011487
623,616.4045071187959
624,616.368999209976
625,616.3354538508111
626,616.3043809970427
627,616.2762281028413
628,616.2513650914941
629,616.2300721576826
630,616.212531172741
631,616.1988211765133
632,616.1889181352519
633,616.1826988779915
634,616.1799489039854
635,616.1803735376835
636,616.1836116780646
637,616.1892512300178
638,616.1968453270237
639,616.2059286526666
640,616.2160334110549
641,616.226704630567
642,616.2375144400032
643,616.2480747797288
644,616.2580478441287
645,616.2671535301507
646,616.2751733213425
647,616.2819503104387
648,616.2873853946556
649,616.2914300287597
650,616.2940762379014
651,616.2953447963811
652,616.2952725342521
653,616.2938996950068
654,616.2912582153022
655,616.2873617480999
656,616.2821981503861
657,616.2757249553056
658,616.2678680585034
659,616.2585235333999
660,616.2475622165751
661,616.2348365149342
662,616.2201887980992
663,616.2034607564341
664,616.1845032107234
665,616.1631859854676
666,616.1394075143883
667,616.113103819795
668,616.0842564808393
669,616.0528992665448
670,616.019123251422
671,615.9830803643124
672,615.9449853692215
673,615.905116242554
674,615.8638128396097
675,615.8214736641962
676,615.7785504878677
677,615.7355405523109
678,615.6929761673496
679,615.6514116695629
680,615.6114078992766
681,615.5735145975789
682,615.5382514213902
683,615.5060885430953
684,615.4774279276522
685,615.45258632952
686,615.4317809080086
687,615.4151182347157
688,615.4025873820488
689,615.3940576725337
690,615.3892814657349
691,615.3879020258009
692,615.3894660711969
693,615.3934401803467
694,615.399229966669
695,615.4062009026472
696,615.4136998048409
697,615.4210761995643
698,615.4277030245788
699,615.4329963519868
700,615.436433948425
701,615.4375724166391
702,615.4360624252615
703,615.4316613040706
704,615.4242421817711
705,615.413798874229
706,615.4004458827643
707,615.3844131606472
708,615.3660357453168
709,615.3457388448256
710,615.324019365634
711,615.3014250548086
712,615.2785323788488
713,615.255924068191
714,615.2341670836737
715,615.2137917111417
716,615.1952725061449
717,615.1790117652561
718,615.1653260704802
719,615.1544363237962
720,615.1464616127543
721,615.1414171812611
722,615.1392166489759
723,615.1396784083137
724,615.1425358752457
725,615.1474510442218
726,615.1540306394047
727,615.1618440643578
728,615.1704423049987
729,615.1793769241963
730,615.1882183174092
731,615.1965724827388
732,615.2040956671026
733,615.2105063539022
734,615.2155941541077
735,615.219225275182
736,615.221344407816
737,615.2219730977221
738,615.2212048977844
739,615.219197727458
740,615.2161638616416
741,615.2123579006492
742,615.2080630585581
743,615.203576219908
744,615.1991924334852
745,615.1951897345649
746,615.1918152591848
747,615.1892734303736
748,615.1877166302559
749,615.1872384389994
750,615.1878693593156
751,615.1895748965698
752,615.192255811087
753,615.1957502912676
754,615.1998378116358
755,615.2042446045875
756,615.2086509098124
757,615.2127003075758
758,615.2160114007182
759,615.2181919158782
760,615.2188550231775
761,615.2176373926259
762,615.2142182646458
763,615.2083386327405
764,615.1998195227472
765,615.1885783313278
766,615.1746422890733
767,615.1581583152606
768,615.1393987519881
769,615.1187626464495
770,615.0967723857167
771,615.0740656068645
772,615.0513824499284
773,615.029548415041
774,615.0094533047023
775,614.9920269376099
776,614.978212477448
777,614.9689382825948
778,614.9650891244813
779,614.9674775005693
780,614.9768156960217
781,614.9936893010995
782,615.018533056399
783,615.0516100797137
784,615.0929956022952
785,615.1425662568821
786,615.1999957739
787,615.2647577310337
788,615.3361357503962
789,615.4132411668646
790,615.4950376934806
791,615.5803721189776
792,615.6680097364695
793,615.7566730321802
794,615.8450820670038
795,615.9319948911815
796,616.0162462587444
797,616.0967829530264
798,616.1726942905519
799,616.2432367983682
800,616.3078525062875
801,616.3661806411391
802,616.418062730402
803,616.4635412331791
804,616.502851850954
805,616.5364097179674
806,616.5647898584787
807,616.588702672182
808,616.6089656478447
809,616.6264727960457
810,616.6421632953582
811,616.6569905915852
812,616.671892852548
813,616.6877654553366
814,616.7054361189192
815,616.7256432806371
816,616.7490182453959
817,616.7760715237536
818,616.8071836536751
819,616.8426006420632
820,616.8824339471075
821,616.9266646947478
822,616.9751516485983
823,617.0276423888175
824,617.0837872014257
825,617.1431552370244
826,617.2052524679913
827,617.2695408808075
828,617.335458268172
829,617.4024379512095
830,617.4699277400064
831,617.5374074317097
832,617.6044041621444
833,617.6705049743675
834,617.7353660708029
835,617.7987183998124
836,617.8603694496095
837,617.9202013096528
838,617.978165226689
839,618.0342730861537
840,618.0885864367856
841,618.1412037342196
842,618.1922464273802
843,618.2418444893336
844,618.2901220506698
845,618.3371838260307
846,618.383102954522
847,618.4279107592323
848,618.4715888640565
849,618.5140640931036
850,618.5552065344123
851,618.5948309934919
852,618.6327017880903
853,618.6685405036048
854,618.7020360385333
855,618.7328561422569
856,618.7606597302291
857,618.7851094535524
858,618.8058841620244
859,618.8226909975875
860,618.8352769198766
861,618.8434394950907
862,618.8470367683497
863,618.8459960423669
864,618.8403214568268
865,618.8301003580035
866,618.8155084410731
867,618.7968134663876
868,618.7743770759351
869,618.7486540517007
870,618.7201884091596
871,618.6896060127657
872,618.657603801734
873,618.6249360397347
874,618.592398163686
875,618.5608088653898
876,618.5309910767967
877,618.5037525319723
878,618.4798665006242
879,618.4600531547908
880,618.4449619178808
881,618.4351550963875
882,618.4310930928701
883,618.4331214965224
884,618.4414603057745
885,618.4561954648005
886,618.4772728465063
887,618.5044948279976
888,618.5375196641368
889,618.5758639136294
890,618.6189081428381
891,618.6659059913197
892,618.7159964783478
893,618.7682192633386
894,618.8215325052715
895,618.8748329689982
896,618.9269780226153
897,618.9768091077607
898,619.0231761623245
899,619.0649623925287
900,619.1011087626215
901,619.130637590175
902,619.1526747017268
903,619.16646971706
904,619.1714141275644
905,619.1670568100927
906,619.153116470106
907,619.12949038444
908,619.0962588560209
909,619.0536850043235
910,619.0022098134525
911,618.9424426582364
912,618.8751477568699
913,618.8012271105638
914,618.7217004754292
915,618.6376828049877
916,618.5503594928883
917,618.4609597249739
