acceleration,velocity,displacement
-0.04421683502414717,0.0,0.0
-0.04455501454834699,-2.219296239312354e-05,-5.5482405982808855e-09
-0.04485733264924999,-4.454604919252278e-05,-2.223299349469247e-08
-0.045132929785486824,-6.704361480120699e-05,-5.0130409493124914e-08
-0.045390736094941965,-8.967453127131418e-05,-8.93099460112552e-08
-0.045639275666711054,-0.00011243203421172743,-1.3983658738201559e-07
-0.045886491455272634,-0.00013531347599222336,-2.017729649330033e-07
-0.04613958629795,-0.00015831999543052902,-2.751813327886914e-07
-0.04640487562707572,-0.00018145611091178546,-3.6012535937427e-07
-0.04668764986492971,-0.0002047292422847868,-4.566716976734131e-07
-0.046992048100313176,-0.00022814916677609752,-5.648912999386342e-07
-0.04732094827681855,-0.00025172741587038043,-6.848604456002537e-07
-0.04767588185346368,-0.000275476623402951,-8.166614554185865e-07
-0.048056981632550046,-0.0002994098392744544,-9.60383071087938e-07
-0.04846296966878565,-0.0003235398270997883,-1.1161204876814987e-06
-0.04889118895738982,-0.00034787836675633215,-1.2839750361455287e-06
-0.049337679379420525,-0.00037243558384053474,-1.4640535237947453e-06
-0.049797295218542766,-0.0003972193274900256,-1.6564672516273855e-06
-0.05026385806800309,-0.00042223461581166204,-1.8613307374528074e-06
-0.0507303360159618,-0.00044748316433265326,-2.0787601824888863e-06
-0.051189039089716885,-0.00047296300810907295,-2.308871725599318e-06
-0.05163182230282895,-0.0004986682234572094,-2.5517795334908887e-06
-0.052050290292004,-0.0005245887516059177,-2.8075937772566703e-06
-0.05243600032281681,-0.0005507103242596229,-3.076418546223055e-06
-0.052780662599798446,-0.0005770144899902767,-3.35834974978553e-06
-0.05307633768308243,-0.0006034787400609969,-3.6534730572983485e-06
-0.053315629920514855,-0.0006300767319618963,-3.961861925304072e-06
-0.05349187359829774,-0.0006567786078415994,-4.283575760254946e-06
-0.053599306271185115,-0.0006835514028089701,-4.618658262917588e-06
-0.05363322197333664,-0.0007103595348701005,-4.967135997337356e-06
-0.05359009529666692,-0.0007371653641876014,-5.329017222101781e-06
-0.05346766623909652,-0.0007639298045715423,-5.704291014291567e-06
-0.05326497699965507,-0.0007906129653812302,-6.09292670677976e-06
-0.052982355995240385,-0.0008171747986299541,-6.494873647782556e-06
-0.05262134981191252,-0.0008435757250817423,-6.91006127871048e-06
-0.05218460890100128,-0.0008697772147599707,-7.338399513670908e-06
-0.05167573664610816,-0.0008957423011467481,-7.779779392647588e-06
-0.051099113288610644,-0.0009214360136304278,-8.234073971341882e-06
-0.05045970566733969,-0.0009468257183694154,-8.701139404341844e-06
-0.049762871378206674,-0.000971881362630802,-9.180816174591897e-06
-0.049014163592951555,-0.0009965756213735914,-9.672930420592996e-06
-0.04821914210970481,-0.0010208839477992555,-1.0177295312886208e-05
-0.04738319729194378,-0.0010447845326496676,-1.0693712432998438e-05
-0.04651139493503458,-0.0010682581807064122,-1.1221973111337458e-05
-0.045608350442668526,-0.001091288117050838,-1.1761859685776771e-05
-0.044678139807730756,-0.0011138597396134378,-1.231314664994284e-05
-0.043724253364524374,-0.0011359603379065015,-1.2875601669322825e-05
-0.042749596424353255,-0.0011575788003537208,-1.344898645388788e-05
-0.041756538228161534,-0.0011787053340168495,-1.4033057487480523e-05
-0.04074700674809876,-0.0011993312202609146,-1.4627566626049963e-05
-0.039722622529788455,-0.0012194486275803865,-1.5232261588010289e-05
-0.038684861166956075,-0.0012390504985045727,-1.5846886369531527e-05
-0.037635231224633074,-0.00125813052160247,-1.6471181624558287e-05
-0.03657545200857284,-0.0012766831924107716,-1.7104885053061598e-05
-0.03550761420828699,-0.0012947039589649865,-1.774773184090554e-05
-0.034434307777618745,-0.001312189439461463,-1.8399455190512153e-05
-0.03335870596603212,-0.0013291376928973757,-1.9059786973601864e-05
-0.032284600540894715,-0.0013455485195241076,-1.9728458526707236e-05
-0.031216388725638585,-0.001361423766840741,-2.0405201598298448e-05
-0.030159016258834336,-0.0013767676180868591,-2.1089749444530348e-05
-0.029117883276977705,-0.001391586842970812,-2.1781838059794766e-05
-0.028098720314802407,-0.0014058909938687572,-2.248120751900466e-05
-0.027107440828951862,-0.0014196925341546957,-2.3187603401010523e-05
-0.02614997577867369,-0.001433006888306602,-2.3900778256625846e-05
-0.02523209651558308,-0.0014458524063801661,-2.4620493080297538e-05
-0.02435923426466852,-0.0014582502390752291,-2.5346518741661386e-05
-0.02353630585540726,-0.001470224124105248,-2.6078637332456504e-05
-0.02276755457105934,-0.0014818000892118646,-2.681664338578578e-05
-0.02205641257476334,-0.0014930060809983203,-2.7560344928338327e-05
-0.02140538910565868,-0.001503871531418426,-2.8309564331442514e-05
-0.020815987457195696,-0.0015144268755591394,-2.9064138933186907e-05
-0.020288653324731905,-0.0015247030357546214,-2.9823921411015346e-05
-0.01982275667833354,-0.0015347308882553876,-3.058877989201785e-05
-0.01941660817548437,-0.0015445407294688422,-3.1358597796448905e-05
-0.019067509113295997,-0.0015541617587910372,-3.2133273418513876e-05
-0.01877183170534929,-0.0015636215939956986,-3.291271925671056e-05
-0.01852512474282019,-0.001572945833107741,-3.369686111348642e-05
-0.018322238219534742,-0.0015821576738483298,-3.448563699022544e-05
-0.018157458489667013,-0.0015912775980256302,-3.527899580819393e-05
-0.0180246430168556,-0.001600323123402261,-3.60768959885509e-05
-0.017917342232588847,-0.0016093086197146221,-3.6879303924330124e-05
-0.017828897212107488,-0.0016182451795757962,-3.768619237415273e-05
-0.017752506069131865,-0.001627140530396106,-3.849753880164571e-05
-0.017681257676601083,-0.0016359989713325392,-3.931332367707787e-05
-0.017608136758304384,-0.0016448213199412656,-4.013352874989632e-05
-0.017526008767742584,-0.0016536048563227774,-4.095813529396233e-05
-0.017427596020103783,-0.001662343257519739,-4.178712232242296e-05
-0.017305457673382547,-0.0016710265209431106,-4.262046476703867e-05
-0.017151985231177894,-0.0016796408816692507,-4.3458131617691765e-05
-0.016959423524677903,-0.0016881687338582145,-4.4300084021573634e-05
-0.016719925767402926,-0.0016965885711812346,-4.5146273347833495e-05
-0.016425649448158785,-0.0017048749649851251,-4.5996639231875086e-05
-0.01606889570152743,-0.0017129986012725466,-4.68511076234395e-05
-0.01564228812589976,-0.0017209263972294035,-4.770958887306499e-05
-0.015138980190479014,-0.001728621714308498,-4.857197590094947e-05
-0.01455287613823409,-0.0017360446783906763,-4.943814249912426e-05
-0.013878848825044459,-0.0017431526096314959,-5.0307941821129804e-05
-0.013112937652542896,-0.0017499005562508928,-5.1181205112600404e-05
-0.01225251053731791,-0.001756241918298358,-5.205774073123771e-05
-0.01129637727051124,-0.0017621291402503151,-5.293733349587488e-05
-0.010244847850858912,-0.0017675144465306577,-5.381974439257013e-05
-0.009099735948362385,-0.001772350592480463,-5.470471065232291e-05
-0.007864311911756818,-0.0017765916044454927,-5.5591946201554395e-05
-0.006543211298356555,-0.001780193485248021,-5.6481142473977776e-05
-0.0051423050393973055,-0.0017831148643324595,-5.7371969561372896e-05
-0.0036685370979277236,-0.0017853175748667907,-5.8264077671172706e-05
-0.002129735285828651,-0.0017867671429627298,-5.9157098850630084e-05
-0.0005344012349304835,-0.0017874331770929197,-6.0050648930644e-05
0.001108513273939561,-0.0017872896490831675,-6.094432963718802e-05
0.0027898346577087257,-0.0017863150621002554,-6.183773081498387e-05
0.00450038998939133,-0.0017844925059384803,-6.273043270699356e-05
0.006231211736583369,-0.0017818096055069866,-6.362200823485493e-05
0.007973711903329057,-0.0017782583745970086,-6.451202522988094e-05
0.009719812684660599,-0.0017738349934500112,-6.540004857189269e-05
0.011462023305172769,-0.001768539534452553,-6.628564220386832e-05
0.013193458506081066,-0.0017623756639997394,-6.71683710034814e-05
0.014907801900868954,-0.0017553503488980018,-6.804780250670583e-05
0.01659922451591518,-0.0017474735922938058,-6.892350849200378e-05
0.018262273064483005,-0.0017387582178987062,-6.97950664445519e-05
0.0198917435492586,-0.0017292197137452707,-7.06620609274629e-05
0.02148255479342803,-0.001718876139159599,-7.152408489068911e-05
0.023029634595433883,-0.0017077480918123835,-7.238074094843211e-05
0.024527828872888558,-0.001695858725945303,-7.323164265287153e-05
0.02597184150869098,-0.001683233808349908,-7.407641578644533e-05
0.027356209957933066,-0.0016699017954832519,-7.491469968740362e-05
0.028675319757088164,-0.0016558939130544965,-7.574614861453805e-05
0.02992346005268886,-0.0016412442181020523,-7.657043314732719e-05
0.031094921071589343,-0.0016259896228209827,-7.738724160755794e-05
0.03218413208451929,-0.0016101698595319556,-7.819628147814618e-05
0.033185835027686975,-0.001593827367753904,-7.899728078496764e-05
0.034095285176403804,-0.0015770070877028815,-7.978998939883184e-05
0.034908466615643285,-0.0015597561497548698,-8.057418020819628e-05
0.03562230759521727,-0.0015421234562021547,-8.134965010968554e-05
0.03623488039465549,-0.0015241591592046865,-8.211622076353725e-05
0.036745572592647595,-0.0015059140459578607,-8.287373906482788e-05
0.037155220987787216,-0.001487438847562752,-8.362207728820804e-05
0.037466204487068416,-0.0014687834911940381,-8.436113287289724e-05
0.03768249662116158,-0.0014499963159169806,-8.5090827824675e-05
0.03780968068305644,-0.001431123271590926,-8.581110772155197e-05
0.03785493011575554,-0.001412207118891223,-8.652194031917251e-05
0.03782695430382811,-0.001393286647786327,-8.72233137608419e-05
0.037735907143307615,-0.0013743959324245432,-8.791523440589461e-05
0.037593254349949035,-0.001355563642051229,-8.859772429951356e-05
0.03741159598310222,-0.0013368124294679661,-8.927081831739336e-05
0.03720444278659902,-0.0013181584197755408,-8.993456102970423e-05
0.03698594830400131,-0.0012996108220028908,-9.058900334014883e-05
0.036770603088197795,-0.001281171684154841,-9.123419896668826e-05
0.03657290185033138,-0.0012628358079202087,-9.187020083970702e-05
0.03640699746519462,-0.0012445908330913273,-9.24970574999599e-05
0.036286356292295575,-0.0012264174946519549,-9.311480958189572e-05
0.03622342770715826,-0.0012082900486520914,-9.372348646772173e-05
0.03622933849034391,-0.0011901768571027159,-9.432310319416044e-05
0.0363136213280293,-0.0011720411171481226,-9.491365768772315e-05
0.03648398680251315,-0.0011538417151154869,-9.549512839578906e-05
0.03674614868187519,-0.0011355341812443898,-9.606747236987903e-05
0.037103710669593365,-0.0011170717164065227,-9.663062384429175e-05
0.0375581178825661,-0.0010984062592684829,-9.71844933382105e-05
0.03810866952191062,-0.0010794895624173636,-9.772896729363196e-05
0.03875258334135769,-0.0010602742492015465,-9.826390824653669e-05
0.03948510003340953,-0.0010407148283578546,-9.878915551592653e-05
0.04029961695342128,-0.001020768649111147,-9.930452638529378e-05
0.04118784403603747,-0.0010003967838637822,-9.980981774353751e-05
0.042139978223214046,-0.0009795648282989694,-0.0001003048081465782
0.043144895164783696,-0.0009582436099519699,-0.00010078926025614094
0.04419035831913853,-0.0009364097965809893,-0.00010126292360777417
0.045263245760874656,-0.000914046395560986,-0.00010172553765580966
0.046349793637785956,-0.0008911431357113209,-0.00010217683503862774
0.04743585288289056,-0.0008676967240811517,-0.00010261654500357586
0.0485071542105436,-0.0008437109723077932,-0.0001030443969276731
0.04954957681635228,-0.0008191967895510693,-0.00010346012386813782
0.050549417943644016,-0.0007941720408610702,-0.00010386346607574086
0.05149366164999355,-0.0007686612709626607,-0.00010425417440369679
0.05237024414676153,-0.000742695294513472,-0.00010463201354506582
0.05316831044035698,-0.0007163106558666924,-0.00010499676503266086
0.053878454786804975,-0.0006895489645599019,-0.00010534822993776751
0.05449293700544529,-0.0006624561166118393,-0.00010568623120806045
0.055005867174111024,-0.0006350814155669502,-0.00010601061559110515
0.05541335111925462,-0.0006074766109936088,-0.00010632125509774528
0.05571358826303629,-0.0005796948761480361,-0.00010661804796953069
0.055906913436843536,-0.0005517897507230662,-0.00010690091912624847
0.05599577699454943,-0.0005238140781152179,-0.00010716982008345804
0.055984662789985866,-0.000495818968169084,-0.00010742472834502911
0.05587994916868198,-0.00046785281517941707,-0.00010766564629086624
0.05568972182755155,-0.0004399603974303587,-0.00010789259959401868
0.05542354823416838,-0.0004121820799149287,-0.000108105635213355
0.055092221746851196,-0.00038455313741967383,-0.00010830481901768866
0.054707481531419314,-0.0003571032116001062,-0.0001084902331049436
0.05428171389086339,-0.00032985591274453554,-0.00010866197288602976
0.05382764183977537,-0.00030282857381187583,-0.00010882014400766886
0.0533580110176404,-0.0002760321605975219,-0.00010896485919127121
0.05288528029030893,-0.00024947133777053455,-0.00010909623506586323
0.052421325281918695,-0.00022314468637747763,-0.00010921438907190024
0.05197716359910271,-0.00019704506415722228,-0.00010931943650953391
0.05156271122911073,-0.0001711600954501689,-0.00010941148779943576
0.051186578989485115,-0.00014547277289551994,-0.00010949064601652217
0.0508559155387372,-0.00011996214926346437,-0.00010955700474706192
0.05057630066216817,-9.460409521323803e-05,-0.0001096106463081811
0.05035169052053583,-6.937209741756203e-05,-0.00010965164035633881
0.0501844150228532,-4.423807103171477e-05,-0.00010968004289845113
0.050075225739512,-1.9173160841123468e-05,-0.00010969589570641934
0.05002339093047783,5.851493326373989e-06,-0.00010969922612329803
0.05002683306132825,3.086404932432551e-05,-0.00010969004723763535
0.050082303753942126,5.58913335281431e-05,-0.00010966835839192224
0.05018559048687902,8.095830708834838e-05,-0.00010963414598176811
0.05033174747025787,0.0001060876415776326,-0.00010958738449460161
0.050515340057097784,0.00013129941345947153,-0.00010952803773084233
0.05073068892791465,0.00015661092070572464,-0.00010945606014730103
0.050972098628397994,0.0001820366175948028,-0.00010937139826272589
0.051234056135648236,0.00020758815628581437,-0.00010927399206925573
0.05151138881478861,0.0002332745175234236,-0.00010916377640080343
0.051799375785407976,0.00025910220867347275,-0.0001090406822192542
0.05209381119294862,0.00028507550541806187,-0.00010890463779073132
0.052391022247091086,0.0003111967137780718,-0.00010875556973593229
0.05268784891373604,0.0003374664315682786,-0.00010859340394959569
0.052981594522834116,0.0003638837924274211,-0.00010841806639359676
0.05326995627200644,0.00039044668012613127,-0.00010822948377545837
0.05355094231600585,0.00041715190477313433,-0.00010802758412923355
0.05382277980740045,0.0004439953353039859,-0.00010781229731921427
0.05408381765777068,0.0004709719846702787,-0.0001075835554892207
0.05433242910868001,0.0004980760463618914,-0.00010734129348146266
0.05456692096470815,0.0005253008838802385,-0.00010708544924890213
0.05478545675406482,0.0005526389783099317,-0.00010681596428335458
0.05498599950330358,0.0005800818423742738,-0.00010653278407818353
0.055166277075508405,0.0006076199115189768,-0.00010623585863971021
0.0553237708176547,0.0006352424234922676,-0.0001059251430559574
0.055455727827997965,0.0006629372981536807,-0.00010560059812554592
0.05555919770031933,0.00069069102953576,-0.00010526219104362356
0.055631093810866485,0.0007184886024135565,-0.00010490989613563623
0.05566827613549393,0.0007463134449001466,-0.0001045436956238078
0.05566764888272027,0.0007741474261547002,-0.0001041635804060441
0.05562626389429994,0.0008019709043489553,-0.00010376955082341818
0.05554142001936831,0.0008297628253273724,-0.0001033616173909991
0.05541074894324111,0.0008575008675680248,-0.00010293980146777526
0.055232279610578104,0.0008851616247064796,-0.00010250413584470662
0.055004476994480744,0.0009127208138577442,-0.00010205466523506557
0.054726255462730404,0.0009401534969720471,-0.00010159144665735812
0.0543969702193936,0.0009674343033925781,-0.00010111454970726696
0.05401639134471216,0.0009945376437836045,-0.00010062405672047291
0.05358466473921412,0.001021437907804586,-0.00010012006283257586
0.053102264032747294,0.0010481096399975764,-9.960267594562532e-05
0.052569937580503386,0.001074527690400889,-9.90720166130257e-05
0.05198865448552406,0.001100667338417396,-9.852821785582113e-05
0.051359552670554164,0.0011265043902064155,-9.797142492366517e-05
0.05068389088321825,0.0011520152510948586,-9.740179501333985e-05
0.04996300617241353,0.0011771769753587665,-9.681949695672644e-05
0.049198278952017775,0.0012019672966398743,-9.622471088872678e-05
0.04839110825566394,0.0012263646434417948,-9.561762790370637e-05
0.047542899178971504,0.0012503481453004536,-9.49984497065208e-05
0.04665506295242274,0.0012738976358333022,-9.436738826123737e-05
0.045729028762215566,0.0012969936587619618,-9.372466543758855e-05
0.044766266249678575,0.0013196174825149353,-9.307051265226932e-05
0.043768318245641445,0.0013417511286387652,-9.24051704994809e-05
0.042736843742164694,0.0013633774191357166,-9.172888836253729e-05
0.04167367090207505,0.0013844800477967765,-9.104192399580416e-05
0.04058085902176227,0.0014050436802777358,-9.034454306378552e-05
0.03946076659490405,0.0014250540866819024,-8.963701862204562e-05
0.038316120297447485,0.0014444983084049901,-8.89196305232739e-05
0.03715007817202731,0.0014633648580223589,-8.819266473166706e-05
0.03596628054507692,0.001481643947701635,-8.745641253023606e-05
0.034768883605651786,0.001499327738739317,-8.671116960862581e-05
0.03356257153361972,0.001516410602524135,-8.595723502330995e-05
0.032352543046385976,0.0015328893811691364,-8.519491002738664e-05
0.031144468485152947,0.001548763634052021,-8.442449677358135e-05
0.02994441558850072,0.0015640358550704345,-8.364629690130074e-05
0.02875874565225378,0.001578711645380623,-8.286061002618797e-05
0.027593985054771772,0.0015927998280573794,-8.206773215782848e-05
0.026456678980055524,0.0016063124940660862,-8.126795407729761e-05
0.02535323494481565,0.001619264972547304,-8.046155971064426e-05
0.024289763831962515,0.0016316757222414986,-7.964882453694705e-05
0.023271925278366194,0.0016435661445190807,-7.883001407025691e-05
0.022304782637849158,0.0016549603214981346,-7.800538245375261e-05
0.021392671388474293,0.0016658846850047153,-7.71751712021269e-05
0.020539084520536106,0.0016763676239819679,-7.633960812488023e-05
0.019746578698827465,0.0016864390397868087,-7.549890645893804e-05
0.01901670445697917,0.0016961298605757604,-7.46532642338474e-05
0.018349961142656735,0.0017054715269756693,-7.380286388695954e-05
0.01774577355801039,0.0017144954606508362,-7.29478721400529e-05
0.017202485087016182,0.0017232325253120928,-7.208844014356217e-05
0.016717363474332135,0.0017317124874524298,-7.122470389037105e-05
0.01628661892897821,0.0017399634830532573,-7.035678489774462e-05
0.015905436912049663,0.0017480114970135142,-6.948479115272793e-05
0.015568028493016316,0.0017558798633647806,-6.860881831263336e-05
0.015267700627564045,0.0017635887956449258,-6.772895114788093e-05
0.014996948690887116,0.0017711549579745385,-6.684526520947606e-05
0.014747573921056868,0.0017785910886275245,-6.595782869782554e-05
0.014510827547307996,0.0017859056889946157,-6.506670450342e-05
0.014277580601153608,0.001793102791031731,-6.417195238341342e-05
0.014038514725179621,0.0018001818148633143,-6.327363123193966e-05
0.013784326397585384,0.0018071375251440054,-6.237180139693783e-05
0.013505936171957928,0.0018139600907863913,-6.146652699295523e-05
0.013194695853486175,0.0018206352487927524,-6.055787815806044e-05
0.01284258864826248,0.0018271445699181896,-5.96459332033827e-05
0.012442418759275767,0.0018334658217700741,-5.873078060546064e-05
0.011987987350721612,0.0018395734232975734,-5.781252079419373e-05
0.011474251704448806,0.001845438983061366,-5.689126769260399e-05
0.010897464179702004,0.0018510319120324038,-5.596714996883055e-05
0.010255287674831415,0.0018563200999960371,-5.5040311965823435e-05
0.009546884762620323,0.0018612706431054,-5.4110914280048075e-05
0.008772977943492305,0.0018658506087819281,-5.317913396707624e-05
