frame_number,force
0,613.0197374217918
1,612.985866448473
2,612.9528146284198
3,612.9206503183958
4,612.8894405934017
5,612.8592510447055
6,612.830145582575
7,612.8021862445959
8,612.7754330104273
9,612.7499436236802
10,612.7257734213697
11,612.7029751711611
12,612.6815989164593
13,612.6616918293353
14,612.6432980713902
15,612.6264586628417
16,612.6112113603084
17,612.5975905439498
18,612.5856271148208
19,612.575348403464
20,612.5667780907976
21,612.5599361422576
22,612.5548387559622
23,612.5514983254666
24,612.5499234175032
25,612.5501187650038
26,612.5520852756928
27,612.5558200566127
28,612.5613164550056
29,612.5685641159992
30,612.5775490575691
31,612.5882537632224
32,612.6006572926798
33,612.6147354104893
34,612.6304607320823
35,612.6478028863754
36,612.6667286936961
37,612.6872023575946
38,612.7091856690481
39,612.7326382216045
40,612.7575176360729
41,612.7837797933228
42,612.8113790736134
43,612.8402686007242
44,612.8704004890764
45,612.9017260920333
46,612.9341962496217
47,612.9677615339855
48,613.0023724910259
49,613.0379798768959
50,613.0745348882757
51,613.1119893855741
52,613.1502961083812
53,613.1894088826685
54,613.2292828193501
55,613.269874503781
56,613.3111421755511
57,613.353045897631
58,613.3955477136686
59,613.4386117920902
60,613.4822045556103
61,613.5262947948252
62,613.5708537647257
63,613.6158552631396
64,613.6612756901922
65,613.7070940878925
66,613.7532921590047
67,613.7998542645574
68,613.8467673996424
69,613.8940211474358
70,613.9416076116051
71,613.9895213274448
72,614.0377591522602
73,614.086320135745
74,614.1352053713632
75,614.1844178300202
76,614.2339621775525
77,614.2838445777767
78,614.3340724830781
79,614.3846544147801
80,614.4355997357179
81,614.4869184174546
82,614.5386208043915
83,614.5907173767357
84,614.6432185139987
85,614.6961342604569
86,614.7494740938281
87,614.8032466983332
88,614.8574597433424
89,614.9121196688551
90,614.9672314790837
91,615.0227985454386
92,615.0788224203641
93,615.1353026637607
94,615.1922366840153
95,615.2496195957717
96,615.3074440965166
97,615.3657003639032
98,615.4243759755252
99,615.4834558524664
100,615.5429222273955
101,615.6027546373953
102,615.6629299412697
103,615.7234223607921
104,615.7842035451642
105,615.8452426577848
106,615.906506484268
107,615.9679595604615
108,616.0295643189827
109,616.0912812525426
110,616.1530690920914
111,616.2148849976293
112,616.2766847593509
113,616.3384230067076
114,616.4000534230444
115,616.4615289637646
116,616.5228020763941
117,616.583824921323
118,616.6445495922479
119,616.7049283354123
120,616.7649137667078
121,616.8244590856307
122,616.8835182850065
123,616.9420463553084
124,616.9999994823269
125,617.0573352369315
126,617.114012755721
127,617.1699929114087
128,617.2252384717879
129,617.2797142460573
130,617.3333872172203
131,617.3862266592047
132,617.4382042373592
133,617.4892940911174
134,617.5394728979242
135,617.5887199179485
136,617.6370170195727
137,617.6843486860676
138,617.7307020041587
139,617.7760666353084
140,617.8204347705243
141,617.8638010694631
142,617.9061625846185
143,617.9475186715108
144,617.9878708859951
145,618.0272228700713
146,618.0655802278781
147,618.102950393848
148,618.1393424951904
149,618.1747672108837
150,618.2092366292349
151,618.2427641058748
152,618.2753641239115
153,618.3070521578832
154,618.3378445430873
155,618.3677583516516
156,618.3968112763052
157,618.4250215222721
158,618.452407707229
159,618.4789887689894
160,618.5047838805195
161,618.5298123719654
162,618.5540936594543
163,618.5776471804605
164,618.6004923354935
165,618.622648435784
166,618.6441346564676
167,618.6649699945584
168,618.685173230848
169,618.7047628948495
170,618.7237572319827
171,618.7421741722601
172,618.7600312996817
173,618.7773458214143
174,618.7941345357332
175,618.8104137977347
176,618.82619948192
177,618.8415069408247
178,618.8563509589047
179,618.870745700987
180,618.8847046548623
181,618.8982405680135
182,618.911365378915
183,618.924090143668
184,618.9364249588904
185,618.9483788817839
186,618.9599598482715
187,618.9711745901506
188,618.9820285523541
189,618.9925258115495
190,619.0026689973655
191,619.0124592175695
192,619.0218959885681
193,619.0309771726553
194,619.0396989233878
195,619.0480556403062
196,619.0560399340172
197,619.0636426024873
198,619.0708526192442
199,619.0776571340151
200,619.0840414861392
201,619.0899892309362
202,619.0954821790959
203,619.100500449019
204,619.1050225318266
205,619.1090253684711
206,619.1124844380885
207,619.1153738565349
208,619.117666484009
209,619.1193340407907
210,619.1203472303085
211,619.1206758689249
212,619.1202890220063
213,619.1191551460073
214,619.117242236364
215,619.114517980911
216,619.1109499183368
217,619.1065056009973
218,619.1011527613305
219,619.0948594811515
220,619.0875943631829
221,619.0793267041784
222,619.0700266688843
223,619.0596654639153
224,619.0482155104849
225,619.0356506149175
226,619.0219461359131
227,619.0070791475151
228,618.9910285965766
229,618.9737754533385
230,618.9553028536382
231,618.9355962312751
232,618.9146434391363
233,618.8924348578496
234,618.8689634910198
235,618.8442250464492
236,618.8182180030174
237,618.7909436630448
238,618.7624061900374
239,618.7326126317856
240,618.701572928889
241,618.6692999088597
242,618.635809265996
243,618.6011195272466
244,618.5652520043534
245,618.5282307326935
246,618.4900823973543
247,618.4508362470297
248,618.410523996314
249,618.3691797169726
250,618.3268397188282
251,618.2835424210152
252,618.23932821444
253,618.1942393163347
254,618.1483196177925
255,618.101614525107
256,618.0541707956413
257,618.006036368887
258,617.9572601934126
259,617.9078920504973
260,617.8579823753056
261,617.8075820764592
262,617.7567423548578
263,617.7055145227041
264,617.6539498238669
265,617.6020992568741
266,617.5500134018868
267,617.4977422529953
268,617.4453350571187
269,617.3928401606601
270,617.3403048648969
271,617.2877752909146
272,617.2352962547817
273,617.1829111535837
274,617.1306618628037
275,617.0785886452819
276,617.0267300716661
277,616.9751229520281
278,616.9238022783143
279,616.8728011774091
280,616.8221508746669
281,616.7718806677143
282,616.7220179102192
283,616.6725880052559
284,616.6236144078572
285,616.5751186362444
286,616.527120291025
287,616.4796370814034
288,616.4326848572624
289,616.386277645924
290,616.3404276924913
291,616.295145502819
292,616.2504398882821
293,616.2063180115833
294,616.1627854328858
295,616.1198461556081
296,616.0775026712904
297,616.0357560030444
298,615.9946057471932
299,615.9540501127613
300,615.9140859585087
301,615.8747088272487
302,615.8359129772807
303,615.797691410947
304,615.760035900569
305,615.7229370122875
306,615.6863841285342
307,615.6503654700205
308,615.6148681182838
309,615.579878039992
310,615.5453801142734
311,615.51135816424
312,615.4777949936334
313,615.4446724292695
314,615.4119713697829
315,615.3796718410734
316,615.3477530588
317,615.3161934981925
318,615.2849709713485
319,615.2540627120653
320,615.223445468166
321,615.1930956011604
322,615.1629891929272
323,615.1331021589194
324,615.1034103672791
325,615.0738897632128
326,615.0445164979847
327,615.0152670618303
328,614.9861184199382
329,614.9570481504338
330,614.9280345831281
331,614.8990569377332
332,614.8700954603056
333,614.8411315567666
334,614.81214792238
335,614.7831286660265
336,614.7540594281104
337,614.7249274910605
338,614.6957218817295
339,614.6664334654504
340,614.6370550319201
341,614.6075813732552
342,614.5780093545359
343,614.5483379770889
344,614.5185684347817
345,614.488704163647
346,614.4587508850823
347,614.4287166426427
348,614.3986118321828
349,614.3684492249696
350,614.3382439833817
351,614.3080136688452
352,614.2777782416306
353,614.247560052046
354,614.2173838224601
355,614.1872766195992
356,614.1572678166729
357,614.1273890450053
358,614.0976741349076
359,614.0681590455541
360,614.0388817836605
361,614.0098823107418
362,613.9812024386093
363,613.9528857126244
364,613.9249772822178
365,613.8975237583633
366,613.8705730579969
367,613.8441742356974
368,613.8183773031685
369,613.7932330371672
370,613.7687927765235
371,613.7451082088802
372,613.722231147837
373,613.7002133013418
374,613.6791060323789
375,613.6589601131938
376,613.6398254744615
377,613.621750950934
378,613.6047840252079
379,613.5889705713148
380,613.5743545998631
381,613.560978006482
382,613.5488803253378
383,613.5380984894699
384,613.5286665995758
385,613.5206157026549
386,613.5139735816481
387,613.5087645570369
388,613.5050093014319
389,613.5027246684557
390,613.5019235375602
391,613.5026146766326
392,613.5048026242956
393,613.5084875936885
394,613.5136653992834
395,613.5203274079968
396,613.5284605155183
397,613.5380471483643
398,613.5490652917026
399,613.561488542574
400,613.5752861878477
401,613.5904233061115
402,613.6068608926358
403,613.6245560064748
404,613.6434619385951
405,613.6635283997423
406,613.6847017266211
407,613.7069251049002
408,613.7301388074748
409,613.7542804463561
410,613.7792852365035
411,613.8050862698876
412,613.8316147981056
413,613.8588005220446
414,613.8865718873883
415,613.9148563850051
416,613.9435808552967
417,613.9726717954547
418,614.0020556683794
419,614.0316592118232
420,614.061409746131
421,614.0912354787239
422,614.1210658032915
423,614.150831591561
424,614.1804654755742
425,614.2099021186095
426,614.2390784732396
427,614.2679340254319
428,614.2964110239399
429,614.324454694393
430,614.3520134374793
431,614.3790390105146
432,614.4054866915856
433,614.4313154253177
434,614.4564879491915
435,614.480970899288
436,614.5047348944828
437,614.5277545983867
438,614.5500087586232
439,614.5714802232137
440,614.5921559339706
441,614.6120268970305
442,614.6310881310252
443,614.649338593767
444,614.6667810885685
445,614.6834221513928
446,614.6992719200126
447,614.7143439863522
448,614.7286552332478
449,614.7422256570013
450,614.7550781772818
451,614.7672384361146
452,614.7787345878943
453,614.7895970824883
454,614.799858443479
455,614.8095530434135
456,614.8187168776585
457,614.8273873382299
458,614.8356029887789
459,614.8434033417554
460,614.8508286386442
461,614.8579196341794
462,614.8647173856078
463,614.8712630483171
464,614.8775976793726
465,614.8837620506232
466,614.8897964729927
467,614.8957406333141
468,614.9016334446053
469,614.907512910088
470,614.9134160006756
471,614.9193785452184
472,614.9254351325662
473,614.9316190244201
474,614.9379620779312
475,614.9444946771011
476,614.9512456723016
477,614.958242327618
478,614.965510276037
479,614.973073482573
480,614.9809542153045
481,614.9891730241804
482,614.9977487275382
483,615.0066984065217
484,615.0160374078216
485,615.0257793552009
486,615.0359361700839
487,615.0465181011476
488,615.0575337624617
489,615.0689901793538
490,615.0808928409017
491,615.0932457578655
492,615.1060515250044
493,615.1193113869264
494,615.1330253067147
495,615.1471920365667
496,615.1618091896802
497,615.1768733126627
498,615.1923799577323
499,615.2083237539078
500,615.224698476316
501,615.2414971127382
502,615.258711926577
503,615.2763345155328
504,615.2943558654166
505,615.3127663986844
506,615.3315560174858
507,615.3507141413087
508,615.3702297396252
509,615.390091360204
510,615.4102871538789
511,615.4308048965705
512,615.4516320092888
513,615.4727555767217
514,615.494162364818
515,615.5158388375298
516,615.5377711726849
517,615.5599452768448
518,615.5823467989508
519,615.6049611424613
520,615.6277734755811
521,615.6507687391454
522,615.6739316518417
523,615.6972467126911
524,615.7206982010155
525,615.744270174355
526,615.767946464913
527,615.7917106750916
528,615.8155461726482
529,615.8394360859944
530,615.8633633001886
531,615.887310454196
532,615.9112599399899
533,615.9351939040333
534,615.9590942516646
535,615.9829426549057
536,616.0067205641874
537,616.0304092243546
538,616.0539896951144
539,616.0774428759233
540,616.100749535239
541,616.1238903440171
542,616.1468459132277
543,616.169596835
544,616.1921237268725
545,616.214407278567
546,616.2364283007132
547,616.2581677749332
548,616.2796069046105
549,616.3007271655938
550,616.3215103561413
551,616.3419386456146
552,616.3619946216614
553,616.3816613357689
554,616.4009223471206
555,616.419761764737
556,616.438164287922
557,616.4561152449998
558,616.4736006301395
559,616.490607137852
560,616.5071221946783
561,616.5231339877231
562,616.5386314898835
563,616.553604481733
564,616.568043569991
565,616.5819402024447
566,616.5952866791364
567,616.6080761596089
568,616.6203026660128
569,616.631961081901
570,616.6430471465659
571,616.6535574448214
572,616.6634893922317
573,616.6728412159691
574,616.6816119317479
575,616.6898013175278
576,616.6974098848204
577,616.7044388483976
578,616.7108900950929
579,616.716766152281
580,616.7220701565681
581,616.7268058232484
582,616.7309774171246
583,616.7345897253003
584,616.7376480325297
585,616.7401580996402
586,616.7421261453885
587,616.7435588318264
588,616.744463252899
589,616.7448469256782
590,616.744717783416
591,616.7440841694576
592,616.7429548309368
593,616.7413389111441
594,616.7392459396132
595,616.7366858193503
596,616.7336688111052
597,616.7302055150006
598,616.7263068501085
599,616.7219840326555
600,616.7172485534915
601,616.7121121552738
602,616.7065868095826
603,616.7006846938964
604,616.6944181680794
605,616.6877997498741
606,616.6808420889415
607,616.6735579392171
608,616.6659601295352
609,616.6580615324954
610,616.6498750314126
611,616.6414134850634
612,616.6326896899247
613,616.6237163397291
614,616.6145059823065
615,616.6050709737707
616,616.5954234301101
617,616.5855751762742
618,616.57553769295
619,616.5653220614192
620,616.554938907162
621,616.5443983431671
622,616.5337099140975
623,616.5228825424304
624,616.5119244775547
625,616.5008432487523
626,616.4896456231191
627,616.4783375696852
628,616.4669242310968
629,616.4554099041399
630,616.4437980301279
631,616.4320911958308
632,616.420291145256
633,616.408398802257
634,616.3964143036532
635,616.3843370422549
636,616.3721657188883
637,616.3598984022801
638,616.347532595609
639,616.3350653086442
640,616.3224931345604
641,616.3098123305818
642,616.2970189015135
643,616.2841086850036
644,616.2710774371826
645,616.257920917274
646,616.2446349698997
647,616.2312156040508
648,616.2176590680032
649,616.2039619198001
650,616.1901210932334
651,616.1761339594693
652,616.1619983845434
653,616.1477127829418
654,616.1332761674747
655,616.1186881956413
656,616.1039492126384
657,616.0890602910249
658,616.0740232668321
659,616.0588407716721
660,616.0435162601962
661,616.0280540321424
662,616.0124592481959
663,615.9967379389725
664,615.980897006613
665,615.9649442186641
666,615.9488881940555
667,615.9327383810272
668,615.9165050269102
669,615.9001991397902
670,615.8838324422896
671,615.8674173178923
672,615.8509667503414
673,615.8344942566624
674,615.8180138143434
675,615.8015397831684
676,615.7850868221698
677,615.7686698021784
678,615.7523037145409
679,615.7360035767267
680,615.7197843357285
681,615.7036607703817
682,615.6876473939909
683,615.6717583588769
684,615.6560073645403
685,615.6404075710445
686,615.62497151903
687,615.6097110575944
688,615.5946372811283
689,615.5797604760285
690,615.5650900779448
691,615.5506346398314
692,615.536401810584
693,615.5223983235701
694,615.5086299940475
695,615.4951017243783
696,615.4818175160178
697,615.4687804874122
698,615.4559928971231
699,615.4434561716863
700,615.4311709378123
701,615.419137058449
702,615.4073536719892
703,615.3958192336847
704,615.3845315582294
705,615.3734878625122
706,615.3626848076957
707,615.3521185400685
708,615.3417847305582
709,615.3316786132682
710,615.3217950238013
711,615.3121284383147
712,615.3026730142159
713,615.293422633225
714,615.2843709473683
715,615.2755114284118
716,615.2668374212531
717,615.2583422017309
718,615.2500190391728
719,615.2418612638519
720,615.2338623394303
721,615.2260159403721
722,615.2183160341565
723,615.2107569678847
724,615.2033335586035
725,615.1960411864227
726,615.1888758893243
727,615.181834458453
728,615.1749145326066
729,615.168114690618
730,615.1614345403328
731,615.1548748029629
732,615.1484373916977
733,615.1421254835568
734,615.1359435835703
735,615.1298975804957
736,615.1239947934564
737,615.1182440091295
738,615.1126555093557
739,615.1072410892018
740,615.1020140655363
741,615.0969892761476
742,615.0921830694593
743,615.0876132850454
744,615.0832992253959
745,615.0792616196388
746,615.0755225800366
747,615.0721055519365
748,615.0690352575516
749,615.0663376336707
750,615.0640397632826
751,615.0621698010946
752,615.0607568929205
753,615.0598310888895
754,615.059423250487
755,615.0595649516437
756,615.0602883743584
757,615.0616261995287
758,615.0636114936705
759,615.0662775920754
760,615.069657978751
761,615.07378616327
762,615.0786955544824
763,615.0844193309257
764,615.0909903077136
765,615.0984407997095
766,615.1068024809427
767,615.1161062404577
768,615.1263820350352
769,615.137658739431
770,615.149963994926
771,615.1633240571143
772,615.177763643993
773,615.1933057855967
774,615.2099716766116
775,615.2277805335634
776,615.2467494582827
777,615.2668933093488
778,615.2882245830866
779,615.3107533054927
780,615.3344869363001
781,615.3594302863381
782,615.3855854493848
783,615.4129517497636
784,615.4415257068787
785,615.4713010176735
786,615.5022685576882
787,615.5344164010658
788,615.5677298594883
789,615.6021915395626
790,615.6377814175844
791,615.6744769300517
792,615.7122530778931
793,615.7510825421483
794,615.7909358086945
795,615.831781299493
796,615.8735855077412
797,615.9163131343619
798,615.9599272235229
799,616.0043892953249
800,616.0496594742709
801,616.0956966125226
802,616.1424584072372
803,616.189901511463
804,616.2379816381988
805,616.2866536573615
806,616.3358716856803
807,616.3855891699917
808,616.4357589649195
809,616.4863334062914
810,616.5372643817267
811,616.5885033996582
812,616.6400016577898
813,616.6917101118275
814,616.7435795452968
815,616.7955606412676
816,616.8476040567577
817,616.8996605004749
818,616.9516808144266
819,617.0036160597563
820,617.05541760692
821,617.1070372300601
822,617.1584272052146
823,617.2095404118833
824,617.2603304374572
825,617.3107516840064
826,617.3607594768291
827,617.4103101740163
828,617.4593612761487
829,617.5078715351555
830,617.5558010612878
831,617.603111427099
832,617.6497657672983
833,617.6957288733502
834,617.7409672817618
835,617.7854493551511
836,617.8291453553854
837,617.8720275082494
838,617.9140700592578
839,617.9552493204301
840,617.9955437080291
841,618.0349337713427
842,618.0734022125569
843,618.1109338977794
844,618.1475158593564
845,618.1831372896958
846,618.2177895267864
847,618.2514660315389
848,618.2841623570608
849,618.3158761100226
850,618.3466069042883
851,618.3763563068978
852,618.405127776296
853,618.4329265924542
854,618.4597597783323
855,618.4856360120814
856,618.5105655295512
857,618.534560016933
858,618.5576324936104
859,618.5797971854703
860,618.6010693890807
861,618.6214653272569
862,618.641001996615
863,618.659697007803
864,618.6775684192478
865,618.6946345654299
866,618.7109138807585
867,618.7264247200184
868,618.741185176148
869,618.7552128959858
870,618.7685248947017
871,618.7811373699398
872,618.7930655170898
873,618.8043233474153
874,618.8149235109012
875,618.8248771257043
876,618.8341936160826
877,618.8428805606102
878,618.8509435523362
879,618.8583860723214
880,618.865209377772
881,618.8714124058212
882,618.8769916938785
883,618.8819413173203
884,618.8862528451076
885,618.889915313693
886,618.8929152193724
887,618.8952365290918
888,618.8968607096184
889,618.8977667748788
890,618.8979313510918
891,618.8973287590488
892,618.8959311125758
893,618.8937084319317
894,618.8906287707418
895,618.8866583549802
896,618.8817617324502
897,618.8759019311077
898,618.8690406244497
899,618.8611383021057
900,618.8521544437614
901,618.8420476945947
902,618.8307760405253
903,618.8182969817562
904,618.8045677032695
905,618.7895452410123
906,618.7731866424878
907,618.7554491204645
908,618.7362901986914
909,618.7156678488367
910,618.6935406182903
911,618.6698677488862
912,618.6446092869443
913,618.6177261852577
914,618.5891803977461
915,618.5589349674897
916,618.5269541088347
917,618.4932032843076
