frame_number,force
0,567.035880000034
1,566.8467978856718
2,566.6672568845341
3,566.5055944938915
4,566.3679415732364
5,566.2575758146435
6,566.1746997523096
7,566.1166132624065
8,566.0781896468965
9,566.0525544092677
10,566.0318824144239
11,566.0082446292589
12,565.9744401157446
13,565.9247464313659
14,565.8555182475017
15,565.7655648283508
16,565.6562508768413
17,565.5312998646862
18,565.3963276193178
19,565.2581775804198
20,565.1241547354485
21,565.0012646169606
22,564.8955611281432
23,564.8116863700786
24,564.7526402162375
25,564.7197595572736
26,564.7128471896663
27,564.7303862608575
28,564.7697932283922
29,564.8276736489332
30,564.9000471598279
31,564.9825202912898
32,565.0704169615481
33,565.158908952604
34,565.2432011920638
35,565.3188123888076
36,565.3819517858213
37,565.429939911954
38,565.4615845266932
39,565.4774260823947
40,565.4798027452804
41,565.472723641305
42,565.4615567162148
43,565.4525374699905
44,565.452113865721
45,565.4661819786074
46,565.4993222348351
47,565.5541741460133
48,565.6310564091667
49,565.727864426314
50,565.8402109633737
51,565.9617566801509
52,566.0846982825825
53,566.2004072737893
54,566.3002123148192
55,566.3762851715435
56,566.4225365405472
57,566.4353809135634
58,566.4142208393226
59,566.3615477549855
60,566.2826417957397
61,566.1849321930288
62,566.0771224574938
63,565.968200135447
64,565.8664622165128
65,565.7786911154402
66,565.7095916469692
67,565.6615436439265
68,565.634659596168
69,565.627084799461
70,565.6354503599528
71,565.6553910799511
72,565.6820617486574
73,565.7106024587563
74,565.73650635297
75,565.7558539053693
76,565.7654162851838
77,565.7626806974638
78,565.7458782420135
79,565.7140801107839
80,565.667376785934
81,565.6070896039435
82,565.5359123397087
83,565.457869376999
84,565.378020864119
85,565.3019272881609
86,565.2349641249639
87,565.1816203431654
88,565.144919906469
89,565.1260799172544
90,565.1244676341877
91,565.1378540699056
92,565.1629032213916
93,565.1957970547605
94,565.2328843105042
95,565.2712548009083
96,565.3091678308413
97,565.3462906574753
98,565.3837276010073
99,565.423844167769
100,565.4699117209304
101,565.5256153585152
102,565.5944818593388
103,565.6792954577369
104,565.781574700751
105,565.9011814038627
106,566.036118912465
107,566.1825489079903
108,566.3350185241853
109,566.4868556914848
110,566.6306746609124
111,566.7589383550308
112,566.8645369541076
113,566.9413481287634
114,566.9847420765161
115,566.9919936081716
116,566.9625691419071
117,566.8982635191494
118,566.803165027146
119,566.6834311552587
120,566.5468711308247
121,566.4023571227045
122,566.2591180515617
123,566.1259948798536
124,566.0107414894671
125,565.9194427737395
126,565.8561049769902
127,565.8224567406785
128,565.8179761061391
129,565.8401292465712
130,565.8847780112582
131,565.9466902691113
132,566.0200775136517
133,566.0990967942089
134,566.1782806391377
135,566.2528773121027
136,566.3190855662207
137,566.3741686021679
138,566.4164490572468
139,566.4452141962917
140,566.4605743032458
141,566.4633067560499
142,566.4546963813086
143,566.4363696173576
144,566.410124314022
145,566.3777704463367
146,566.341005216826
147,566.3013407486395
148,566.2600832633965
149,566.2183386375083
150,566.1770120571264
151,566.1367932714611
152,566.0981555573829
153,566.061409045309
154,566.0268215579246
155,565.9947706755449
156,565.9658537223189
157,565.9408876214401
158,565.9207825641265
159,565.9063412464156
160,565.8980756588247
161,565.8961255810576
162,565.9003186428092
163,565.910356767562
164,565.9260697753184
165,565.9476584170699
166,565.9758609052608
167,566.0120045258265
168,566.057922625275
169,566.1157219687892
170,566.1873934556106
171,566.2742843657461
172,566.3764931765369
173,566.4922992265364
174,566.6177772485484
175,566.7467453416724
176,566.8711422357048
177,566.9818319047546
178,567.0697188388234
179,567.1269738146628
180,567.1481534423544
181,567.1310380719231
182,567.0770729203972
183,566.9913492726917
184,566.8821116139701
185,566.7598412505731
186,566.6360425557859
187,566.5219121130322
188,566.427081045483
189,566.358595752264
190,566.3202602615987
191,566.3124067113071
192,566.3320873037253
193,566.3736089464857
194,566.4292902156648
195,566.490322489056
196,566.547645814092
197,566.5927717774997
198,566.6184868457001
199,566.6193764802707
200,566.5921500121302
201,566.5357973917329
202,566.4516240366953
203,566.3431799751594
204,566.2160652137447
205,566.0775941489286
206,565.9363300730048
207,565.8015173463942
208,565.6824304162739
209,565.5876554867334
210,565.5243485527868
211,565.4975564018318
212,565.5097073559259
213,565.5603599281925
214,565.646252954962
215,565.7616485688135
216,565.8989120308333
217,566.0492398647276
218,566.2034363946303
219,566.3526484844367
220,566.4889919952489
221,566.6060282675287
222,566.6990638994049
223,566.765254765953
224,566.8035079844802
225,566.814200684124
226,566.7987686364002
227,566.7592499178622
228,566.6978840683652
229,566.6168567929745
230,566.5182457930376
231,566.4041718738399
232,566.2771050046125
233,566.1402372759427
234,565.9978224291037
235,565.8553879176407
236,565.7197428833747
237,565.5987301725771
238,565.5006995625321
239,565.4337185522178
240,565.4045972101999
241,565.417874692048
242,565.4749605339185
243,565.5736137802156
244,565.7078807499222
245,565.8685228786737
246,566.0438751706898
247,566.2210020226802
248,566.3869731580338
249,566.5300785861883
250,566.6408414197646
251,566.7127510216418
252,566.7426886522377
253,566.7310389346507
254,566.6814963686054
255,566.6006039372759
256,566.4970816004255
257,566.380998975855
258,566.2628400895588
259,566.1525281802288
260,566.0585157908109
261,565.9870597399331
262,565.9417695088148
263,565.9234595442348
264,565.930285303049
265,565.9581161063265
266,566.0010901065374
267,566.0522938826668
268,566.1044982829047
269,566.1508659925698
270,566.1855473454726
271,566.2041108118362
272,566.2037914637123
273,566.1835594353414
274,566.144019928713
275,566.0871798242853
276,566.0161457380252
277,565.9348188305457
278,565.8476101836169
279,565.7591526546587
280,565.6739751330026
281,565.5961384812927
282,565.5288780960708
283,565.4743207712824
284,565.4333302048632
285,565.4055022939214
286,565.3893032969056
287,565.3823268262759
288,565.3816301694658
289,565.3840945517004
290,565.3867451043001
291,565.3869726374918
292,565.3826272110861
293,565.3719978877028
294,565.3537298744546
295,565.3267371351196
296,565.2901501026065
297,565.2433170101004
298,565.1858662570207
299,565.1178292272392
300,565.0398053427455
301,564.9531238408392
302,564.8599378232723
303,564.7631956970465
304,564.6664747502266
305,564.5737122897385
306,564.4889042756489
307,564.4158387702237
308,564.3578956105921
309,564.3179069971168
310,564.2980658291168
311,564.299882874119
312,564.3241972839712
313,564.3712200703553
314,564.4405582506694
315,564.5311676770579
316,564.6412279189235
317,564.7679901687357
318,564.9076734845931
319,565.055467252534
320,565.2056686715673
321,565.3519671388154
322,565.4878761193694
323,565.6072928884792
324,565.7051383026343
325,565.7780020035212
326,565.8246979485842
327,565.8466250238198
328,565.8478371081187
329,565.8347623387605
330,565.8155661698253
331,565.799213522383
332,565.7943426023887
333,565.8081115004484
334,565.8452044505877
335,565.9071690242315
336,565.9921985261058
337,566.0953948989905
338,566.2094645552611
339,566.3257263616418
340,566.4352649475572
341,566.5300547855759
342,566.6039046345085
343,566.6531139997993
344,566.6767819639347
345,566.6767527085057
346,566.6572168965171
347,566.6240238477942
348,566.583802492404
349,566.5430268808105
350,566.5071764915585
351,566.4801222964287
352,566.4638150054734
353,566.4582773720493
354,566.4618415486137
355,566.4715524406396
356,566.4836725276808
357,566.4942400076645
358,566.4996272675096
359,566.4970305555933
360,566.4848212173322
361,566.4627149228247
362,566.4317545369701
363,566.394135136049
364,566.3529156375497
365,566.3116603067533
366,566.274044060258
367,566.2434511431886
368,566.2226024700572
369,566.2132561910702
370,566.2160276466132
371,566.2303587610998
372,566.254632847981
373,566.2863947763296
374,566.3226203000104
375,566.359989591454
376,566.3951435070002
377,566.4249147267716
378,566.4465262939663
379,566.4577525179175
380,566.4570490679905
381,566.4436698751366
382,566.4177869144628
383,566.3806121753217
384,566.334488165292
385,566.2828729714925
386,566.2301320910808
387,566.1810955345051
388,566.1404300010793
389,566.1119554588656
390,566.0980605875155
391,566.0993395986047
392,566.1145072506379
393,566.1405823067529
394,566.1732878806947
395,566.2076011371356
396,566.2383770243931
397,566.260961829872
398,566.2717115598782
399,566.2683478439607
400,566.2501182017752
401,566.2177662384604
402,566.1733468239934
403,566.1199362760863
404,566.0612929020298
405,566.0015192378911
406,565.944757270486
407,565.8949175851144
408,565.8554225791568
409,565.828943847321
410,565.8171314388579
411,565.8203636652215
412,565.8375823080579
413,565.8662957879696
414,565.9028075085881
415,565.9426624651641
416,565.9812367777027
417,566.0143547206021
418,566.0388142231933
419,566.0527273948093
420,566.0556296253768
421,566.0483682541384
422,566.0328266475309
423,566.011548787426
424,565.9873098138415
425,565.9626655660052
426,565.939530693454
427,565.9188609126793
428,565.9005166073782
429,565.8833500433782
430,565.8655013713905
431,565.8448334865939
432,565.8194018270079
433,565.7878513668348
434,565.7496569105328
435,565.7051612923212
436,565.6554055345056
437,565.6017831287104
438,565.5455932169184
439,565.4876090580066
440,565.4277933009288
441,565.3652575757129
442,565.2984880845854
443,565.2257744282466
444,565.1457225123486
445,565.057726184576
446,564.9623079942752
447,564.8612810371772
448,564.7577046069468
449,564.6556183091496
450,564.559570466723
451,564.4740095325333
452,564.4026537997609
453,564.3479683665107
454,564.3108561872199
455,564.2906227430533
456,564.2852119038095
457,564.291647457404
458,564.3065696291944
459,564.3267457937967
460,564.3494614445983
461,564.3727412490327
462,564.395387109502
463,564.4168487113042
464,564.4369719861616
465,564.4556967003813
466,564.4727807611449
467,564.4876167149977
468,564.4991871550423
469,564.5061784343918
470,564.5072285053834
471,564.5012394700647
472,564.4876667727145
473,564.4667102759396
474,564.4393577856712
475,564.4072589631154
476,564.3724463147779
477,564.3369675455527
478,564.3025269242545
479,564.2702360784562
480,564.2405460591758
481,564.2133782157904
482,564.1884084864939
483,564.1654138289484
484,564.1445737354871
485,564.126632480048
486,564.1128682144317
487,564.1048789050805
488,564.1042583757721
489,564.1122664193998
490,564.1295859474321
491,564.1562243999125
492,564.1915735149345
493,564.2345978143579
494,564.2840844399016
495,564.3388676668046
496,564.3979536767325
497,564.4605162502789
498,564.5257893655723
499,564.5929164365174
500,564.6608207611441
501,564.7281536528451
502,564.7933586462159
503,564.854849656347
504,564.9112470050989
505,564.9615832270676
506,565.0054044726029
507,565.0427422098967
508,565.0739817061049
509,565.099681684923
510,565.120399038667
511,565.1365589781559
512,565.1484009678765
513,565.1560246847205
514,565.1595458562199
515,565.1593412123302
516,565.1563227782857
517,565.1521547193796
518,565.149328136407
519,565.1510418199506
520,565.1608894810174
521,565.1824125045142
522,565.2186202464727
523,565.2715832884526
524,565.3421703936257
525,565.4299586859153
526,565.5333207334643
527,565.6496709980498
528,565.7758235641342
529,565.9083869698529
530,566.0441243174856
531,566.1802349916161
532,566.3145411162451
533,566.4455723600303
534,566.572548620566
535,566.6952761333447
536,566.8139925974542
537,566.9291989899756
538,567.0414893870723
539,567.1513579771628
540,567.2589609930699
541,567.363845464077
542,567.4646938528164
543,567.5591463515179
544,567.6437545992861
545,567.7141067858257
546,567.7651469340184
547,567.7916852674001
548,567.7890645825544
549,567.7539189602196
550,567.6849378570079
551,567.5835248301488
552,567.4542211175833
553,567.3047700635954
554,567.1457416945966
555,566.9897086628064
556,566.8500441852862
557,566.7394830298114
558,566.6686422418478
559,566.6447318944145
560,566.6706759656801
561,566.7447891918281
562,566.8610320629916
563,567.0097459129645
564,567.1787036985437
565,567.3543092998467
566,567.5228137175867
567,567.6714603268517
568,567.7895041684063
569,567.869064572536
570,567.9057690618698
571,567.8991362086493
572,567.8526354862199
573,567.7733730399128
574,567.6713999812756
575,567.5587101001727
576,567.4480508438978
577,567.3516928815911
578,567.2802934555
579,567.241960808559
580,567.2415923049373
581,567.2805263834005
582,567.3565224039188
583,567.4640554797537
584,567.5948768366519
585,567.7387542687242
586,567.8842967402807
587,568.0197935851443
588,568.1340424052942
589,568.2171616993128
590,568.2613622417832
591,568.2616053298918
592,568.2160492406736
593,568.1262039186324
594,567.996770799487
595,567.8352065241259
596,567.6510806427767
597,567.455292635156
598,567.2592001505451
599,567.0737120715164
600,566.9084137842297
601,566.770802933014
602,566.6657101019761
603,566.5949569814502
604,566.5572769341805
605,566.5485058354298
606,566.5620395988059
607,566.5895271233234
608,566.6217195722746
609,566.6493585739363
610,566.663992749563
611,566.658663693664
612,566.6284574870483
613,566.5709336005768
614,566.4864151271393
615,566.3780829853991
616,566.2517972405725
617,566.115588401228
618,565.9788188630766
619,565.8510958914158
620,565.7410955999874
621,565.6554951730319
622,565.5981869959775
623,565.56988091361
624,565.5681279087297
625,565.587739881823
626,565.6215275425643
627,565.6612263899418
628,565.6984500935193
629,565.7255253497567
630,565.7361179408265
631,565.7256286065353
632,565.6913920222831
633,565.6327350249813
634,565.5509392619022
635,565.4491268141894
636,565.3320660631391
637,565.2058817198035
638,565.0776438987127
639,564.9548187208159
640,564.8446029781658
641,564.753228795166
642,564.6853735878453
643,564.6438053062944
644,564.6293259025429
645,564.6409867787208
646,564.6764856924918
647,564.732626733999
648,564.8057250975806
649,564.8918712661475
650,564.9870366683614
651,565.0870738730491
652,565.1876954241596
653,565.2844943283709
654,565.3730248377042
655,565.4489356034035
656,565.5081544496044
657,565.5471426198711
658,565.5632328526676
659,565.5550307928091
660,565.5228114387739
661,565.4688090702103
662,565.3973021348046
663,565.3144370212741
664,565.2277935236795
665,565.1457377172673
666,565.0766247724318
667,565.0279223569436
668,565.0053411019893
669,565.0120786836856
670,565.0482950500767
671,565.1109265673618
672,565.1939077579519
673,565.2888003251243
674,565.3857472194854
675,565.4746038570077
676,565.546069389751
677,565.5926488551198
678,565.6093148972965
679,565.5937989422856
680,565.5465142488097
681,565.4701786895511
682,565.3692480261486
683,565.2492830744544
684,565.1163547567143
685,564.9765483885752
686,564.8355853199
687,564.6985576756355
688,564.5697707542894
689,564.4526903678753
690,564.349985231356
691,564.2636375065154
692,564.195076415028
693,564.1452819748168
694,564.1148188964854
695,564.1037939363288
696,564.1117649698073
697,564.1376448913035
698,564.1796377310733
699,564.2352357279689
700,564.3013019264579
701,564.3742533222978
702,564.4503360131932
703,564.5259495976927
704,564.5979474786018
705,564.66383328196
706,564.7218042229983
707,564.7706483885205
708,564.8095527617878
709,564.8379001324156
710,564.8551306881167
711,564.8607295981341
712,564.8543729548718
713,564.8362188608031
714,564.8072826266642
715,564.7698034166729
716,564.7274986399981
717,564.6856074467867
718,564.6506476695872
719,564.6298585888892
720,564.6303733749185
721,564.6582419791891
722,564.7174795892669
723,564.8093249270062
724,564.931852484751
725,565.080009109064
726,565.246065242356
727,565.4204075114236
728,565.5925581452414
729,565.7522820487682
730,565.8906338951754
731,566.0008121457583
732,566.0787241568127
733,566.1232168748095
734,566.1359815259855
735,566.1211890512697
736,566.0849446100929
737,566.0346558899306
738,565.9783891214851
739,565.9242463460071
740,565.879761438675
741,565.8513093311309
742,565.8435576347388
743,565.859033906654
744,565.8978964929519
745,565.9579661681345
746,566.0350199612553
747,566.1233007792521
748,566.2161659848243
749,566.3067749203157
750,566.3887067504644
751,566.4564293980842
752,566.5056037171282
753,566.5332610029286
754,566.53789905847
755,566.5195095425156
756,566.479516288051
757,566.4206028202198
758,566.3464370073608
759,566.2613335735784
760,566.1699051882995
761,566.0767406844942
762,565.9861317584919
763,565.9018533110893
764,565.8269841232118
765,565.7637470234849
766,565.7133718233513
767,565.6760273427907
768,565.6508880747282
769,565.6363755377174
770,565.6305624357177
771,565.6316754535
772,565.6385948455047
773,565.6512359729902
774,565.6707160605146
775,565.6992540160941
776,565.7398063089344
777,565.7954923038442
778,565.8689009482541
779,565.9613945807101
780,566.072533036401
781,566.1997295877435
782,566.3382166921939
783,566.4813466855251
784,566.6211906474775
785,566.7493416584479
786,566.85779338126
787,566.9397662347919
788,566.9903884983372
789,567.007180544837
790,566.9903085914611
791,566.9425738597785
792,566.8691141183316
793,566.7768356548688
794,566.6736499341712
795,566.5676264932597
796,566.4661719688547
797,566.3753187110366
798,566.2991844001477
799,566.2396546873023
800,566.1963283727486
801,566.1667357719389
802,566.1467969847818
803,566.1314395888207
804,566.1152687119715
805,566.0931987205357
806,566.0610013525204
807,566.0157549145931
808,565.9561696273132
809,565.882738492253
810,565.7976580173823
811,565.7044944185416
812,565.6076296152827
813,565.51158420083
814,565.4203534828331
815,565.3368874112591
816,565.2627994709179
817,565.198331563369
818,565.14255572516
819,565.0937572806496
820,565.0499093370063
821,565.0091268470014
822,564.9699983878035
823,564.931735439732
824,564.8941347795434
825,564.8574004009323
826,564.821905609868
827,564.7879892102611
828,564.7558666870203
829,564.7256917350616
830,564.6977334203217
831,564.6725696766099
832,564.6511756071299
833,564.6348238338237
834,564.6247977713371
835,564.6220033713107
836,564.6266093521951
837,564.6378380772219
838,564.6539832123998
839,564.6726650758068
840,564.6912651458258
841,564.7074248407754
842,564.7194694742842
843,564.7266370791396
844,564.7290508742096
845,564.7274567326638
846,564.7228234259876
847,564.71594196502
848,564.7071467625224
849,564.6962281955967
850,564.682540656451
851,564.665254609237
852,564.6436682264996
853,564.6174934041949
854,564.5870628029394
855,564.5534464292062
856,564.5184846578303
857,564.4847321483586
858,564.4552927163627
859,564.4335385859592
860,564.4227462813915
861,564.4257177601802
862,564.4444632689693
863,564.4799978511255
864,564.5322638808744
865,564.6001579394679
866,564.6816212891597
867,564.7737527402496
868,564.8729243255088
869,564.9749160350916
870,565.0751107747814
871,565.1687843101226
872,565.2514942270484
873,565.3195404496703
874,565.3704497938394
875,565.4034204236016
876,565.4196418634833
877,565.4223994008371
878,565.416902979325
879,565.4098418323845
880,565.408718777638
881,565.4210425254535
882,565.4534689728555
883,565.5109991402029
884,565.596352053689
885,565.7096174135721
886,565.8482488973931
887,566.0073918420951
888,566.1804727910495
889,566.3599428938887
890,566.5380690601124
891,566.7076873409763
892,566.8628574743054
893,566.9993816117602
894,567.1151639783781
895,567.2103827553799
896,567.287432929082
897,567.3506048304992
898,567.4054998486557
899,567.4582408100363
900,567.5145867233339
901,567.5790896496079
902,567.6544264788187
903,567.7410067850657
904,567.8369126908409
905,567.9381750188234
906,568.0393372449979
907,568.1342173828654
908,568.2167583010834
909,568.2818541463716
910,568.3260446079644
911,568.3479815403471
912,568.3486016728975
913,568.3309840553413
914,568.2999211603924
915,568.2612749135623
916,568.2212130241927
917,568.1854244784255
