frame_number,force
0,541.0891449898636
1,541.0703216701645
2,541.0454021748944
3,541.0148804624749
4,540.9792979259394
5,540.939241915928
6,540.8953438796935
7,540.84827688581
8,540.7987522638226
9,540.7475150154723
10,540.6953376472493
11,540.64301213906
12,540.5913398483873
13,540.5411192508426
14,540.4931315795366
15,540.4481246635645
16,540.406795550817
17,540.3697727646298
18,540.3375991868559
19,540.3107165066427
20,540.2894519552005
21,540.2740077852864
22,540.2644537644969
23,540.2607228655629
24,540.2626103181693
25,540.2697761973221
26,540.281751743013
27,540.2979495781105
28,540.3176778173035
29,540.3401577095761
30,540.3645440513568
31,540.3899473373606
32,540.4154565804859
33,540.4401618795233
34,540.4631760097662
35,540.4836544421597
36,540.5008132416568
37,540.5139443414647
38,540.5224278480151
39,540.525741319403
40,540.523466253398
41,540.5152921384156
42,540.5010183037302
43,540.4805536045794
44,540.4539138925859
45,540.4212172768479
46,540.3826772471263
47,540.3385937308592
48,540.2893421451677
49,540.2353605524552
50,540.1771351181409
51,540.1151841529864
52,540.0500411056938
53,539.9822369931164
54,539.9122829015564
55,539.8406532896433
56,539.7677708273382
57,539.6939934515899
58,539.6196042649568
59,539.5448048379732
60,539.4697123012593
61,539.3943602647337
62,539.3187031844187
63,539.2426235248896
64,539.165941039712
65,539.0884236266818
66,539.0097993735982
67,538.929769525437
68,538.8480221489547
69,538.7642462435155
70,538.6781460045963
71,538.5894549671907
72,538.4979498289986
73,538.4034637608236
74,538.3058988683333
75,538.2052372437656
76,538.1015498914242
77,537.9950028015797
78,537.8858595534455
79,537.7744800105208
80,537.6613149206559
81,537.5468965270198
82,537.4318255867613
83,537.3167554289103
84,537.2023738328677
85,537.089383594421
86,536.978482718371
87,536.8703452426671
88,536.76560369492
89,536.6648340454794
90,536.5685437651897
91,536.4771632922518
92,536.3910409142492
93,536.3104407913537
94,536.2355436190646
95,536.1664493205171
96,536.1031811821764
97,536.0456909372258
98,535.9938644097709
99,535.947527463741
100,535.9064521416025
101,535.8703629875488
102,535.8389435986269
103,535.8118434264175
104,535.7886847708673
105,535.769069806768
106,535.7525874053251
107,535.7388194695696
108,535.7273464983899
109,535.7177521603511
110,535.7096268013944
111,535.7025699571846
112,535.6961920122936
113,535.6901151621746
114,535.68397386656
115,535.6774150763277
116,535.670098648299
117,535.6616984534561
118,535.6519046550696
119,535.6404275102611
120,535.627002929704
121,535.6113999219581
122,535.5934298449631
123,535.5729570453993
124,535.5499101030971
125,535.5242926669852
126,535.496192830493
127,535.4657901197359
128,535.4333594093492
129,535.399271386762
130,535.3639894768888
131,535.3280633127675
132,535.292118833933
133,535.2568449833951
134,535.2229769338219
135,535.1912759373146
136,535.1625062498064
137,535.1374100201867
138,535.116681408526
139,535.1009413601101
140,535.0907143563049
141,535.0864081932837
142,535.0882975841936
143,535.0965122302914
144,535.1110298961337
145,535.1316748234768
146,535.1581214995058
147,535.1899034726946
148,535.2264267062948
149,535.2669868863726
150,535.310790097291
151,535.3569762738969
152,535.4046447615725
153,535.4528811218859
154,535.5007840834655
155,535.5474914022446
156,535.5922034546869
157,535.6342036223024
158,535.672874857099
159,535.7077121660993
160,535.7383310548242
161,535.7644721809851
162,535.7860025703418
163,535.8029137417002
164,535.8153170112837
165,535.8234361532399
166,535.8275975335828
167,535.8282178317228
168,535.8257895003912
169,535.8208641620862
170,535.8140342170183
171,535.8059131111871
172,535.7971149919211
173,535.7882347327435
174,535.7798293637082
175,535.7724017576454
176,535.766387139123
177,535.7621427543673
178,535.7599408764654
179,535.7599651464845
180,535.7623100457024
181,535.7669831153283
182,535.7739094570668
183,535.7829380610569
184,535.793849544519
185,535.8063648940278
186,535.8201548260243
187,535.8348494732267
188,535.8500482455122
189,535.8653298103656
190,535.8802621245572
191,535.8944123535094
192,535.9073564411767
193,535.9186881095563
194,535.9280271154249
195,535.9350265633424
196,535.9393789660215
197,535.9408206717221
198,535.9391343291719
199,535.9341491987719
200,535.9257392741581
201,535.9138193653221
202,535.8983395696214
203,535.8792788705067
204,535.8566387957892
205,535.8304380208914
206,535.8007085453512
207,535.7674937404682
208,535.7308483051713
209,535.6908400287797
210,535.6475531906408
211,535.6010933372262
212,535.5515930204584
213,535.4992178929111
214,535.4441724337363
215,535.3867046042352
216,535.3271088854415
217,535.2657273237274
218,535.2029483159812
219,535.1392029259324
220,535.0749586347724
221,535.010710637842
222,534.9469710365598
223,534.8842564336628
224,534.8230744801727
225,534.7639098921974
226,534.7072104348572
227,534.653373415512
228,534.6027333482782
229,534.5555515866322
230,534.5120087460906
231,534.4722005718418
232,534.4361376068978
233,534.4037487083618
234,534.3748881809761
235,534.349346012916
236,534.3268604302145
237,534.307131842924
238,534.2898373116285
239,534.2746448476074
240,534.2612270263952
241,534.2492734610204
242,534.2385016752586
243,534.2286659191983
244,534.2195635542146
245,534.2110388281324
246,534.2029841119113
247,534.1953388783224
248,534.1880868014749
249,534.1812513344845
250,534.1748900179788
251,534.1690876565823
252,534.1639484490778
253,534.1595871900271
254,534.1561197347262
255,534.1536530059892
256,534.1522749493959
257,534.1520450380289
258,534.1529861188421
259,534.1550784384676
260,534.1582565002042
261,534.1624090397878
262,534.1673820107056
263,534.1729841699091
264,534.1789946881044
265,534.1851721168989
266,534.1912639724504
267,534.1970161789999
268,534.2021817247364
269,534.2065280969401
270,534.209843286546
271,534.211940320358
272,534.2126603945358
273,534.2118747631267
274,534.2094855973618
275,534.2054260983998
276,534.1996601888686
277,534.1921820277443
278,534.1830153670321
279,534.1722125538093
280,534.1598529471813
281,534.1460406426252
282,534.1309015220762
283,534.1145797059213
284,534.0972335264001
285,534.0790312156533
286,534.0601465703027
287,534.0407548612197
288,534.0210292011043
289,534.0011375279299
290,533.9812403639806
291,533.961489532005
292,533.9420279508522
293,533.9229904303644
294,533.9045050833834
295,533.8866947239515
296,533.8696776096785
297,533.853567171512
298,533.8384707937691
299,533.8244880015861
300,533.8117084495888
301,533.8002099634367
302,533.7900567519681
303,533.7812979134989
304,533.7739664877397
305,533.7680794292713
306,533.7636388860717
307,533.7606350274847
308,533.7590504222678
309,533.758865700459
310,533.7600660245536
311,533.7626477724466
312,533.7666247725143
313,533.7720334316257
314,533.7789362090416
315,533.7874231252762
316,533.7976112540748
317,533.8096422775857
318,533.8236781516536
319,533.8398948632699
320,533.8584743394115
321,533.8795948239238
322,533.9034203479846
323,533.9300901158607
324,533.9597086378037
325,533.9923372903128
326,534.0279877450466
327,534.06661745997
328,534.1081272186188
329,534.1523605805272
330,534.1991051267592
331,534.2480955219178
332,534.2990185032754
333,534.3515198167523
334,534.4052129020971
335,534.4596889249857
336,534.5145276275368
337,534.5693084168486
338,534.6236211321205
339,534.677076022582
340,534.7293125896356
341,534.7800070526985
342,534.828878299142
343,534.8756923006657
344,534.9202651025881
345,534.9624645678737
346,535.0022110323337
347,535.0394768896114
348,535.0742849532952
349,535.10670536969
350,535.1368509465935
351,535.1648709762751
352,535.1909438579287
353,535.2152689685074
354,535.2380582485359
355,535.2595279005453
356,535.2798905391617
357,535.2993481468508
358,535.31808623827
359,535.3362696216228
360,535.3540400224922
361,535.3715156480129
362,535.3887925808447
363,535.4059477319277
364,535.4230429534422
365,535.4401298244754
366,535.4572545926061
367,535.4744628233635
368,535.4918034911027
369,535.5093324745924
370,535.5271155682354
371,535.5452310810805
372,535.5637718887622
373,535.5828465848496
374,535.6025793183204
375,535.6231080196919
376,535.6445808877996
377,535.6671511534058
378,535.6909702859551
379,535.7161799891358
380,535.7429034795574
381,535.7712366106102
382,535.8012394500954
383,535.8329290346815
384,535.8662741678418
385,535.9011931486059
386,535.9375551115209
387,535.9751852506568
388,536.0138737057424
389,536.0533874263954
390,536.0934839796835
391,536.1339260631588
392,536.1744954365098
393,536.2150050738685
394,536.2553085398995
395,536.295305882394
396,536.3349456986381
397,536.3742234621689
398,536.4131766348077
399,536.4518774193758
400,536.4904241487411
401,536.5289322906152
402,536.5675259640449
403,536.6063307377538
404,536.6454682610563
405,536.6850529494636
406,536.7251906073535
407,536.7659786576648
408,536.8075076085536
409,536.8498634408874
410,536.8931306382394
411,536.937395553424
412,536.9827497442877
413,537.0292928870012
414,537.0771349130677
415,537.1263970625979
416,537.1772115580613
417,537.2297196226159
418,537.2840676629007
419,537.340401625986
420,537.3988597776903
421,537.4595643341894
422,537.522612439818
423,537.588066964098
424,537.655947574002
425,537.7262225389419
426,537.798801722824
427,537.8735312093324
428,537.9501900014575
429,538.0284892258435
430,538.108074235784
431,538.1885299163204
432,538.2693893272458
433,538.3501455686642
434,538.4302664309355
435,538.5092110284485
436,538.5864472879861
437,538.6614689790174
438,538.7338110188534
439,538.8030620465529
440,538.8688736372985
441,538.9309659152158
442,538.9891296491469
443,539.0432251647792
444,539.0931786077589
445,539.138976277845
446,539.1806578894982
447,539.2183096296131
448,539.2520577547197
449,539.282063213586
450,539.3085174440171
451,539.3316391917339
452,539.3516720460419
453,539.3688823726357
454,539.3835573746985
455,539.3960031002667
456,539.4065423244787
457,539.4155123035989
458,539.4232623482936
459,539.4301510245898
460,539.4365426826972
461,539.4428030115137
462,539.4492934077783
463,539.4563641098146
464,539.4643462446145
465,539.4735430928672
466,539.4842209319453
467,539.4965998231742
468,539.5108447579177
469,539.527057673758
470,539.545270917163
471,539.5654426930192
472,539.5874549268824
473,539.6111138710643
474,539.6361537637409
475,539.6622438229693
476,539.6889986954071
477,539.7159921502463
478,539.7427734066481
479,539.7688851318941
480,539.793881927297
481,539.8173480601049
482,539.8389132786115
483,539.8582657104656
484,539.8751610755485
485,539.88942776339
486,539.9009677035846
487,539.9097533167071
488,539.915821110097
489,539.9192626502656
490,539.9202136826959
491,539.9188420945868
492,539.9153353105792
493,539.9098876596447
494,539.9026882411297
495,539.8939097830812
496,539.8836989062903
497,539.8721681100745
498,539.859389707273
499,539.8453918719379
500,539.83015692539
501,539.8136219597341
502,539.7956818640422
503,539.7761947611457
504,539.7549897794113
505,539.7318769910162
506,539.7066592454396
507,539.6791454766892
508,539.6491648426921
509,539.6165807963953
510,539.5813039630582
511,539.5433026052594
512,539.502609591552
513,539.4593251816412
514,539.4136155233098
515,539.3657073485736
516,539.3158797981384
517,539.2644545478882
518,539.211785486079
519,539.1582491112761
520,539.1042365924383
521,539.0501480696187
522,538.996389313705
523,538.9433703916085
524,538.8915056227723
525,538.8412139501587
526,538.7929188839669
527,538.7470473503366
528,538.7040270251639
529,538.6642820016125
530,538.6282268790914
531,538.5962595373239
532,538.568752966759
533,538.5460465719849
534,538.5284373497514
535,538.5161712738093
536,538.5094351211683
537,538.5083488989991
538,538.5129590236735
539,538.5232324539406
540,538.5390520245498
541,538.5602132236526
542,538.5864226369026
543,538.6172982683494
544,538.6523719020612
545,538.6910935691495
546,538.7328381035471
547,538.776913762724
548,538.822572894537
549,538.8690245543875
550,538.9154488273135
551,538.9610124829798
552,539.0048855482588
553,539.0462584022705
554,539.084359034543
555,539.1184701196855
556,539.1479455249702
557,539.1722257852047
558,539.190851987085
559,539.2034774291948
560,539.2098763754606
561,539.2099492345765
562,539.2037236427572
563,539.1913512258186
564,539.1731001784152
565,539.1493440849063
566,539.1205475611031
567,539.0872493616577
568,539.0500436404983
569,539.0095601072145
570,538.9664438884771
571,538.9213359593504
572,538.8748550254153
573,538.8275816720466
574,538.7800454263338
575,538.732715128346
576,538.6859927473358
577,538.6402105553269
578,538.5956313998281
579,538.5524517102997
580,538.5108068604328
581,538.4707785782731
582,538.4324041362544
583,538.3956869528693
584,538.3606080307154
585,538.327137474818
586,538.2952452624371
587,538.2649104728144
588,538.2361283247571
589,538.2089146024547
590,538.1833073184054
591,538.1593656883656
592,538.1371666560889
593,538.1167993431477
594,538.0983579358955
595,538.0819336350844
596,538.0676063435683
597,538.0554367359138
598,538.0454592550384
599,538.0376764364972
600,538.0320547846322
601,538.0285222490609
602,538.0269672266706
603,538.0272389721353
604,538.029149338352
605,538.0324758690685
606,538.0369663661587
607,538.0423450421906
608,538.0483201715556
609,538.0545928349455
610,538.0608660915352
611,538.0668538566965
612,538.0722889196835
613,538.0769298061307
614,538.080566445824
615,538.0830247554264
616,538.0841702704449
617,538.0839109052553
618,538.0821988498619
619,538.0790315679022
620,538.0744518371124
621,538.0685467616371
622,538.0614457101398
623,538.0533171953543
624,538.0443647520249
625,538.0348218741606
626,538.0249461000527
627,538.0150124084564
628,538.0053061583645
629,537.9961158310856
630,537.987725825668
631,537.9804095044166
632,537.9744225480571
633,537.9699964960149
634,537.9673322505079
635,537.9665934057413
636,537.9678994557753
637,537.9713190930636
638,537.9768638682106
639,537.9844824746356
640,537.994055930369
641,538.005394009969
642,538.0182333843154
643,538.0322379368498
644,538.0470016104288
645,538.0620539858737
646,538.0768686751272
647,538.0908745255931
648,538.1034695387801
649,538.1140372638235
650,538.1219652187385
651,538.1266646507742
652,538.1275907243
653,538.124262071084
654,538.1162786096592
655,538.1033366734563
656,538.0852407506325
657,538.0619114319979
658,538.0333893745128
659,537.9998351771771
660,537.9615251046797
661,537.9188427022158
662,537.8722665876093
663,537.8223550247261
664,537.7697281183574
665,537.7150485134424
666,537.6590013856724
667,537.6022744286392
668,537.5455385455059
669,537.4894299820662
670,537.4345346152804
671,537.3813750217317
672,537.3304008113487
673,537.2819825207038
674,537.2364090981265
675,537.1938886895614
676,537.1545521346893
677,537.1184584492589
678,537.0856016723534
679,537.0559186966465
680,537.0292978990594
681,537.0055884529288
682,536.9846101363363
683,536.9661633046875
684,536.9500385557338
685,536.9360255922201
686,536.9239209241093
687,536.9135342613629
688,536.904693591838
689,536.8972489644348
690,536.8910749689364
691,536.8860719092091
692,536.8821657170671
693,536.879306698312
694,536.8774672273532
695,536.8766385638144
696,536.8768270712997
697,536.8780501940385
698,536.8803324834805
699,536.8837017559833
700,536.888185238655
701,536.8938054910925
702,536.900576012315
703,536.9084966356155
704,536.9175489526906
705,536.9276920685434
706,536.9388590111897
707,536.9509541303739
708,536.9638517944855
709,536.97739658929
710,536.9914050407672
711,537.0056687101539
712,537.0199584149273
713,537.0340292860775
714,537.0476263038704
715,537.0604898775855
716,537.0723610668055
717,537.0829862439747
718,537.0921212752398
719,537.0995354910677
720,537.1050157532022
721,537.1083708321429
722,537.1094361620238
723,537.1080788956801
724,537.1042030769466
725,537.0977546870593
726,537.0887262732166
727,537.0771607944823
728,537.0631542646506
729,537.0468568223947
730,537.0284720204561
731,537.0082542918877
732,536.9865046403977
733,536.963564652813
734,536.939809030987
735,536.9156369930264
736,536.8914630166573
737,536.8677074159411
738,536.84478714876
739,536.8231070940225
740,536.8030518783105
741,536.784978221658
742,536.7692077441625
743,536.7560202400324
744,536.7456475456513
745,536.7382682222195
746,536.7340032763584
747,536.7329130672953
748,536.7349954941334
749,536.7401856062486
750,536.7483568863165
751,536.7593244705065
752,536.7728504254106
753,536.7886509895684
754,536.8064055248249
755,536.8257668025124
756,536.8463721054881
757,536.8678544738551
758,536.8898533524284
759,536.9120239775639
760,536.9340450388987
761,536.955624358344
762,536.9765024676825
763,536.9964540781458
764,537.0152875944293
765,537.0328430117228
766,537.0489886593789
767,537.0636172679937
768,537.0766417632259
769,537.0879911106658
770,537.0976065329754
771,537.1054384908047
772,537.1114448525348
773,537.1155905624577
774,537.1178488688445
775,537.1182039319606
776,537.1166545164555
777,537.1132184650874
778,537.1079376405474
779,537.1008829456258
780,537.0921589374383
781,537.0819075243966
782,537.0703102926931
783,537.0575890934996
784,537.044004587055
785,537.0298525348102
786,537.0154578592751
787,537.0011668491989
788,536.9873381870773
789,536.9743335211762
790,536.9625081273055
791,536.9522020267063
792,536.943731881106
793,536.9373839893385
794,536.9334086117802
795,536.9320156312773
796,536.9333713345709
797,536.9375959708935
798,536.9447617319178
799,536.9548908704124
800,536.9679538132596
801,536.9838673135099
802,537.0024929006564
803,537.023636083714
804,537.0470468642205
805,537.0724220537275
806,537.0994096687401
807,537.1276153967679
808,537.156610893678
809,537.1859435143424
810,537.2151469927926
811,537.2437525879348
812,537.271300282434
813,537.2973497054011
814,537.3214905167804
815,537.3433520887421
816,537.3626124786106
817,537.379006836721
818,537.3923353980222
819,537.4024710151824
820,537.4093659073833
821,537.4130570927313
822,537.4136699166327
823,537.4114191228201
824,537.4066069713318
825,537.399618021723
826,537.3909104291101
827,537.381003903601
828,537.3704647469153
829,537.3598885463849
830,537.3498812050102
831,537.341039056349
832,537.3339288530468
833,537.3290684011561
834,537.3269085257234
835,537.3278169150211
836,537.332064243779
837,537.3398128645231
838,537.3511083034248
839,537.36587379833
840,537.3839081571227
841,537.4048872591645
842,537.4283694938681
843,537.453805274503
844,537.480550542802
845,537.5078840023598
846,537.5350276910887
847,537.5611703298864
848,537.5854926449704
849,537.6071936615452
850,537.6255168876988
851,537.6397753054233
852,537.6493740870283
853,537.6538299788131
854,537.6527864330717
855,537.6460238764558
856,537.6334649172675
857,537.6151746961152
858,537.5913568946648
859,537.5623461192505
860,537.5285974603189
861,537.4906739842155
862,537.4492327767715
863,537.4050099923411
864,537.3588051912992
865,537.3114650839904
866,537.2638666981555
867,537.2169000105879
868,537.1714502229813
869,537.1283800438889
870,537.0885124662618
871,537.0526145358883
872,537.0213825106663
873,536.9954287026593
874,536.9752702288617
875,536.9613198335011
876,536.9538788399913
877,536.9531322084537
878,536.9591457032819
879,536.9718652655703
880,536.9911187116955
881,537.0166198035719
882,537.0479746065412
883,537.0846899310629
884,537.1261836021965
885,537.1717963214844
886,537.2208049146773
887,537.2724367596267
888,537.325885198268
889,537.3803257652771
890,537.4349330484788
891,537.4888978816078
892,537.541444399766
893,537.591846363231
894,537.6394421536135
895,537.6836479658431
896,537.7239688915804
897,537.7600077365794
898,537.7914714961287
899,537.8181754456557
900,537.8400448429686
901,537.8571143220532
902,537.8695251720538
903,537.8775207874701
904,537.8814405904744
905,537.8817126559597
906,537.8788451692243
907,537.8734167572544
908,537.866065665614
909,537.8574777519859
910,537.8483733947731
911,537.8394936307407
912,537.8315860160609
913,537.8253907587005
914,537.8216275756101
915,537.8209835145053
916,537.8241017438023
917,537.831571201833
