frame_number,force
0,541.0891449901533
1,541.0703216704743
2,541.0454021752225
3,541.0148804628192
4,540.9792979262978
5,540.9392419162987
6,540.895343880074
7,540.8482768861983
8,540.7987522642167
9,540.7475150158706
10,540.6953376476506
11,540.6430121394636
12,540.5913398487924
13,540.5411192512487
14,540.4931315799436
15,540.4481246639721
16,540.4067955512247
17,540.3697727650369
18,540.3375991872615
19,540.3107165070459
20,540.2894519555999
21,540.2740077856805
22,540.2644537648844
23,540.2607228659424
24,540.2626103185397
25,540.2697761976825
26,540.281751743363
27,540.2979495784499
28,540.3176778176321
29,540.3401577098936
30,540.3645440516624
31,540.3899473376534
32,540.4154565807648
33,540.4401618797875
34,540.4631760100148
35,540.4836544423915
36,540.5008132418709
37,540.5139443416605
38,540.5224278481927
39,540.5257413195636
40,540.5234662535439
41,540.5152921385496
42,540.5010183038557
43,540.4805536046996
44,540.4539138927037
45,540.4212172769656
46,540.3826772472461
47,540.338593730983
48,540.289342145297
49,540.2353605525914
50,540.1771351182847
51,540.1151841531379
52,540.0500411058521
53,539.9822369932801
54,539.912282901724
55,539.8406532898134
56,539.7677708275096
57,539.6939934517616
58,539.6196042651279
59,539.5448048381432
60,539.4697123014278
61,539.3943602648999
62,539.318703184582
63,539.2426235250495
64,539.1659410398682
65,539.0884236268342
66,539.0097993737471
67,538.9297695255829
68,538.848022149098
69,538.7642462436569
70,538.678146004736
71,538.5894549673287
72,538.4979498291348
73,538.4034637609578
74,538.3058988684655
75,538.2052372438961
76,538.1015498915538
77,537.9950028017096
78,537.8858595535768
79,537.7744800106547
80,537.6613149207928
81,537.5468965271601
82,537.4318255869049
83,537.316755429057
84,537.2023738330178
85,537.0893835945745
86,536.9784827185284
87,536.8703452428285
88,536.7656036950854
89,536.664834045649
90,536.5685437653638
91,536.4771632924313
92,536.3910409144353
93,536.3104407915473
94,536.2355436192667
95,536.1664493207282
96,536.1031811823971
97,536.045690937456
98,535.9938644100102
99,535.9475274639886
100,535.9064521418572
101,535.870362987809
102,535.8389435988909
103,535.8118434266834
104,535.7886847711337
105,535.7690698070336
106,535.7525874055887
107,535.73881946983
108,535.7273464986466
109,535.7177521606043
110,535.7096268016443
111,535.7025699574316
112,535.6961920125387
113,535.690115162419
114,535.6839738668057
115,535.6774150765768
116,535.6700986485536
117,535.6616984537183
118,535.6519046553412
119,535.6404275105434
120,535.627002929998
121,535.611399922265
122,535.5934298452839
123,535.5729570457348
124,535.5499101034475
125,535.5242926673501
126,535.4961928308717
127,535.4657901201269
128,535.4333594097513
129,535.3992713871736
130,535.363989477308
131,535.328063313192
132,535.2921188343603
133,535.2568449838222
134,535.2229769342462
135,535.1912759377334
136,535.1625062502177
137,535.1374100205888
138,535.1166814089175
139,535.1009413604902
140,535.0907143566733
141,535.0864081936406
142,535.0882975845399
143,535.0965122306282
144,535.1110298964624
145,535.1316748237994
146,535.158121499824
147,535.18990347301
148,535.2264267066082
149,535.2669868866847
150,535.3107900976015
151,535.3569762742051
152,535.4046447618776
153,535.4528811221867
154,535.5007840837603
155,535.5474914025315
156,535.5922034549636
157,535.6342036225668
158,535.6728748573491
159,535.7077121663331
160,535.7383310550397
161,535.7644721811806
162,535.7860025705162
163,535.802913741853
164,535.8153170114153
165,535.8234361533516
166,535.8275975336767
167,535.8282178318012
168,535.8257895004567
169,535.8208641621416
170,535.8140342170668
171,535.8059131112327
172,535.7971149919682
173,535.7882347327967
174,535.7798293637724
175,535.772401757725
176,535.7663871392223
177,535.7621427544894
178,535.7599408766125
179,535.759965146658
180,535.7623100459026
181,535.7669831155544
182,535.7739094573163
183,535.7829380613268
184,535.7938495448052
185,535.8063648943261
186,535.8201548263308
187,535.8348494735372
188,535.8500482458229
189,535.8653298106728
190,535.8802621248578
191,535.8944123538005
192,535.9073564414559
193,535.9186881098221
194,535.9280271156762
195,535.9350265635782
196,535.9393789662413
197,535.9408206719256
198,535.9391343293595
199,535.9341491989446
200,535.9257392743173
201,535.9138193654691
202,535.8983395697577
203,535.8792788706339
204,535.8566387959089
205,535.8304380210051
206,535.8007085454602
207,535.7674937405741
208,535.7308483052751
209,535.6908400288821
210,535.6475531907425
211,535.6010933373283
212,535.551593020562
213,535.4992178930173
214,535.4441724338466
215,535.3867046043513
216,535.327108885565
217,535.2657273238605
218,535.2029483161257
219,535.1392029260903
220,535.0749586349459
221,535.0107106380331
222,534.9469710367702
223,534.8842564338934
224,534.823074480424
225,534.7639098924692
226,534.707210435149
227,534.6533734158229
228,534.6027333486072
229,534.5555515869781
230,534.5120087464524
231,534.4722005722181
232,534.436137607287
233,534.4037487087622
234,534.3748881813858
235,534.3493460133333
236,534.3268604306377
237,534.3071318433515
238,534.2898373120586
239,534.274644848038
240,534.2612270268239
241,534.249273461445
242,534.2385016756765
243,534.2286659196068
244,534.219563554611
245,534.2110388285138
246,534.2029841122747
247,534.1953388786658
248,534.1880868017967
249,534.1812513347838
250,534.1748900182556
251,534.169087656837
252,534.163948449311
253,534.15958719024
254,534.15611973492
255,534.1536530061653
256,534.1522749495559
257,534.1520450381748
258,534.1529861189761
259,534.1550784385913
260,534.1582565003192
261,534.1624090398959
262,534.1673820108085
263,534.1729841700084
264,534.1789946882014
265,534.185172116995
266,534.1912639725464
267,534.1970161790963
268,534.2021817248335
269,534.2065280970382
270,534.2098432866455
271,534.2119403204599
272,534.2126603946405
273,534.2118747632351
274,534.2094855974752
275,534.2054260985201
276,534.1996601889973
277,534.1921820278824
278,534.1830153671802
279,534.1722125539677
280,534.1598529473497
281,534.146040642803
282,534.1309015222625
283,534.114579706115
284,534.0972335266002
285,534.0790312158591
286,534.060146570514
287,534.0407548614371
288,534.0210292013287
289,534.0011375281626
290,533.9812403642231
291,533.9614895322586
292,533.9420279511185
293,533.9229904306447
294,533.9045050836792
295,533.8866947242641
296,533.8696776100091
297,533.8535671718614
298,533.838470794138
299,533.824488001975
300,533.8117084499984
301,533.800209963867
302,533.7900567524183
303,533.7812979139673
304,533.7739664882238
305,533.7680794297678
306,533.7636388865767
307,533.7606350279942
308,533.759050422778
309,533.7588657009665
310,533.7600660250554
311,533.7626477729398
312,533.7666247729957
313,533.7720334320917
314,533.7789362094885
315,533.7874231257005
316,533.7976112544732
317,533.8096422779553
318,533.8236781519919
319,533.8398948635755
320,533.8584743396835
321,533.8795948241623
322,533.90342034819
323,533.9300901160341
324,533.9597086379466
325,533.9923372904274
326,534.0279877451352
327,534.066617460035
328,534.1081272186631
329,534.1523605805532
330,534.1991051267694
331,534.2480955219144
332,534.2990185032608
333,534.3515198167286
334,534.4052129020666
335,534.4596889249507
336,534.5145276274993
337,534.5693084168104
338,534.6236211320834
339,534.6770760225478
340,534.7293125896066
341,534.7800070526768
342,534.8288782991293
343,534.8756923006634
344,534.9202651025976
345,534.9624645678961
346,535.0022110323703
347,535.0394768896631
348,535.0742849533623
349,535.106705369772
350,535.13685094669
351,535.1648709763848
352,535.1909438580506
353,535.2152689686407
354,535.23805824868
355,535.2595279007
356,535.2798905393271
357,535.2993481470265
358,535.3180862384553
359,535.3362696218164
360,535.3540400226927
361,535.3715156482183
362,535.3887925810524
363,535.4059477321349
364,535.4230429536461
365,535.4401298246734
366,535.4572545927954
367,535.474462823542
368,535.4918034912688
369,535.5093324747452
370,535.5271155683747
371,535.5452310812063
372,535.5637718888751
373,535.5828465849503
374,535.6025793184099
375,535.623108019771
376,535.6445808878693
377,535.6671511534673
378,535.69097028601
379,535.7161799891857
380,535.7429034796043
381,535.7712366106558
382,535.8012394501416
383,535.8329290347299
384,535.8662741678935
385,535.9011931486613
386,535.9375551115801
387,535.97518525072
388,536.0138737058095
389,536.0533874264662
390,536.0934839797577
391,536.1339260632362
392,536.1744954365903
393,536.2150050739524
394,536.2553085399875
395,536.2953058824876
396,536.3349456987393
397,536.3742234622802
398,536.4131766349318
399,536.4518774195158
400,536.4904241488997
401,536.5289322907952
402,536.5675259642491
403,536.6063307379846
404,536.6454682613157
405,536.6850529497527
406,536.7251906076727
407,536.765978658014
408,536.8075076089317
409,536.8498634412929
410,536.8931306386701
411,536.9373955538772
412,536.9827497447603
413,537.02929288749
414,537.0771349135692
415,537.1263970631093
416,537.1772115585795
417,537.2297196231382
418,537.2840676634246
419,537.3404016265091
420,537.39885977821
421,537.459564334703
422,537.5226124403227
423,537.5880669645911
424,537.655947574481
425,537.7262225394047
426,537.7988017232686
427,537.8735312097574
428,537.950190001862
429,538.0284892262271
430,538.1080742361462
431,538.1885299166607
432,538.2693893275634
433,538.3501455689579
434,538.4302664312044
435,538.5092110286917
436,538.586447288203
437,538.661468979208
438,538.7338110190186
439,538.8030620466945
440,538.8688736374196
441,538.9309659153203
442,538.9891296492397
443,539.0432251648656
444,539.0931786078444
445,539.1389762779354
446,539.1806578895989
447,539.2183096297292
448,539.2520577548554
449,539.282063213745
450,539.3085174442028
451,539.3316391919492
452,539.3516720462884
453,539.3688823729136
454,539.3835573750071
455,539.3960031006039
456,539.4065423248416
457,539.4155123039836
458,539.4232623486963
459,539.430151025007
460,539.4365426831259
461,539.4428030119511
462,539.449293408222
463,539.456364110262
464,539.4643462450633
465,539.4735430933152
466,539.4842209323906
467,539.4965998236153
468,539.5108447583534
469,539.5270576741875
470,539.5452709175856
471,539.5654426934348
472,539.5874549272905
473,539.6111138714647
474,539.6361537641333
475,539.6622438233534
476,539.6889986957824
477,539.7159921506125
478,539.742773407005
479,539.7688851322417
480,539.7938819276358
481,539.8173480604348
482,539.8389132789324
483,539.8582657107771
484,539.8751610758501
485,539.8894277636815
486,539.9009677038655
487,539.9097533169771
488,539.9158211103561
489,539.919262650514
490,539.920213682934
491,539.9188420948147
492,539.9153353107972
493,539.909887659853
494,539.9026882413283
495,539.8939097832701
496,539.8836989064694
497,539.8721681102431
498,539.8593897074304
499,539.8453918720835
500,539.8301569255232
501,539.8136219598539
502,539.795681864148
503,539.7761947612371
504,539.7549897794883
505,539.7318769910792
506,539.7066592454894
507,539.6791454767273
508,539.6491648427207
509,539.616580796417
510,539.5813039630762
511,539.5433026052767
512,539.5026095915713
513,539.4593251816651
514,539.4136155233404
515,539.3657073486129
516,539.3158797981886
517,539.2644545479511
518,539.2117854861565
519,539.1582491113705
520,539.1042365925522
521,539.050148069754
522,538.9963893138633
523,538.9433703917914
524,538.8915056229812
525,538.8412139503941
526,538.7929188842288
527,538.747047350624
528,538.7040270254749
529,538.6642820019446
530,538.6282268794413
531,538.5962595376881
532,538.5687529671333
533,538.5460465723652
534,538.5284373501339
535,538.5161712741908
536,538.5094351215462
537,538.5083488993719
538,538.5129590240408
539,538.523232454303
540,538.5390520249078
541,538.5602132240073
542,538.5864226372554
543,538.6172982687019
544,538.6523719024152
545,538.6910935695064
546,538.7328381039077
547,538.7769137630888
548,538.822572894906
549,538.8690245547604
550,538.9154488276894
551,538.9610124833574
552,539.0048855486365
553,539.0462584026461
554,539.0843590349147
555,539.1184701200513
556,539.147945525328
557,539.1722257855528
558,539.1908519874218
559,539.2034774295192
560,539.2098763757722
561,539.2099492348751
562,539.203723643043
563,539.191351226092
564,539.1731001786765
565,539.1493440851555
566,539.1205475613403
567,539.0872493618829
568,539.0500436407111
569,539.0095601074147
570,538.9664438886646
571,538.9213359595251
572,538.874855025578
573,538.8275816721986
574,538.7800454264772
575,538.732715128483
576,538.6859927474692
577,538.6402105554594
578,538.5956313999628
579,538.5524517104402
580,538.5108068605825
581,538.4707785784353
582,538.4324041364321
583,538.3956869530649
584,538.3606080309313
585,538.3271374750559
586,538.2952452626984
587,538.2649104730995
588,538.2361283250657
589,538.208914602786
590,538.1833073187585
591,538.1593656887396
592,538.1371666564825
593,538.1167993435587
594,538.0983579363211
595,538.0819336355214
596,538.0676063440127
597,538.0554367363611
598,538.0454592554844
599,538.037676436938
600,538.0320547850644
601,538.0285222494821
602,538.0269672270794
603,538.0272389725304
604,538.0291493387332
605,538.0324758694359
606,538.0369663665127
607,538.0423450425322
608,538.0483201718861
609,538.0545928352658
610,538.0608660918458
611,538.066853856998
612,538.0722889199768
613,538.0769298064171
614,538.080566446105
615,538.0830247557033
616,538.0841702707185
617,538.0839109055263
618,538.0821988501312
619,538.0790315681705
620,538.0744518373804
621,538.0685467619054
622,538.0614457104091
623,538.0533171956255
624,538.0443647522982
625,538.0348218744359
626,538.0249461003298
627,538.0150124087345
628,538.0053061586423
629,537.9961158313614
630,537.9877258259404
631,537.980409504684
632,537.9744225483181
633,537.9699964962682
634,537.9673322507522
635,537.9665934059756
636,537.9678994559986
637,537.9713190932746
638,537.9768638684078
639,537.9844824748179
640,537.9940559305355
641,538.0053940101192
642,538.0182333844492
643,538.0322379369671
644,538.0470016105293
645,538.062053985957
646,538.076868675193
647,538.0908745256415
648,538.1034695388117
649,538.1140372638395
650,538.12196521874
651,538.1266646507628
652,538.1275907242778
653,538.1242620710527
654,538.1162786096211
655,538.1033366734132
656,538.0852407505862
657,538.0619114319502
658,538.0333893744651
659,537.9998351771309
660,537.961525104636
661,537.9188427021755
662,537.8722665875731
663,537.8223550246944
664,537.7697281183302
665,537.7150485134199
666,537.6590013856546
667,537.6022744286264
668,537.5455385454982
669,537.489429982064
670,537.4345346152844
671,537.3813750217423
672,537.3304008113665
673,537.2819825207299
674,537.2364090981623
675,537.193888689608
676,537.1545521347474
677,537.1184584493287
678,537.0856016724351
679,537.0559186967403
680,537.0292978991654
681,537.005588453047
682,536.9846101364669
683,536.9661633048306
684,536.9500385558898
685,536.9360255923896
686,536.9239209242936
687,536.9135342615635
688,536.9046935920568
689,536.8972489646733
690,536.8910749691963
691,536.886071909492
692,536.8821657173743
693,536.8793066986444
694,536.877467227711
695,536.8766385641967
696,536.8768270717048
697,536.8780501944636
698,536.8803324839218
699,536.8837017564364
700,536.8881852391149
701,536.8938054915545
702,536.9005760127742
703,536.9084966360674
704,536.9175489531311
705,536.9276920689687
706,536.9388590115963
707,536.9509541307588
708,536.9638517948467
709,536.9773965896268
710,536.9914050410794
711,537.0056687104424
712,537.0199584151932
713,537.0340292863223
714,537.0476263040954
715,537.0604898777922
716,537.0723610669955
717,537.0829862441495
718,537.0921212754005
719,537.0995354912152
720,537.1050157533381
721,537.1083708322694
722,537.109436162144
723,537.1080788957972
724,537.1042030770643
725,537.0977546871812
726,537.0887262733464
727,537.0771607946231
728,537.063154264805
729,537.0468568225648
730,537.0284720206429
731,537.0082542920917
732,536.9865046406189
733,536.9635646530513
734,536.9398090312418
735,536.9156369932966
736,536.8914630169413
737,536.8677074162366
738,536.8447871490642
739,536.8231070943323
740,536.8030518786228
741,536.7849782219702
742,536.7692077444724
743,536.7560202403382
744,536.7456475459516
745,536.738268222513
746,536.7340032766443
747,536.7329130675724
748,536.7349954944007
749,536.7401856065051
750,536.7483568865613
751,536.7593244707388
752,536.7728504256298
753,536.7886509897742
754,536.8064055250175
755,536.8257668026922
756,536.8463721056556
757,536.8678544740109
758,536.8898533525727
759,536.9120239776972
760,536.9340450390214
761,536.955624358456
762,536.9765024677838
763,536.9964540782362
764,537.0152875945084
765,537.032843011791
766,537.048988659437
767,537.0636172680431
768,537.0766417632688
769,537.0879911107045
770,537.0976065330124
771,537.1054384908426
772,537.1114448525769
773,537.1155905625075
774,537.1178488689052
775,537.1182039320352
776,537.1166545165461
777,537.1132184651949
778,537.1079376406722
779,537.1008829457671
780,537.0921589375951
781,537.0819075245672
782,537.0703102928757
783,537.0575890936915
784,537.0440045872537
785,537.029852535013
786,537.01545785948
787,537.0011668494037
788,536.9873381872804
789,536.9743335213761
790,536.962508127501
791,536.9522020268964
792,536.9437318812899
793,536.9373839895156
794,536.9334086119501
795,536.9320156314393
796,536.9333713347243
797,536.9375959710374
798,536.9447617320515
799,536.9548908705359
800,536.9679538133731
801,536.9838673136147
802,537.0024929007545
803,537.023636083808
804,537.0470468643133
805,537.072422053822
806,537.0994096688394
807,537.1276153968739
808,537.1566108937928
809,537.1859435144677
810,537.2151469929298
811,537.2437525880852
812,537.2713002825985
813,537.2973497055802
814,537.3214905169744
815,537.343352088951
816,537.362612478834
817,537.3790068369588
818,537.392335398274
819,537.4024710154479
820,537.4093659076618
821,537.4130570930223
822,537.4136699169354
823,537.4114191231334
824,537.4066069716545
825,537.3996180220537
826,537.3909104294479
827,537.3810039039448
828,537.370464747264
829,537.3598885467374
830,537.3498812053654
831,537.3410390567063
832,537.3339288534057
833,537.3290684015158
834,537.3269085260827
835,537.3278169153781
836,537.3320642441317
837,537.3398128648695
838,537.3511083037625
839,537.3658737986565
840,537.3839081574356
841,537.4048872594617
842,537.4283694941482
843,537.4538052747655
844,537.4805505430471
845,537.5078840025881
846,537.5350276913014
847,537.5611703300854
848,537.5854926451577
849,537.6071936617234
850,537.6255168878703
851,537.6397753055904
852,537.6493740871936
853,537.6538299789789
854,537.6527864332403
855,537.6460238766291
856,537.6334649174472
857,537.615174696303
858,537.5913568948617
859,537.5623461194572
860,537.5285974605357
861,537.4906739844423
862,537.4492327770079
863,537.4050099925864
864,537.358805191553
865,537.3114650842517
866,537.2638666984237
867,537.2169000108623
868,537.1714502232617
869,537.1283800441746
870,537.0885124665521
871,537.0526145361822
872,537.0213825109629
873,536.9954287029575
874,536.9752702291604
875,536.961319833799
876,536.9538788402872
877,536.9531322087458
878,536.9591457035687
879,536.9718652658498
880,536.9911187119661
881,537.0166198038319
882,537.0479746067894
883,537.0846899312983
884,537.1261836024179
885,537.1717963216906
886,537.2208049148672
887,537.2724367597995
888,537.325885198423
889,537.3803257654138
890,537.434933048597
891,537.4888978817079
892,537.5414443998484
893,537.5918463632968
894,537.6394421536638
895,537.6836479658792
896,537.7239688916038
897,537.7600077365917
898,537.7914714961315
899,537.8181754456506
900,537.8400448429568
901,537.8571143220361
902,537.869525172033
903,537.8775207874478
904,537.8814405904532
905,537.8817126559426
906,537.8788451692144
907,537.8734167572551
908,537.8660656656288
909,537.8574777520182
910,537.848373394826
911,537.8394936308167
912,537.8315860161622
913,537.8253907588286
914,537.8216275757662
915,537.8209835146898
916,537.8241017440149
917,537.8315712020725
918,537.8439170778105
