frame_number,force
0,540.7715971727428
1,540.7870192745942
2,540.8005495230968
3,540.8122407148933
4,540.8221483764233
5,540.83033021898
6,540.8368455789599
7,540.8417548473942
8,540.8451188928973
9,540.8469984820765
10,540.8474537014889
11,540.8465433854284
12,540.8443245540291
13,540.8408518663612
14,540.8361770935045
15,540.8303486170689
16,540.8234109591965
17,540.8154043505343
18,540.8063643427128
19,540.7963214712827
20,540.7853009739522
21,540.7733225676935
22,540.7604002872099
23,540.7465423864571
24,540.7317513043138
25,540.7160236949723
26,540.6993505231321
27,540.6817172234598
28,540.6631039227408
29,540.6434857216152
30,540.6228330311209
31,540.6011119580381
32,540.578284732544
33,540.5543101717836
34,540.5291441732629
35,540.5027402321225
36,540.4750499763009
37,540.4460237136047
38,540.4156109851014
39,540.383761120077
40,540.3504237887058
41,540.3155495489941
42,540.279090384332
43,540.2410002275436
44,540.201235467261
45,540.15975543283
46,540.1165228543967
47,540.0715042950861
48,540.0246705524326
49,539.9759970266508
50,539.925464053899
51,539.8730572032262
52,539.8187675364433
53,539.7625918308016
54,539.7045327650803
55,539.6445990702404
56,539.5828056460741
57,539.5191736453661
58,539.4537305271489
59,539.3865100806657
60,539.3175524213408
61,539.246903959216
62,539.1746173392632
63,539.1007513523497
64,539.0253708157262
65,538.9485464224806
66,538.8703545600277
67,538.7908770982149
68,538.7102011479104
69,538.6284187910212
70,538.5456267829135
71,538.4619262284305
72,538.3774222330669
73,538.2922235310363
74,538.2064420916846
75,538.1201927051779
76,538.0335925480598
77,537.9467607293709
78,537.8598178184469
79,537.7728853561454
80,537.6860853520668
81,537.5995397712614
82,537.5133700148006
83,537.4276963992929
84,537.3426376408397
85,537.2583103491179
86,537.174828537404
87,537.0923031544206
88,537.0108416437218
89,536.930547535737
90,536.8515200766143
91,536.7738538968565
92,536.6976387215815
93,536.6229591231137
94,536.5498943156231
95,536.4785179908771
96,536.4088981939027
97,536.3410972372801
98,536.2751716527642
99,536.211172178975
100,536.149143783978
101,536.089125721579
102,536.0311516199841
103,535.9752496011309
104,535.9214424284784
105,535.8697476805083
106,535.8201779467411
107,535.7727410427582
108,535.727440240568
109,535.6842745107325
110,535.6432387730266
111,535.6043241527967
112,535.5675182404004
113,535.5328053511843
114,535.5001667836286
115,535.4695810736741
116,535.4410242437798
117,535.4144700457084
118,535.3898901961509
119,535.3672546041657
120,535.3465315893101
121,535.3276880892896
122,535.3106898556379
123,535.2955016352207
124,535.2820873345903
125,535.2704101638412
126,535.2604327568174
127,535.2521172651974
128,535.2454254250005
129,535.2403185952442
130,535.2367577696102
131,535.2347035627267
132,535.2341161728708
133,535.2349553227408
134,535.2371801799684
135,535.2407492596296
136,535.2456203121396
137,535.251750201245
138,535.2590947779275
139,535.2676087564591
140,535.2772455984469
141,535.2879574097767
142,535.2996948544496
143,535.3124070886779
144,535.3260417180752
145,535.340544779959
146,535.3558607516044
147,535.3719325840924
148,535.3887017605589
149,535.4061083772017
150,535.4240912451777
151,535.4425880113092
152,535.4615352951093
153,535.480868838909
154,535.5005236670343
155,535.5204342494839
156,535.5405346656732
157,535.5607587644746
158,535.5810403177671
159,535.6013131657762
160,535.6215113534321
161,535.6415692576855
162,535.6614217061159
163,535.6810040872673
164,535.7002524530465
165,535.7191036133707
166,535.7374952232116
167,535.7553658623033
168,535.7726551080189
169,535.7893036021693
170,535.8052531128088
171,535.8204465927234
172,535.8348282371657
173,535.8483435441921
174,535.8609393811277
175,535.8725640601139
176,535.8831674248128
177,535.8927009495943
178,535.9011178519564
179,535.9083732183036
180,535.914424142469
181,535.9192298756915
182,535.9227519863582
183,535.9249545276992
184,535.925804211564
185,535.9252705862718
186,535.9233262164298
187,535.9199468627315
188,535.9151116600265
189,535.9088032921053
190,535.901008161494
191,535.8917165521735
192,535.8809227828506
193,535.8686253484085
194,535.8548270472857
195,535.8395350924495
196,535.8227612033427
197,535.8045216760197
198,535.7848374289273
199,535.7637340222941
200,535.7412416496916
201,535.7173951010304
202,535.6922336972494
203,535.6658011980724
204,535.6381456849846
205,535.6093194216602
206,535.5793786935355
207,535.5483836274776
208,535.5163979919618
209,535.4834889780095
210,535.4497269611757
211,535.4151852448517
212,535.3799397849242
213,535.3440688954959
214,535.3076529352354
215,535.2707739742013
216,535.2335154416307
217,535.1959617558739
218,535.1581979381176
219,535.1203092118479
220,535.0823805904382
221,535.0444964559453
222,535.0067401329512
223,534.9691934617822
224,534.9319363755462
225,534.895046485306
226,534.8585986775735
227,534.8226647283527
228,534.7873129381946
229,534.7526077929817
230,534.7186096550715
231,534.6853744887405
232,534.6529536227791
233,534.6213935519535
234,534.5907357779943
235,534.5610166896926
236,534.5322674806429
237,534.504514102508
238,534.4777772516047
239,534.452072386926
240,534.4274097779792
241,534.4037945807999
242,534.3812269402747
243,534.3597021167113
244,534.3392106346629
245,534.319738452417
246,534.3012671511426
247,534.2837741431644
248,534.2672328989925
249,534.2516131925481
250,534.2368813636033
251,534.223000596011
252,534.2099312100594
253,534.1976309672989
254,534.1860553863437
255,534.1751580683435
256,534.1648910311532
257,534.1552050517611
258,534.1460500170759
259,534.1373752832795
260,534.1291300433888
261,534.1212637015853
262,534.1137262516966
263,534.1064686563436
264,534.0994432228078
265,534.0926039714417
266,534.0859069922927
267,534.0793107856384
268,534.0727765825403
269,534.0662686422697
270,534.0597545242359
271,534.0532053326805
272,534.0465959328881
273,534.0399051380592
274,534.0331158663399
275,534.0262152678793
276,534.0191948220986
277,534.0120504053052
278,534.0047823283077
279,533.9973953432491
280,533.9898986189755
281,533.9823056848212
282,533.9746343432646
283,533.966906552276
284,533.9591482784946
285,533.9513893227745
286,533.943663120018
287,533.9360065153961
288,533.928459519048
289,533.9210650413264
290,533.9138686107938
291,533.906918077355
292,533.9002633028393
293,533.8939558408304
294,533.8880486067247
295,533.8825955383159
296,533.8776512472168
297,533.8732706623159
298,533.8695086677251
299,533.8664197385622
300,533.8640575780073
301,533.8624747586301
302,533.8617223705514
303,533.8618496789745
304,533.8629037939425
305,533.8649293554803
306,533.867968237222
307,533.8720592711203
308,533.8772379950124
309,533.8835364239136
310,533.8909828451747
311,533.8996016371486
312,533.9094131106958
313,533.9204333727189
314,533.9326742111048
315,533.9461430010005
316,533.9608426329605
317,533.9767714637305
318,533.9939232901587
319,534.0122873463596
320,534.0318483243001
321,534.0525864185578
322,534.0744773967294
323,534.0974926973606
324,534.1215995571024
325,534.1467611681604
326,534.1729368661998
327,534.2000823479484
328,534.2281499169432
329,534.25708875533
330,534.2868452195261
331,534.3173631578186
332,534.3485842481049
333,534.3804483535937
334,534.4128938935438
335,534.4458582254316
336,534.4792780345102
337,534.5130897265357
338,534.5472298194901
339,534.5816353304202
340,534.6162441539076
341,534.6509954290657
342,534.6858298923435
343,534.7206902138815
344,534.7555213156635
345,534.790270670068
346,534.8248885775138
347,534.8593284216474
348,534.8935469001993
349,534.9275042296019
350,534.9611643219345
351,534.9944949335917
352,535.0274677859475
353,535.0600586589112
354,535.0922474585221
355,535.1240182597105
356,535.1553593253622
357,535.1862631030403
358,535.2167262010255
359,535.2467493454436
360,535.2763373200248
361,535.3054988896038
362,535.3342467080265
363,535.3625972107516
364,535.3905704921405
365,535.4181901672433
366,535.445483217859
367,535.4724798229021
368,535.499213173688
369,535.5257192754516
370,535.5520367368729
371,535.5782065492643
372,535.6042718564571
373,535.6302777157507
374,535.6562708500883
375,535.6822993919262
376,535.7084126197275
377,535.7346606883826
378,535.7610943552514
379,535.7877647039843
380,535.8147228686553
381,535.8420197608652
382,535.8697058025348
383,535.8978306673685
384,535.9264430343188
385,535.9555903563637
386,535.9853186472176
387,536.0156722873168
388,536.0466938488797
389,536.078423938409
390,536.1109010539054
391,536.1441614534191
392,536.1782390313748
393,536.2131651993501
394,536.2489687685588
395,536.285675832144
396,536.3233096464612
397,536.3618905118133
398,536.4014356544027
399,536.4419591122644
400,536.4834716283675
401,536.5259805540389
402,536.5694897656265
403,536.6139995969544
404,536.659506789478
405,536.7060044610688
406,536.7534820933503
407,536.8019255368611
408,536.8513170331884
409,536.9016352533497
410,536.9528553517831
411,537.004949035182
412,537.0578846451791
413,537.1116272537541
414,537.1661387702857
415,537.2213780592292
416,537.277301067356
417,537.3338609594531
418,537.3910082615714
419,537.4486910113692
420,537.5068549156902
421,537.5654435159523
422,537.6243983619864
423,537.6836591947836
424,537.7431641384417
425,537.8028499014902
426,537.8626519876481
427,537.9225049159455
428,537.982342450025
429,538.0420978363264
430,538.1017040506791
431,538.1610940525059
432,538.2202010453072
433,538.2789587413381
434,538.337301627433
435,538.3951652278937
436,538.4524863594294
437,538.5092033726728
438,538.5652563750367
439,538.6205874305759
440,538.6751407337924
441,538.7288627556383
442,538.7817023611282
443,538.8336108989151
444,538.8845422639944
445,538.9344529354761
446,538.983301991998
447,539.0310511076266
448,539.0776645309426
449,539.1231090494726
450,539.1673539408415
451,539.2103709113326
452,539.2521340222809
453,539.2926196048563
454,539.3318061641016
455,539.3696742734793
456,539.4062064616245
457,539.4413870932859
458,539.4752022463455
459,539.5076395864253
460,539.5386882402671
461,539.5683386690348
462,539.5965825429026
463,539.6234126186854
464,539.6488226227455
465,539.672807141735
466,539.6953615237339
467,539.7164817921802
468,539.7361645749249
469,539.754407050817
470,539.7712069161779
471,539.7865623731818
472,539.8004721415634
473,539.812935494545
474,539.8239523195598
475,539.8335232040234
476,539.8416495456858
477,539.8483336858972
478,539.853579062717
479,539.8573903795584
480,539.8597737842402
481,539.8607370529966
482,539.8602897741032
483,539.8584435261678
484,539.855212046743
485,539.8506113878216
486,539.8446600558718
487,539.8373791351381
488,539.8287923937776
489,539.8189263729405
490,539.8078104590819
491,539.7954769396464
492,539.781961042052
493,539.7673009558533
494,539.7515378380607
495,539.7347158016255
496,539.7168818870122
497,539.6980860166472
498,539.6783809319415
499,539.65782211257
500,539.6364676777644
501,539.6143782694946
502,539.5916169175126
503,539.5682488862723
504,539.5443415037084
505,539.5199639718032
506,539.4951871587895
507,539.4700833726267
508,539.4447261149654
509,539.4191898142799
510,539.3935495364167
511,539.36788067076
512,539.3422585908422
513,539.3167582896264
514,539.291453991625
515,539.2664187459764
516,539.2417240060888
517,539.2174392023453
518,539.1936313147218
519,539.1703644520449
520,539.1476994440155
521,539.125693451098
522,539.1043995960227
523,539.0838666192359
524,539.0641385595036
525,539.0452544603125
526,539.0272481026902
527,539.0101477654291
528,538.993976014244
529,538.9787495219624
530,538.9644789222971
531,538.9511686999822
532,538.9388171200507
533,538.9274161988175
534,538.9169517187133
535,538.9074032885159
536,538.8987444498223
537,538.890942829963
538,538.8839603411012
539,538.8777534249791
540,538.8722733424753
541,538.8674665067032
542,538.86327485791
543,538.8596362780078
544,538.8564850420587
545,538.8537523034065
546,538.8513666085955
547,538.8492544379314
548,538.8473407673267
549,538.8455496466671
550,538.8438047893585
551,538.8420301672581
552,538.840150605038
553,538.8380923681158
554,538.8357837384718
555,538.8331555728442
556,538.8301418378611
557,538.8266801166585
558,538.8227120815328
559,538.8181839272627
560,538.8130467599452
561,538.807256936616
562,538.8007763517577
563,538.7935726681169
564,538.7856194907642
565,538.7768964846276
566,538.7673894366363
567,538.7570902642475
568,538.7459969726821
569,538.7341135637752
570,538.721449899934
571,538.7080215272299
572,538.693849462035
573,538.678959945729
574,538.6633841717681
575,538.6471579889037
576,538.6303215837679
577,538.612919145545
578,538.5949985150704
579,538.5766108204806
580,538.5578101015614
581,538.5386529251839
582,538.519197994339
583,538.4995057529572
584,538.4796379880365
585,538.4596574299875
586,538.4396273517942
587,538.4196111675868
588,538.3996720315025
589,538.3798724382597
590,538.3602738275052
591,538.3409361944979
592,538.321917709991
593,538.3032743523985
594,538.2850595555375
595,538.2673238753765
596,538.250114679161
597,538.2334758599873
598,538.2174475793939
599,538.2020660399057
600,538.1873632887357
601,538.1733670531331
602,538.1601006073054
603,538.1475826705349
604,538.1358273360538
605,538.1248440303776
606,538.1146375029505
607,538.105207845783
608,538.0965505420616
609,538.0886565416546
610,538.0815123605805
611,538.0751002012663
612,538.069398090832
613,538.0643800354059
614,538.0600161892079
615,538.0562730375748
616,538.0531135931712
617,538.0504976044826
618,538.0483817754955
619,538.0467199953678
620,538.0454635768562
621,538.0445615022659
622,538.0439606757985
623,538.0436061813908
624,538.0434415452905
625,538.0434090026527
626,538.0434497675393
627,538.043504305939
628,538.0435126116266
629,538.0434144847542
630,538.0431498130176
631,538.0426588550527
632,538.0418825252626
633,538.0407626786821
634,538.0392423941304
635,538.0372662540886
636,538.0347806202301
637,538.0317339039303
638,538.0280768311779
639,538.0237627012102
640,538.0187476381523
641,538.0129908351126
642,538.0064547904467
643,537.9991055358894
644,537.9909128558942
645,537.9818504970539
646,537.9718963661425
647,537.9610327150998
648,537.9492463110673
649,537.9365285892492
650,537.9228757858731
651,537.908289047953
652,537.8927745160634
653,537.8763433760763
654,537.8590118759474
655,537.8408013042758
656,537.821737928404
657,537.8018528909706
658,537.7811820647403
659,537.7597658660889
660,537.7376490279295
661,537.7148803334696
662,537.6915123131922
663,537.6676009086609
664,537.6432051077003
665,537.6183865558523
666,537.5932091489267
667,537.567738611387
668,537.5420420654675
669,537.5161875961036
670,537.4902438167674
671,537.4642794410727
672,537.4383628646024
673,537.4125617608164
674,537.3869426940586
675,537.3615707516276
676,537.3365091958709
677,537.3118191367171
678,537.2875592252044
679,537.263785369089
680,537.2405504720087
681,537.2179041976559
682,537.1958927599876
683,537.1745587398414
684,537.1539409276694
685,537.1340741918026
686,537.114989371828
687,537.0967131970525
688,537.079268230226
689,537.0626728365514
690,537.0469411777126
691,537.0320832304607
692,537.0181048292559
693,537.0050077324079
694,536.9927897110579
695,536.9814446603511
696,536.9709627323152
697,536.9613304900417
698,536.9525310824524
699,536.9445444381845
700,536.9373474763598
701,536.930914331703
702,536.9252165917536
703,536.9202235444267
704,536.915902434531
705,536.9122187279944
706,536.9091363825847
707,536.9066181239315
708,536.904625725583
709,536.9031202915359
710,536.9020625391702
711,536.9014130800538
712,536.9011326958664
713,536.9011826066477
714,536.9015247284716
715,536.9021219175359
716,536.9029381978855
717,536.9039389707377
718,536.9050912043609
719,536.906363604218
720,536.9077267633737
721,536.9091532930929
722,536.9106179333224
723,536.9120976425386
724,536.9135716663442
725,536.9150215842407
726,536.9164313340779
727,536.9177872136815
728,536.9190778592058
729,536.9202942001099
730,536.921429391329
731,536.9224787238791
732,536.9234395155602
733,536.9243109837124
734,536.9250941023931
735,536.925791446892
736,536.9264070289353
737,536.9269461260274
738,536.9274151081186
739,536.927821264301
740,536.9281726317255
741,536.9284778285383
742,536.928745892463
743,536.9289861267298
744,536.9292079552748
745,536.9294207892502
746,536.9296339067214
747,536.9298563470135
748,536.9300968208025
749,536.9303636369843
750,536.9306646474548
751,536.9310072107623
752,536.9313981749469
753,536.9318438790419
754,536.9323501720288
755,536.9329224474883
756,536.9335656915887
757,536.9342845414368
758,536.935083350472
759,536.9359662577004
760,536.936937258058
761,536.9380002717332
762,536.9391592106409
763,536.9404180405485
764,536.9417808378206
765,536.9432518403237
766,536.944835492443
767,536.9465364842654
768,536.9483597848448
769,536.9503106693288
770,536.9523947398326
771,536.9546179402837
772,536.9569865657029
773,536.9595072661939
774,536.9621870453401
775,536.9650332521531
776,536.9680535655458
777,536.9712559704526
778,536.9746487248626
779,536.9782403169706
780,536.982039411537
781,536.9860547846217
782,536.9902952461787
783,536.9947695503826
784,536.9994862938746
785,537.0044538025035
786,537.0096800079024
787,537.01517231638
788,537.0209374735404
789,537.0269814282088
790,537.0333091987231
791,537.0399247440981
792,537.0468308424047
793,537.0540289786529
794,537.0615192441002
795,537.0693002481611
796,537.0773690433159
797,537.0857210629055
798,537.0943500715231
799,537.1032481277819
800,537.1124055594854
801,537.1218109516321
802,537.1314511481544
803,537.1413112687129
804,537.1513747420131
805,537.1616233567703
806,537.1720373306514
807,537.1825953965603
808,537.1932749048245
809,537.2040519392733
810,537.2149014448596
811,537.2257973644201
812,537.2367127823361
813,537.2476200730872
814,537.2584910528892
815,537.269297132913
816,537.280009473096
817,537.2905991360506
818,537.3010372406609
819,537.3112951144699
820,537.3213444432046
821,537.3311574152715
822,537.3407068589855
823,537.3499663704991
824,537.3589104306639
825,537.3675145094836
826,537.3757551575809
827,537.3836100850625
828,537.3910582290085
829,537.398079811335
830,537.4046563890911
831,537.410770899455
832,537.4164077017923
833,537.4215526190469
834,537.4261929804167
835,537.4303176667835
836,537.433917159836
837,537.4369835953961
838,537.4395108211941
839,537.4414944592321
840,537.4429319728856
841,537.4438227389195
842,537.4441681244183
843,537.4439715680835
844,537.4432386646281
845,537.4419772504291
846,537.4401974882055
847,537.4379119479868
848,537.4351356809658
849,537.4318862823129
850,537.4281839388976
851,537.4240514579947
852,537.4195142732231
853,537.4146004242288
854,537.4093405072529
855,537.4037675948771
856,537.3979171247236
857,537.3918267583425
858,537.3855362127115
859,537.3790870676356
860,537.3725225528469
861,537.3658873187123
862,537.359227194278
863,537.352588936084
864,537.3460199708476
865,537.3395681347575
866,537.333281411919
867,537.3272076746167
868,537.3213944284907
869,537.3158885662281
870,537.3107361336744
871,537.3059821121672
872,537.301670220441
873,537.2978427389279
874,537.2945403588343
875,537.29180205791
876,537.2896650042032
877,537.2881644885199
878,537.2873338860368
879,537.2872046474249
880,537.2878063195487
881,537.2891665952108
882,537.2913113906677
883,537.2942649489394
884,537.2980499664501
885,537.3026877403047
886,537.308198333319
887,537.3146007536963
888,537.3219131460825
889,537.3301529906723
890,537.3393373068919
891,537.3494828577957
892,537.360606350815
893,537.3727246301795
894,537.3858548564315
895,537.4000146689662
896,537.4152223282366
897,537.4314968349449
898,537.4488580240595
899,537.4673266319114
900,537.486924335078
901,537.5076737603728
902,537.5295984659754
903,537.5527228943978
904,537.5770722984154
905,537.6026726412671
906,537.6295504725053
907,537.6577327809686
908,537.6872468264811
909,537.7181199521885
910,537.7503793800911
911,537.7840519932176
912,537.8191641086152
913,537.8557412456424
914,537.8938078938851
915,537.9333872844339
916,537.9745011675808
917,538.0171695996202
