frame_number,force
0,540.7764931583856
1,540.790006935395
2,540.8016016140731
3,540.8113428206012
4,540.8192992039667
5,540.8255417939727
6,540.8301433403136
7,540.8331776375758
8,540.8347188410916
9,540.8348407784629
10,540.83361626163
11,540.8311164046369
12,540.8274099525158
13,540.8225626269829
14,540.816636495054
15,540.8096893673446
16,540.8017742335701
17,540.7929387433837
18,540.7832247407745
19,540.7726678595225
20,540.7612971857992
21,540.7491349923827
22,540.7361965475852
23,540.7224900010035
24,540.7080163474457
25,540.6927694697539
26,540.6767362606387
27,540.6598968228709
28,540.6422247458711
29,540.6236874547718
30,540.604246625901
31,540.5838586610724
32,540.5624752124625
33,540.5400437500164
34,540.5165081637364
35,540.4918093934292
36,540.4658860784502
37,540.4386752200116
38,540.4101128491553
39,540.3801346945856
40,540.3486768457356
41,540.3156764069977
42,540.2810721387584
43,540.2448050803023
44,540.2068191495761
45,540.1670617152953
46,540.1254841374459
47,540.0820422725699
48,540.0366969405361
49,539.9894143500455
50,539.9401664808339
51,539.8889314212279
52,539.8356936603955
53,539.780444335454
54,539.7231814345059
55,539.663909957373
56,539.6026420361268
57,539.5393970175988
58,539.4742015101174
59,539.4070893967249
60,539.3381018166978
61,539.267287116069
62,539.1947007664638
63,539.1204052507039
64,539.0444699137372
65,538.9669707781487
66,538.8879903243088
67,538.8076172358351
68,538.7259461113974
69,538.6430771439683
70,538.5591157686325
71,538.4741722803293
72,538.3883614233551
73,538.3018019546602
74,538.2146161825876
75,538.1269294820021
76,538.0388697863084
77,537.9505670569763
78,537.862152731719
79,537.7737591532925
80,537.6855189819289
81,537.5975645956121
82,537.5100274835561
83,537.4230376391511
84,537.336722959183
85,537.2512086563871
86,537.1666166925589
87,537.0830652395473
88,537.0006681752425
89,536.9195346209127
90,536.8397685249832
91,536.7614682968738
92,536.6847264930205
93,536.6096295557649
94,536.5362576045211
95,536.4646842778106
96,536.3949766244203
97,536.3271950418613
98,536.261393260296
99,536.1976183701745
100,536.1359108919494
101,536.0763048862573
102,536.0188281027582
103,535.9635021653861
104,535.9103427911202
105,535.859360038702
106,535.8105585831634
107,535.7639380116456
108,535.719493135796
109,535.6772143161579
110,535.6370877944361
111,535.5990960300505
112,535.5632180376773
113,535.529429722586
114,535.4977042108145
115,535.4680121717288
116,535.4403221312183
117,535.4146007743601
118,535.3908132365375
119,535.368923381827
120,535.3488940673396
121,535.3306873921358
122,535.3142649289243
123,535.2995879358238
124,535.2866175444616
125,535.2753149201986
126,535.2656413905167
127,535.2575585384831
128,535.2510282595129
129,535.2460127811881
130,535.2424746473445
131,535.2403766686031
132,535.2396818417747
133,535.2403532403484
134,535.2423538783002
135,535.2456465502125
136,535.2501936521486
137,535.2559569894393
138,535.2628975789627
139,535.2709754540423
140,535.2801494795604
141,535.2903771836728
142,535.3016146113185
143,535.3138162038986
144,535.3269347088028
145,535.3409211214024
146,535.3557246605911
147,535.3712927774077
148,535.3875711951799
149,535.4045039790543
150,535.4220336324748
151,535.4401012179063
152,535.4586464985658
153,535.4776080969831
154,535.4969236651326
155,535.5165300602387
156,535.5363635205057
157,535.5563598358947
158,535.5764545103478
159,535.5965829132517
160,535.6166804191682
161,535.6366825357879
162,535.6565250205833
163,535.6761439867752
164,535.6954759991002
165,535.7144581596864
166,535.7330281842969
167,535.751124469366
168,535.7686861505633
169,535.7856531539574
170,535.80196624128
171,535.8175670515701
172,535.8323981426325
173,535.8464030367767
174,535.85952627553
175,535.8717134872824
176,535.8829114706781
177,535.8930682956051
178,535.9021334228861
179,535.9100578429643
180,535.9167942329198
181,535.9222971302755
182,535.9265231215319
183,535.9294310432035
184,535.9309821930575
185,535.9311405490657
186,535.9298729934522
187,535.9271495393681
188,535.9229435580714
189,535.9172320046916
190,535.9099956404407
191,535.9012192486429
192,535.8908918415628
193,535.8790068550009
194,535.8655623277709
195,535.8505610630567
196,535.8340107682479
197,535.8159241696414
198,535.7963190986757
199,535.7752185470247
200,535.7526506886251
201,535.7286488676134
202,535.703251552416
203,535.6765022576715
204,535.6484494366572
205,535.6191463469748
206,535.588650891542
207,535.5570254359507
208,535.5243366025493
209,535.4906550413712
210,535.4560551780751
211,535.4206149390202
212,535.384415453289
213,535.3475407310341
214,535.3100773173308
215,535.2721139210702
216,535.2337410192638
217,535.1950504380143
218,535.1561349120077
219,535.1170876247791
220,535.0780017325669
221,535.0389698754767
222,535.0000836806585
223,534.961433262847
224,534.9231067277641
225,534.885189683726
226,534.8477647666407
227,534.8109111836447
228,534.7747042809478
229,534.739215141799
230,534.7045102203847
231,534.6706510166001
232,534.6376937952335
233,534.6056893516508
234,534.5746828247198
235,534.5447135563323
236,534.5158149955552
237,534.488014644601
238,534.4613340437337
239,534.435788792658
240,534.4113886063096
241,534.3881374029609
242,534.3660334222827
243,534.3450693707823
244,534.3252325921392
245,534.3065052605149
246,534.2888645956867
247,534.2722830994961
248,534.2567288133263
249,534.2421655961023
250,534.2285534217751
251,534.2158486946955
252,534.2040045809807
253,534.1929713540164
254,534.1826967524383
255,534.1731263492078
256,534.1642039308309
257,534.155871886472
258,534.1480716074105
259,534.1407438974406
260,534.1338293940769
261,534.127268999021
262,534.1210043148209
263,534.1149780835183
264,534.1091346224742
265,534.1034202522588
266,534.0977837112798
267,534.092176551846
268,534.0865535128856
269,534.0808728654829
270,534.0750967283951
271,534.0691913515116
272,534.063127365828
273,534.0568799990009
274,534.0504292559797
275,534.0437600646784
276,534.0368623870279
277,534.0297312956643
278,534.0223670158612
279,534.0147749317215
280,534.0069655557462
281,533.9989544616054
282,533.9907621806535
283,533.982414063183
284,533.9739401057977
285,533.9653747467814
286,533.9567566318062
287,533.9481283525438
288,533.9395361607003
289,533.9310296599535
290,533.9226614784247
291,533.9144869245367
292,533.9065636290004
293,533.8989511749886
294,533.8917107174804
295,533.8849045918644
296,533.8785959119025
297,533.8728481582854
298,533.8677247606547
299,533.8632886771022
300,533.8596019752863
301,533.8567254187293
302,533.8547180613017
303,533.8536368528653
304,533.8535362594715
305,533.8544679019109
306,533.856480216345
307,533.8596181401118
308,533.8639228247388
309,533.8694313770412
310,533.8761766282506
311,533.8841869304953
312,533.8934859795648
313,533.9040926627316
314,533.9160209306663
315,533.9292796932186
316,533.943872739652
317,533.9597986842331
318,533.9770509377574
319,533.9956177051291
320,534.0154820092034
321,534.0366217418758
322,534.0590097443694
323,534.0826139192073
324,534.1073973761672
325,534.1333186137043
326,534.1603317361859
327,534.188386706101
328,534.2174296294002
329,534.2474030714397
330,534.2782464009009
331,534.309896159405
332,534.3422864547381
333,534.3753493751092
334,534.4090154209161
335,534.4432139496148
336,534.4778736287377
337,534.5129228918768
338,534.5482903925177
339,534.5839054509938
340,534.6196984903443
341,534.6556014573548
342,534.6915482255539
343,534.7274749775428
344,534.7633205646722
345,534.799026842549
346,534.8345389809539
347,534.8698057464333
348,534.90477975539
349,534.9394176954495
350,534.9736805134721
351,535.0075335696462
352,535.0409467582167
353,535.0738945961994
354,535.1063562817329
355,535.1383157236816
356,535.1697615440919
357,535.2006870553681
358,535.231090214411
359,535.2609735560819
360,535.290344108041
361,535.3192132884282
362,535.3475967872529
363,535.3755144318512
364,535.4029900363673
365,535.430051234953
366,535.4567292983224
367,535.4830589336134
368,535.5090780682322
369,535.5348276192642
370,535.5603512506029
371,535.5856951197875
372,535.6109076157178
373,535.6360390875317
374,535.6611415646572
375,535.686268468436
376,535.7114743163019
377,535.736814419981
378,535.7623445796712
379,535.7881207767634
380,535.8141988681425
381,535.8406342852685
382,535.8674817413169
383,535.894794949993
384,535.9226263600912
385,535.9510269098463
386,535.9800458042354
387,536.009730316725
388,536.0401256149706
389,536.0712746081199
390,536.1032178119584
391,536.135993227302
392,536.1696362268137
393,536.2041794457386
394,536.2396526728136
395,536.2760827387195
396,536.3134934008569
397,536.3519052248954
398,536.3913354652617
399,536.4317979480298
400,536.4733029602493
401,536.5158571497126
402,536.5594634388748
403,536.604120956176
404,536.6498249871964
405,536.6965669468248
406,536.7443343723166
407,536.7931109363072
408,536.8428764786751
409,536.8936070563497
410,536.9452750102704
411,536.9978490485578
412,537.0512943446716
413,537.10557264917
414,537.1606424137559
415,537.2164589263903
416,537.2729744561924
417,537.3301384068194
418,537.3878974772629
419,537.4461958296044
420,537.5049752640507
421,537.5641754021362
422,537.6237338790697
423,537.6835865459711
424,537.7436676825297
425,537.8039102204692
426,537.8642459780494
427,537.924605905668
428,537.9849203424819
429,538.0451192838166
430,538.1051326588977
431,538.1648906180205
432,538.2243238275771
433,538.2833637703699
434,538.3419430474008
435,538.3999956759635
436,538.4574573776613
437,538.5142658493659
438,538.5703610104324
439,538.6256852206523
440,538.6801834650672
441,538.7338035034709
442,538.7864959839159
443,538.838214520761
444,538.888915738839
445,538.9385592863237
446,538.9871078196846
447,539.0345269644756
448,539.0807852554946
449,539.1258540591541
450,539.1697074798774
451,539.212322251436
452,539.2536776137996
453,539.2937551762382
454,539.3325387678103
455,539.3700142768761
456,539.406169481844
457,539.4409938757283
458,539.474478486976
459,539.5066156985256
460,539.5373990666399
461,539.5668231410093
462,539.594883287902
463,539.6215755186455
464,539.646896326349
465,539.6708425341983
466,539.6934111586594
467,539.7145992907143
468,539.7344039981789
469,539.7528222522401
470,539.7698508813044
471,539.785486554797
472,539.7997257987882
473,539.8125650446356
474,539.8240007114249
475,539.8340293225708
476,539.8426476560088
477,539.8498529258533
478,539.85564299157
479,539.8600165891149
480,539.8629735774188
481,539.864515193176
482,539.864644307041
483,539.8633656748282
484,539.8606861781063
485,539.8566150497363
486,539.851164081323
487,539.8443478109299
488,539.836183690492
489,539.8266922330528
490,539.8158971401737
491,539.803825409668
492,539.7905074235148
493,539.7759770157435
494,539.7602715201912
495,539.7434317980649
496,539.7255022451136
497,539.7065307780343
498,539.6865687996013
499,539.6656711419758
500,539.643895987741
501,539.6213047683427
502,539.5979620397385
503,539.5739353350934
504,539.5492949943141
505,539.5241139701274
506,539.4984676103036
507,539.4724334153353
508,539.446090770332
509,539.4195206491887
510,539.3928052885225
511,539.3660278288049
512,539.3392719209336
513,539.312621298296
514,539.2861593168988
515,539.2599684686738
516,539.2341298750096
517,539.208722768708
518,539.1838239730419
519,539.1595073864316
520,539.1358434804943
521,539.112898817898
522,539.0907355947168
523,539.0694112101561
524,539.0489778650824
525,539.0294821900688
526,539.0109649036689
527,538.9934605021167
528,538.9769969823834
529,538.9615956012798
530,538.9472706739049
531,538.9340294150621
532,538.921871827288
533,538.9107906388833
534,538.9007712948212
535,538.8917920026489
536,538.8838238346201
537,538.8768308864757
538,538.8707704927277
539,538.8655934979575
540,538.8612445832692
541,538.8576626465032
542,538.8547812342197
543,538.8525290229236
544,538.8508303463606
545,538.8496057649055
546,538.8487726723674
547,538.8482459351693
548,538.8479385585979
549,538.8477623742938
550,538.8476287424093
551,538.8474492612713
552,538.8471364771863
553,538.8466045871265
554,538.8457701272802
555,538.8445526406532
556,538.8428753169994
557,538.8406655983205
558,538.837855743166
559,538.834383343063
560,538.8301917846518
561,538.8252306516392
562,538.8194560617437
563,538.8128309354875
564,538.8053251956308
565,538.7969158977016
566,538.7875872932204
567,538.7773308280179
568,538.7661450787338
569,538.754035631309
570,538.7410149060116
571,538.7271019342046
572,538.7123220925305
573,538.6967068003112
574,538.6802931856247
575,538.6631237248453
576,538.6452458596606
577,538.62671159491
578,538.607577080076
579,538.5879021769503
580,538.5677500160095
581,538.5471865443274
582,538.5262800679882
583,538.5051007915373
584,538.4837203561159
585,538.4622113771296
586,538.4406469818831
587,538.4191003475992
588,538.3976442406046
589,538.376350558167
590,538.3552898752946
591,538.3345309994575
592,538.3141405365895
593,538.2941824720165
594,538.2747177702344
595,538.2558039976517
596,538.2374949723404
597,538.2198404444676
598,538.2028858104436
599,538.1866718630108
600,538.1712345785784
601,538.1566049421871
602,538.142808809789
603,538.1298668071503
604,538.1177942646292
605,538.1066011872911
606,538.0962922600369
607,538.086866887232
608,538.0783192654292
609,538.0706384864462
610,538.0638086669662
611,538.0578091005443
612,538.0526144284667
613,538.0481948269248
614,538.0445162089492
615,538.041540440133
616,538.0392255672979
617,538.0375260590791
618,538.0363930571868
619,538.0357746369858
620,538.035616076011
621,538.0358601290528
622,538.0364473086055
623,538.0373161697709
624,538.0384035989216
625,538.0396451054906
626,538.0409751163917
627,538.0423272728896
628,538.0436347300098
629,538.0448304586733
630,538.0458475506889
631,538.0466195264839
632,538.0470806448761
633,538.0471662134021
634,538.0468128972675
635,538.0459590252084
636,538.0445448911879
637,538.0425130513606
638,538.0398086158457
639,538.0363795347151
640,538.0321768775273
641,538.0271551059487
642,538.0212723393244
643,538.0144906130241
644,538.0067761289042
645,537.9980994966
646,537.9884359639108
647,537.9777656342321
648,537.9660736686915
649,537.9533504701842
650,537.9395918458391
651,537.9247991436706
652,537.9089793585152
653,537.8921452019878
654,537.8743151313463
655,537.8555133329572
656,537.8357696573802
657,537.815119504559
658,537.7936036587631
659,537.7712680736237
660,537.7481636081133
661,537.72434571509
662,537.6998740853014
663,537.6748122513003
664,537.6492271569385
665,537.6231886985503
666,537.5967692438093
667,537.5700431341432
668,537.5430861767716
669,537.5159751326747
670,537.4887872068076
671,537.4615995465697
672,537.4344887540119
673,537.4075304164884
674,537.3807986593707
675,537.3543657230848
676,537.3283015654249
677,537.3026734894053
678,537.2775457971018
679,537.2529794706304
680,537.2290318819278
681,537.2057565329832
682,537.1832028276381
683,537.1614158752218
684,537.1404363254644
685,537.1203002337517
686,537.1010389560281
687,537.0826790731794
688,537.0652423450032
689,537.0487456937117
690,537.0332012165404
691,537.0186162268141
692,537.0049933227816
693,536.9923304834865
694,536.9806211908232
695,536.9698545769623
696,536.9600155965595
697,536.9510852232878
698,536.9430406698419
699,536.9358556296114
700,536.929500537233
701,536.923942844863
702,536.9191473113838
703,536.9150763024347
704,536.9116900996275
705,536.9089472175004
706,536.9068047268214
707,536.9052185828837
708,536.9041439573488
709,536.9035355718125
710,536.9033480306173
711,536.9035361498283
712,536.9040552790159
713,536.9048616124244
714,536.9059124859721
715,536.9071666563816
716,536.9085845590306
717,536.910128542078
718,536.9117630756967
719,536.913454936215
720,536.9151733653413
721,536.9168902045376
722,536.9185800042993
723,536.9202201078116
724,536.9217907083155
725,536.923274879562
726,536.9246585788151
727,536.9259306218573
728,536.9270826294953
729,536.9281089455104
730,536.9290065268552
731,536.9297748077565
732,536.9304155399232
733,536.9309326114243
734,536.9313318473265
735,536.9316207958824
736,536.9318085046137
737,536.931905290754
738,536.9319225101606
739,536.9318723281764
740,536.9317674952448
741,536.9316211295693
742,536.9314465088727
743,536.9312568734072
744,536.9310652426464
745,536.9308842482401
746,536.9307259855948
747,536.9306018859007
748,536.9305226099509
749,536.9304979650117
750,536.930536846134
751,536.9306472030698
752,536.9308360331185
753,536.9311093991398
754,536.9314724710804
755,536.9319295886507
756,536.932484342011
757,536.9331396665242
758,536.9338979471897
759,536.9347611285228
760,536.9357308262856
761,536.9368084381795
762,536.9379952510794
763,536.9392925427923
764,536.9407016769283
765,536.9422241902229
766,536.9438618721792
767,536.9456168370366
768,536.947491587892
769,536.949489072628
770,536.9516127314351
771,536.9538665361622
772,536.9562550220376
773,536.9587833120617
774,536.9614571336207
775,536.964282826159
776,536.9672673385223
777,536.9704182147824
778,536.9737435675372
779,536.9772520376066
780,536.9809527388943
781,536.9848551872849
782,536.9889692128636
783,536.9933048552468
784,536.9978722422228
785,537.0026814524078
786,537.007742363619
787,537.0130644901399
788,537.0186568132751
789,537.0245276098028
790,537.0306842822636
791,537.0371331943159
792,537.0438795141689
793,537.0509270690461
794,537.058278213154
795,537.0659337106738
796,537.07389263428
797,537.0821522790399
798,537.0907080913173
799,537.0995536123999
800,537.1086804368996
801,537.1180781864992
802,537.1277345002367
803,537.1376350430675
804,537.1477635346403
805,537.158101799787
806,537.1686298411944
807,537.1793259334856
808,537.190166736894
809,537.2011274279778
810,537.2121818443983
811,537.2233026407027
812,537.2344614522875
813,537.2456290650102
814,537.2567755881847
815,537.2678706290958
816,537.2788834678365
817,537.2897832319186
818,537.3005390702166
819,537.3111203251772
820,537.3214967012472
821,537.3316384268045
822,537.3415164067908
823,537.3511023635045
824,537.3603689633608
825,537.3692899279756
826,537.3778401289215
827,537.3859956667524
828,537.3937339359766
829,537.4010336783429
830,537.4078750271971
831,537.4142395459354
832,537.4201102637
833,537.4254717113372
834,537.4303099602255
835,537.4346126659444
836,537.4383691180637
837,537.4415702967715
838,537.4442089367078
839,537.4462795982296
840,537.4477787463352
841,537.4487048375119
842,537.4490584145253
843,537.4488422084598
844,537.4480612463697
845,537.4467229621588
846,537.4448373077871
847,537.4424168612418
848,537.4394769268374
849,537.4360356227276
850,537.4321139503364
851,537.4277358405822
852,537.4229281719786
853,537.4177207560365
854,537.4121462861998
855,537.4062402480382
856,537.4000407903402
857,537.3935885586346
858,537.386926494211
859,537.3800996028272
860,537.3731546979499
861,537.3661401235177
862,537.3591054609743
863,537.3521012249415
864,537.3451785514607
865,537.3383888822731
866,537.3317836483453
867,537.3254139560113
868,537.3193302796584
869,537.3135821655472
870,537.3082179517486
871,537.3032845090472
872,537.2988270070828
873,537.2948887093152
874,537.2915107998342
875,537.2887322444315
876,537.2865896875494
877,537.2851173859808
878,537.2843471798478
879,537.2843085012736
880,537.2850284207839
881,537.2865317307111
882,537.2888410639088
883,537.2919770451772
884,537.2959584721796
885,537.3008025223226
886,537.3065249818428
887,537.3131404930476
888,537.3206628154555
889,537.3291050965062
890,537.338480147322
891,537.3488007185027
892,537.3600797702846
893,537.3723307309901
894,537.385567737823
895,537.399805854727
896,537.4150612629498
897,537.4313514208312
898,537.4486951900158
899,537.4671129258226
900,537.4866265300946
901,537.5072594656465
902,537.5290367323552
903,537.5519848057962
904,537.5761315398925
905,537.6015060352711
906,537.6281384751215
907,537.6560599304717
908,537.6853021369674
909,537.7158972456407
910,537.7478775510012
911,537.7812752009285
912,537.8161218937962
913,537.8524485686734
914,537.8902850942209
915,537.929659961168
916,537.9705999823616
917,538.013130003908
