frame_number,force
0,540.7764931572718
1,540.7900069341972
2,540.8016016127978
3,540.811342819255
4,540.8192992025564
5,540.8255417925055
6,540.8301433387971
7,540.8331776360179
8,540.8347188395009
9,540.8348407768483
10,540.8336162600009
11,540.8311164030026
12,540.8274099508862
13,540.8225626253679
14,540.8166364934639
15,540.8096893657895
16,540.80177423206
17,540.7929387419283
18,540.7832247393831
19,540.772667858204
20,540.7612971845621
21,540.7491349912339
22,540.7361965465309
23,540.7224900000489
24,540.7080163465953
25,540.6927694690115
26,540.6767362600068
27,540.6598968223511
28,540.642224745464
29,540.6236874544769
30,540.6042466257168
31,540.5838586609958
32,540.5624752124892
33,540.5400437501411
34,540.5165081639531
35,540.4918093937313
36,540.4658860788303
37,540.4386752204615
38,540.4101128496666
39,540.3801346951494
40,540.3486768463428
41,540.3156764076393
42,540.2810721394256
43,540.2448050809866
44,540.2068191502693
45,540.1670617159901
46,540.1254841381356
47,540.0820422732479
48,540.036696941197
49,539.9894143506843
50,539.9401664814463
51,539.8889314218104
52,539.8356936609454
53,539.7804443359695
54,539.7231814349857
55,539.6639099578163
56,539.6026420365334
57,539.5393970179695
58,539.4742015104532
59,539.4070893970281
60,539.3381018169713
61,539.2672871163167
62,539.1947007666902
63,539.1204052509147
64,539.0444699139387
65,538.9669707783476
66,538.8879903245119
67,538.8076172360487
68,538.7259461116275
69,538.64307714422
70,538.5591157689101
71,538.4741722806365
72,538.388361423695
73,538.3018019550351
74,538.214616183
75,538.1269294824535
76,538.0388697868002
77,537.9505670575088
78,537.862152732292
79,537.7737591539055
80,537.6855189825814
81,537.5975645963033
82,537.5100274842855
83,537.4230376399186
84,537.3367229599888
85,537.2512086572318
86,537.1666166934433
87,537.0830652404719
88,537.0006681762075
89,536.9195346219178
90,536.8397685260279
91,536.761468297957
92,536.6847264941409
93,536.6096295569207
94,536.5362576057103
95,536.4646842790308
96,536.3949766256687
97,536.3271950431347
98,536.261393261591
99,536.1976183714878
100,536.135910893278
101,536.0763048875989
102,536.0188281041109
103,535.9635021667484
104,535.9103427924912
105,535.8593600400815
106,535.8105585845524
107,535.7639380130462
108,535.7194931372109
109,535.6772143175897
110,535.6370877958873
111,535.5990960315232
112,535.5632180391726
113,535.5294297241038
114,535.497704212353
115,535.4680121732847
116,535.4403221327872
117,535.4146007759366
118,535.3908132381155
119,535.3689233833999
120,535.3488940689002
121,535.3306873936765
122,535.314264930437
123,535.2995879373001
124,535.2866175458928
125,535.2753149215758
126,535.2656413918312
127,535.2575585397263
128,535.2510282606768
129,535.2460127822649
130,535.2424746483265
131,535.2403766694836
132,535.2396818425473
133,535.240353241007
134,535.2423538788393
135,535.2456465506275
136,535.2501936524361
137,535.2559569895973
138,535.2628975789903
139,535.2709754539401
140,535.2801494793302
141,535.2903771833181
142,535.3016146108441
143,535.3138162033106
144,535.3269347081085
145,535.3409211206101
146,535.35572465971
147,535.3712927764473
148,535.3875711941506
149,535.4045039779667
150,535.4220336313391
151,535.4401012167325
152,535.4586464973638
153,535.4776080957625
154,535.4969236639027
155,535.5165300590081
156,535.5363635192821
157,535.5563598346846
158,535.5764545091572
159,535.596582912086
160,535.6166804180324
161,535.6366825346868
162,535.6565250195213
163,535.676143985756
164,535.6954759981267
165,535.7144581587606
166,535.7330281834202
167,535.7511244685385
168,535.7686861497843
169,535.7856531532257
170,535.8019662405937
171,535.8175670509272
172,535.8323981420302
173,535.846403036212
174,535.8595262749994
175,535.8717134867818
176,535.8829114702029
177,535.8930682951503
178,535.9021334224465
179,535.9100578425342
180,535.9167942324932
181,535.9222971298462
182,535.9265231210939
183,535.9294310427512
184,535.9309821925857
185,535.9311405485698
186,535.9298729929283
187,535.9271495388123
188,535.9229435574808
189,535.9172320040639
190,535.9099956397741
191,535.9012192479369
192,535.8908918408175
193,535.879006854217
194,535.8655623269499
195,535.8505610622009
196,535.8340107673608
197,535.8159241687277
198,535.7963190977412
199,535.775218546076
200,535.7526506876695
201,535.7286488666587
202,535.7032515514694
203,535.6765022567402
204,535.6484494357478
205,535.6191463460937
206,535.5886508906951
207,535.5570254351445
208,535.5243366017903
209,535.4906550406658
210,535.4560551774296
211,535.42061493844
212,535.3844154527792
213,535.3475407305991
214,535.3100773169745
215,535.272113920796
216,535.2337410190745
217,535.1950504379117
218,535.156134911993
219,535.117087624853
220,535.0780017327293
221,535.0389698757266
222,535.0000836809942
223,534.9614332632659
224,534.923106728263
225,534.8851896843006
226,534.8477647672859
227,534.8109111843546
228,534.774704281716
229,534.7392151426186
230,534.7045102212485
231,534.6706510175007
232,534.6376937961634
233,534.6056893526021
234,534.5746828256848
235,534.5447135573036
236,534.5158149965257
237,534.4880146455642
238,534.4613340446839
239,534.4357887935901
240,534.4113886072195
241,534.3881374038451
242,534.3660334231391
243,534.345069371609
244,534.325232592935
245,534.3065052612789
246,534.2888645964182
247,534.2722831001946
248,534.2567288139917
249,534.2421655967346
250,534.2285534223745
251,534.215848695262
252,534.2040045815145
253,534.1929713545172
254,534.1826967529055
255,534.1731263496404
256,534.164203931228
257,534.155871886833
258,534.1480716077348
259,534.1407438977279
260,534.1338293943274
261,534.1272689992355
262,534.1210043150008
263,534.1149780836658
264,534.1091346225918
265,534.1034202523488
266,534.0977837113446
267,534.0921765518887
268,534.0865535129095
269,534.0808728654919
270,534.0750967283935
271,534.0691913515041
272,534.0631273658194
273,534.0568799989961
274,534.0504292559838
275,534.0437600646961
276,534.0368623870642
277,534.0297312957236
278,534.0223670159478
279,534.014774931839
280,534.0069655558979
281,533.9989544617936
282,533.9907621808799
283,533.9824140634487
284,533.9739401061033
285,533.9653747471269
286,533.9567566321913
287,533.9481283529675
288,533.9395361611612
289,533.9310296604496
290,533.9226614789535
291,533.9144869250958
292,533.9065636295869
293,533.8989511755993
294,533.8917107181117
295,533.8849045925123
296,533.8785959125627
297,533.8728481589534
298,533.867724761326
299,533.8632886777721
300,533.8596019759494
301,533.8567254193802
302,533.8547180619344
303,533.8536368534731
304,533.8535362600469
305,533.8544679024457
306,533.8564802168308
307,533.8596181405408
308,533.863922825103
309,533.8694313773336
310,533.8761766284647
311,533.8841869306252
312,533.8934859796053
313,533.9040926626777
314,533.9160209305136
315,533.9292796929636
316,533.9438727392919
317,533.9597986837667
318,533.9770509371848
319,533.9956177044513
320,534.0154820084226
321,534.0366217409949
322,534.0590097433917
323,534.0826139181365
324,534.1073973750069
325,534.1333186124583
326,534.1603317348576
327,534.1883867046936
328,534.2174296279164
329,534.2474030698825
330,534.2782463992728
331,534.3098961577087
332,534.3422864529765
333,534.3753493732853
334,534.4090154190329
335,534.4432139476748
336,534.4778736267431
337,534.5129228898288
338,534.5482903904174
339,534.5839054488415
340,534.6196984881404
341,534.6556014551002
342,534.6915482232494
343,534.7274749751892
344,534.7633205622703
345,534.7990268400991
346,534.8345389784565
347,534.8698057438891
348,534.9047797527999
349,534.939417692815
350,534.9736805107954
351,535.0075335669297
352,535.0409467554638
353,535.0738945934138
354,535.1063562789191
355,535.1383157208443
356,535.1697615412365
357,535.2006870525009
358,535.2310902115387
359,535.2609735532114
360,535.2903441051797
361,535.3192132855835
362,535.3475967844327
363,535.3755144290633
364,535.40299003362
365,535.430051232255
366,535.4567292956831
367,535.4830589310421
368,535.5090780657379
369,535.534827616855
370,535.5603512482863
371,535.585695117571
372,535.6109076136083
373,535.6360390855358
374,535.6611415627814
375,535.6862684666864
376,535.7114743146846
377,535.7368144185014
378,535.7623445783343
379,535.7881207755736
380,535.8141988671036
381,535.8406342843841
382,535.8674817405902
383,535.8947949494269
384,535.9226263596884
385,535.951026909609
386,535.9800458041658
387,536.0097303168252
388,536.0401256152423
389,536.0712746085645
390,536.1032178125766
391,536.1359932280941
392,536.1696362277793
393,536.204179446877
394,536.239652674124
395,536.2760827402012
396,536.3134934025087
397,536.351905226716
398,536.3913354672496
399,536.4317979501835
400,536.4733029625669
401,536.5158571521923
402,536.5594634415149
403,536.6041209589746
404,536.6498249901514
405,536.6965669499339
406,536.7443343755779
407,536.7931109397182
408,536.842876482233
409,536.8936070600513
410,536.9452750141116
411,536.9978490525338
412,537.0512943487763
413,537.105572653396
414,537.1606424180953
415,537.2164589308344
416,537.272974460732
417,537.330138411445
418,537.3878974819647
419,537.4461958343727
420,537.504975268875
421,537.5641754070055
422,537.6237338839724
423,537.6835865508954
424,537.7436676874632
425,537.803910225399
426,537.8642459829618
427,537.924605910549
428,537.9849203473168
429,538.0451192885905
430,538.1051326635957
431,538.1648906226274
432,538.2243238320777
433,538.2833637747494
434,538.3419430516448
435,538.3999956800579
436,538.457457381593
437,538.5142658531228
438,538.5703610140033
439,538.6256852240275
440,538.6801834682387
441,538.733803506432
442,538.7864959866613
443,538.838214523287
444,538.8889157411431
445,538.9385592884042
446,538.9871078215406
447,539.0345269661063
448,539.0807852568997
449,539.1258540603341
450,539.1697074808336
451,539.212322252171
452,539.2536776143174
453,539.2937551765446
454,539.3325387679123
455,539.3700142767822
456,539.406169481564
457,539.4409938752727
458,539.474478486356
459,539.5066156977527
460,539.5373990657258
461,539.5668231399658
462,539.5948832867408
463,539.6215755173785
464,539.6468963249878
465,539.6708425327544
466,539.6934111571437
467,539.7145992891373
468,539.7344039965498
469,539.7528222505672
470,539.7698508795953
471,539.7854865530585
472,539.7997257970263
473,539.8125650428561
474,539.8240007096335
475,539.8340293207729
476,539.8426476542096
477,539.8498529240576
478,539.855642989782
479,539.8600165873386
480,539.8629735756571
481,539.8645151914316
482,539.864644305316
483,539.8633656731243
484,539.8606861764247
485,539.8566150480771
486,539.8511640796855
487,539.8443478093133
488,539.836183688895
489,539.8266922314741
490,539.8158971386126
491,539.803825408124
492,539.7905074219872
493,539.7759770142314
494,539.7602715186936
495,539.7434317965801
496,539.72550224364
497,539.7065307765703
498,539.6865687981451
499,539.6656711405257
500,539.6438959862951
501,539.6213047668998
502,539.5979620382974
503,539.5739353336533
504,539.549294992874
505,539.5241139686866
506,539.4984676088615
507,539.4724334138918
508,539.4460907688879
509,539.4195206477453
510,539.3928052870821
511,539.3660278273703
512,539.3392719195082
513,539.3126212968837
514,539.286159315504
515,539.2599684673021
516,539.2341298736666
517,539.2087227673999
518,539.183823971775
519,539.1595073852122
520,539.1358434793283
521,539.1128988167914
522,539.090735593675
523,539.0694112091843
524,539.0489778641851
525,539.0294821892498
526,539.0109649029313
527,538.9934605014629
528,538.9769969818152
529,538.9615956007983
530,538.9472706735104
531,538.934029414754
532,538.9218718270647
533,538.9107906387424
534,538.9007712947591
535,538.8917920026615
536,538.8838238347024
537,538.8768308866221
538,538.870770492932
539,538.8655934982131
540,538.8612445835691
541,538.8576626468404
542,538.8547812345874
543,538.8525290233158
544,538.8508303467714
545,538.8496057653297
546,538.8487726727998
547,538.8482459356054
548,538.847938559034
549,538.8477623747268
550,538.8476287428367
551,538.8474492616914
552,538.8471364775974
553,538.846604587527
554,538.8457701276684
555,538.8445526410273
556,538.8428753173577
557,538.8406655986612
558,538.8378557434879
559,538.834383343365
560,538.8301917849328
561,538.8252306518983
562,538.81945606198
563,538.8128309356998
564,538.805325195818
565,538.796915897862
566,538.7875872933522
567,538.777330828119
568,538.7661450788029
569,538.7540356313449
570,538.7410149060133
571,538.7271019341711
572,538.7123220924607
573,538.6967068002039
574,538.6802931854786
575,538.6631237246593
576,538.6452458594339
577,538.6267115946424
578,538.6075770797679
579,538.5879021766025
580,538.567750015623
581,538.5471865439031
582,538.5262800675276
583,538.5051007910422
584,538.4837203555883
585,538.4622113765719
586,538.4406469812975
587,538.4191003469879
588,538.39764423997
589,538.3763505575118
590,538.3552898746215
591,538.3345309987687
592,538.3141405358874
593,538.2941824713031
594,538.2747177695123
595,538.2558039969239
596,538.23749497161
597,538.2198404437379
598,538.2028858097175
599,538.186671862291
600,538.171234577867
601,538.1566049414861
602,538.1428088090997
603,538.1298668064734
604,538.1177942639647
605,538.1066011866383
606,538.0962922593944
607,538.0868668865982
608,538.0783192648021
609,538.0706384858241
610,538.0638086663475
611,538.0578090999275
612,538.05261442785
613,538.0481948263066
614,538.0445162083275
615,538.0415404395061
616,538.039225566664
617,538.0375260584366
618,538.0363930565344
619,538.0357746363228
620,538.0356160753375
621,538.0358601283697
622,538.036447307914
623,538.0373161690729
624,538.0384035982194
625,538.0396451047865
626,538.0409751156885
627,538.0423272721905
628,538.043634729318
629,538.0448304579922
630,538.0458475500217
631,538.0466195258338
632,538.0470806442457
633,538.0471662127939
634,538.0468128966838
635,538.0459590246512
636,538.0445448906592
637,538.0425130508621
638,538.0398086153791
639,538.0363795342819
640,538.0321768771286
641,538.0271551055858
642,538.0212723389986
643,538.0144906127372
644,538.0067761286577
645,537.9980994963958
646,537.9884359637504
647,537.9777656341171
648,537.9660736686227
649,537.9533504701619
650,537.9395918458628
651,537.9247991437389
652,537.9089793586265
653,537.8921452021401
654,537.8743151315374
655,537.8555133331843
656,537.8357696576397
657,537.8151195048472
658,537.7936036590754
659,537.7712680739547
660,537.7481636084574
661,537.7243457154411
662,537.6998740856535
663,537.6748122516472
664,537.6492271572741
665,537.623188698869
666,537.5967692441055
667,537.5700431344121
668,537.5430861770081
669,537.5159751328744
670,537.488787206966
671,537.4615995466828
672,537.4344887540763
673,537.4075304165008
674,537.3807986593283
675,537.354365722985
676,537.328301565265
677,537.3026734891821
678,537.2775457968123
679,537.252979470272
680,537.2290318814983
681,537.2057565324815
682,537.1832028270638
683,537.1614158745754
684,537.1404363247469
685,537.1203002329647
686,537.1010389551739
687,537.0826790722604
688,537.0652423440222
689,537.0487456926718
690,537.0332012154449
691,537.0186162256666
692,537.0049933215862
693,536.9923304822469
694,536.9806211895427
695,536.969854575644
696,536.9600155952056
697,536.9510852219001
698,536.9430406684219
699,536.9358556281597
700,536.9295005357504
701,536.92394284335
702,536.9191473098409
703,536.9150763008623
704,536.9116900980262
705,536.9089472158707
706,536.9068047251643
707,536.9052185812003
708,536.9041439556406
709,536.9035355700813
710,536.9033480288653
711,536.9035361480585
712,536.9040552772321
713,536.9048616106306
714,536.9059124841723
715,536.9071666545796
716,536.9085845572297
717,536.9101285402807
718,536.9117630739044
719,536.9134549344286
720,536.9151733635615
721,536.9168902027649
722,536.9185800025343
723,536.920220106055
724,536.9217907065679
725,536.9232748778234
726,536.9246585770853
727,536.9259306201366
728,536.9270826277842
729,536.9281089438101
730,536.9290065251671
731,536.9297748060823
732,536.9304155382649
733,536.9309326097847
734,536.931331845709
735,536.9316207942912
736,536.9318085030542
737,536.9319052892318
738,536.9319225086821
739,536.9318723267479
740,536.9317674938729
741,536.9316211282604
742,536.9314465076329
743,536.9312568722427
744,536.931065241563
745,536.9308842472435
746,536.9307259846898
747,536.9306018850917
748,536.9305226092418
749,536.9304979644061
750,536.9305368456348
751,536.9306472026798
752,536.9308360328401
753,536.9311093989754
754,536.9314724710316
755,536.9319295887187
756,536.9324843421962
757,536.933139666826
758,536.9338979476067
759,536.9347611290523
760,536.9357308269238
761,536.9368084389215
762,536.9379952519199
763,536.9392925437253
764,536.9407016779476
765,536.942224191322
766,536.9438618733515
767,536.945616838275
768,536.9474915891899
769,536.9494890739786
770,536.9516127328318
771,536.9538665375981
772,536.9562550235056
773,536.9587833135547
774,536.9614571351316
775,536.9642828276803
776,536.9672673400465
777,536.9704182163015
778,536.9737435690427
779,536.9772520390894
780,536.9809527403452
781,536.9848551886945
782,536.9889692142226
783,536.9933048565459
784,536.997872243453
785,537.0026814535604
786,537.0077423646858
787,537.0130644911134
788,537.0186568141485
789,537.0245276105699
790,537.0306842829185
791,537.0371331948533
792,537.0438795145835
793,537.0509270693327
794,537.0582782133079
795,537.0659337106905
796,537.0738926341559
797,537.0821522787716
798,537.0907080909018
799,537.0995536118347
800,537.1086804361829
801,537.1180781856295
802,537.1277344992129
803,537.1376350418893
804,537.1477635333081
805,537.1581017983019
806,537.1686298395587
807,537.1793259317028
808,537.1901667349686
809,537.2011274259156
810,537.2121818422062
811,537.2233026383888
812,537.2344614498606
813,537.2456290624801
814,537.2567755855612
815,537.2678706263885
816,537.2788834650547
817,537.2897832290712
818,537.3005390673121
819,537.3111203222237
820,537.3214966982524
821,537.3316384237759
822,537.3415164037355
823,537.3511023604295
824,537.3603689602728
825,537.3692899248812
826,537.377840125827
827,537.3859956636642
828,537.3937339329013
829,537.4010336752873
830,537.4078750241678
831,537.414239542939
832,537.4201102607424
833,537.4254717084234
834,537.4303099573598
835,537.4346126631298
836,537.4383691153021
837,537.4415702940636
838,537.4442089340538
839,537.4462795956289
840,537.4477787437868
841,537.4487048350147
842,537.4490584120788
843,537.4488422060637
844,537.448061244024
845,537.446722959864
846,537.4448373055438
847,537.4424168590505
848,537.4394769246983
849,537.4360356206407
850,537.432113948302
851,537.4277358386005
852,537.42292817005
853,537.4177207541611
854,537.4121462843776
855,537.406240246269
856,537.4000407886228
857,537.3935885569671
858,537.3869264925903
859,537.3800996012494
860,537.3731546964109
861,537.3661401220129
862,537.3591054594989
863,537.3521012234905
864,537.3451785500293
865,537.3383888808572
866,537.3317836469411
867,537.3254139546152
868,537.3193302782677
869,537.3135821641597
870,537.3082179503626
871,537.3032845076618
872,537.2988270056971
873,537.2948887079289
874,537.2915107984477
875,537.2887322430458
876,537.2865896861662
877,537.2851173846017
878,537.2843471784747
879,537.2843084999084
880,537.2850284194284
881,537.2865317293667
882,537.2888410625773
883,537.2919770438605
884,537.2959584708799
885,537.3008025210424
886,537.3065249805846
887,537.3131404918136
888,537.3206628142474
889,537.3291050953256
890,537.3384801461706
891,537.3488007173816
892,537.3600797691945
893,537.3723307299312
894,537.3855677367944
895,537.3998058537278
896,537.4150612619783
897,537.431351419885
898,537.4486951890923
899,537.4671129249191
900,537.4866265292085
901,537.5072594647751
902,537.5290367314956
903,537.551984804945
904,537.5761315390462
905,537.601506034426
906,537.6281384742742
907,537.6560599296184
908,537.6853021361046
909,537.7158972447653
910,537.7478775501108
911,537.7812752000211
912,537.8161218928706
913,537.8524485677281
914,537.8902850932546
915,537.92965996018
916,537.970599981351
917,538.0131300028745
