acceleration,velocity,displacement
-0.03466341266598029,0.0,0.0
-0.03504294210894206,-1.7426588693730586e-05,-4.356647173432647e-09
-0.03540514910425369,-3.5038611497029525e-05,-1.7472947221122676e-08
-0.03575119033920585,-5.282769635789441e-05,-3.943952418485366e-08
-0.036082250814365106,-7.078605664628714e-05,-7.034296243589904e-08
-0.03639952922516146,-8.890650165616879e-05,-1.1026610201151302e-07
-0.03670424148594589,-0.00010718244433394563,-1.5928833850904163e-07
-0.03699763659998821,-0.00012560791385542915,-2.174859280563853e-07
-0.03728101584677427,-0.00014417757696711978,-2.8493230076202253e-07
-0.0375557455143618,-0.00016288676730740378,-3.6169838683065343e-07
-0.037823255337552736,-0.00018173151752038242,-4.478529580376e-07
-0.03808501833209287,-0.00020070858593779383,-5.434629839021441e-07
-0.03834251148546827,-0.0002198154683921841,-6.485939974846386e-07
-0.03859716021600297,-0.00023905038631755193,-7.633104611620727e-07
-0.038850272721521924,-0.00025841224455193314,-8.87676118879444e-07
-0.03910297280018747,-0.0002779005559323605,-1.0217543190005174e-06
-0.03935614009721435,-0.00029751533415671097,-1.1656082915227854e-06
-0.03961036426051513,-0.0003172569602461433,-1.3193013651234989e-06
-0.039865915155396545,-0.0003371260301001212,-1.482897112710065e-06
-0.04012272713395153,-0.0003571231906724582,-1.65645941790321e-06
-0.040380392977074436,-0.0003772489707002147,-1.8400524582463783e-06
-0.04063816288637476,-0.000397503609666077,-2.033740603337951e-06
-0.04089494501026307,-0.00041788688664023645,-2.2375882274145296e-06
-0.04114930514439157,-0.0004383979491789001,-2.4516594363693136e-06
-0.041399463616217755,-0.0004590351413690525,-2.6760177090063016e-06
-0.041643287205536034,-0.0004797958290744909,-2.910725451617187e-06
-0.04187827439843973,-0.0005006762194754848,-3.155843463754681e-06
-0.042101534375508516,-0.0005216711716689718,-3.4114303115407954e-06
-0.04230976378084273,-0.0005427739962080596,-3.6775416035100534e-06
-0.04249922910573538,-0.0005639762444297041,-3.954229163669494e-06
-0.04266576491168657,-0.0005852674929340596,-4.241540098010435e-06
-0.04280479835257532,-0.000606635133750125,-4.539515754681481e-06
-0.042911408399458645,-0.0006280641854381335,-4.848190584478546e-06
-0.04298042416303341,-0.0006495371435787565,-5.167590916732768e-06
-0.04300656187483805,-0.0006710338900882243,-5.497733675149513e-06
-0.04298459601283167,-0.0006925316795601417,-5.838625067561605e-06
-0.04290955738731617,-0.0007140052179101787,-6.190259291929185e-06
-0.04277694869863808,-0.0007354268444316672,-6.552617307514646e-06
-0.04258296502020091,-0.000756766822861377,-6.925665724337907e-06
-0.042324703804093054,-0.0007779937400674505,-7.309355865070114e-06
-0.042000348605355335,-0.0007990750031698126,-7.70362305087943e-06
-0.041609313455510305,-0.000819977418685029,-8.10838615634314e-06
-0.041152339058267255,-0.0008406678318134734,-8.523547468967764e-06
-0.04063153599265964,-0.0008611138005762051,-8.948992877065185e-06
-0.04005037368469794,-0.0008812842779955445,-9.384592396708123e-06
-0.039413617534189725,-0.0009011502758002664,-9.830201035157075e-06
-0.038727220196009916,-0.0009206854852328162,-1.0285659975415346e-05
-0.03799817604368582,-0.0009398668342927402,-1.0750798055296735e-05
-0.03723434964496013,-0.0009586749657149017,-1.1225433505298646e-05
-0.03644428918927388,-0.0009770946254234602,-1.1709375903083237e-05
-0.03563703411130621,-0.000995114956248605,-1.2202428298501253e-05
-0.03482192286525858,-0.0010127296954927463,-1.2704389461436592e-05
-0.03400840279806109,-0.0010299372769085762,-1.3215056204536923e-05
-0.03320584116748209,-0.001046740837899962,-1.3734225733239058e-05
-0.032423336056917156,-0.001063148132206062,-1.4261697975765565e-05
-0.031669527894927524,-0.0010791713481940232,-1.4797277845865585e-05
-0.03095241471427932,-0.0010948268338463248,-1.534077739137567e-05
-0.030279175630327154,-0.0011101347314324765,-1.589201778269537e-05
-0.029656007211627134,-0.001125118527142965,-1.645083109733923e-05
-0.02908797781385336,-0.001139804523399335,-1.7017061859974804e-05
-0.02857890639321089,-0.001154221244451101,-1.7590568301937413e-05
-0.02813127353630603,-0.0011683987894334804,-1.817122331040856e-05
-0.027746171577284828,-0.0011823681507118781,-1.87589150454449e-05
-0.02742329775137692,-0.0011961605180440436,-1.9353547212633878e-05
-0.02716099108270733,-0.0012098065902525646,-1.995503898970803e-05
-0.026956311269630228,-0.001223335915840649,-2.0563324616231332e-05
-0.026805155552656303,-0.0012367762825462208,-2.117835266582805e-05
-0.026702406330272446,-0.001250153173016953,-2.1800085029718843e-05
-0.02664209883129589,-0.001263489299307345,-2.2428495647799916e-05
-0.026617596816975828,-0.0012768042232194129,-2.3063569028431605e-05
-0.026621766312992085,-0.0012901140640019049,-2.3705298600236934e-05
-0.026647141237699203,-0.0013034312908895777,-2.4353684938959807e-05
-0.026686078044310675,-0.0013167645957100802,-2.5008733910609723e-05
-0.026730898405740312,-0.001330118839822593,-2.567045476949289e-05
-0.026774020404859388,-0.0013434950695252429,-2.6338858246829847e-05
-0.026808080102789778,-0.0013568905946521551,-2.7013954662874198e-05
-0.026826046299990868,-0.0013702991262528504,-2.769575209310045e-05
-0.02682133146101905,-0.0013837109706931027,-2.8384254617336937e-05
-0.026787901171788194,-0.0013971132788513046,-2.9079460679723038e-05
-0.0267203830343289,-0.0014104903499028338,-2.978136158691157e-05
-0.026614173647396183,-0.0014238239890732652,-3.0489940171655594e-05
-0.02646554017347044,-0.0014370939175284818,-3.1205169648306034e-05
-0.026271712164687173,-0.0014502782306130212,-3.192701268534141e-05
-0.026030959864364597,-0.0014633538986202842,-3.2655420717649736e-05
-0.025742655898740426,-0.0014762973025610605,-3.339033351794507e-05
-0.025407317261635434,-0.0014890847958511544,-3.4131679042548125e-05
-0.025026623922220836,-0.0015016932811471185,-3.4879373561797695e-05
-0.02460340952857052,-0.0015141007895098165,-3.5633322079461926e-05
-0.0241416188175919,-0.001526287046596357,-3.639341903848847e-05
-0.023646226373292042,-0.001538234007894078,-3.7159549302111075e-05
-0.023123113334741846,-0.0015499263428210865,-3.793158938978987e-05
-0.022578902660601,-0.0015613518468199222,-3.870940893720012e-05
-0.02202075858133391,-0.001572501762130406,-3.9492872339437706e-05
-0.02145616011618362,-0.0015833709918047852,-4.0281840527921505e-05
-0.020892660339544573,-0.0015939581969187171,-4.107617282510238e-05
-0.020337642310512234,-0.0016042657725812313,-4.1875728817477365e-05
-0.019798080630097036,-0.0016142997033163837,-4.268037018645177e-05
-0.019280315601466893,-0.0016240693023742746,-4.3489962437874436e-05
-0.018789845007709877,-0.0016335868425265687,-4.4304376474099645e-05
-0.01833113678074697,-0.001642867087973683,-4.512348995672471e-05
-0.017907465294260176,-0.0016519267384924347,-4.5947188413341236e-05
-0.017520775368561496,-0.0016607837986581402,-4.677536604762888e-05
-0.01717158059623816,-0.00166945688764934,-4.760792621920575e-05
-0.016858904501306834,-0.0016779645089237262,-4.844478156834902e-05
-0.01658027304615391,-0.0016863243033105914,-4.9285853771407596e-05
-0.016331765090771114,-0.0016945523128448227,-5.013107292544645e-05
-0.016108123961819928,-0.0017026622851079704,-5.098037657493465e-05
-0.01590292845151562,-0.0017106650482113042,-5.1833708408264466e-05
-0.015708816039073013,-0.0017185679843339514,-5.269101666640078e-05
-0.015517746400334296,-0.0017263746249438032,-5.355225231872022e-05
-0.015321290592276302,-0.001734084384191956,-5.441736707100416e-05
-0.015110930983963745,-0.001741692439586016,-5.5286311276948653e-05
-0.014878358522354458,-0.0017491897619625956,-5.6159031827335806e-05
-0.014615756296761385,-0.0017565632906673745,-5.70354700904933e-05
-0.014316060919281502,-0.0017637962449713852,-5.7915559974402985e-05
-0.013973195858820805,-0.0017708685591659107,-5.879922617543731e-05
-0.013582273258963475,-0.0017777574264453567,-5.968638267184013e-05
-0.013139762098731326,-0.0017844379352847804,-6.057693151227266e-05
-0.012643620381593947,-0.0017908837809048617,-6.147076194132008e-05
-0.01209338807899836,-0.0017970680330200097,-6.236774989480129e-05
-0.01149023704365215,-0.0018029639393006723,-6.326775788788146e-05
-0.010836974593126084,-0.0018085457422098669,-6.417063530825909e-05
-0.01013799851902177,-0.001813789485487904,-6.507621911518353e-05
-0.009399202415256262,-0.0018186737857214734,-6.598433493298587e-05
-0.00862783163510292,-0.0018231805442340632,-6.689479851547476e-05
-0.00783229221560256,-0.0018272955751967395,-6.780741754533245e-05
-0.007021917575340813,-0.0018310091276444753,-6.872199372104276e-05
-0.00620670040519138,-0.0018343162821396082,-6.963832507348878e-05
-0.005396999942108464,-0.0018372172072264332,-7.055620844583029e-05
-0.004603237623229467,-0.0018397172666177676,-7.147544206429134e-05
-0.0038355960518414497,-0.0018418269750365354,-7.239582812470492e-05
-0.003103735766740153,-0.0018435618079911808,-7.331717532046185e-05
-0.0024165409505064283,-0.0018449418771704924,-7.423930124175226e-05
-0.0017819005306706534,-0.0018459914875407866,-7.516203458293009e-05
-0.0012065273733803223,-0.0018467385945167994,-7.608521710344449e-05
-0.0006958160453499528,-0.0018472141803714819,-7.700870529716655e-05
-0.00025373815762678867,-0.0018474515689222261,-7.793237173448998e-05
0.00011722671578848829,-0.0018474856967826856,-7.885610605091621e-05
0.000416126718638882,-0.0018473523584240789,-7.97798155647179e-05
0.0006435412705322557,-0.001847087441426786,-8.070342551468062e-05
0.0008015521474400829,-0.001846726168072293,-8.16268789170554e-05
0.000893680015473193,-0.0018463023600315646,-8.255013604908136e-05
0.0009247834466084912,-0.0018458477441660442,-8.347317357513075e-05
0.0009009183126211923,-0.0018453913187262369,-8.439598334085382e-05
0.0008291584057235975,-0.0018449587995466507,-8.531857087042205e-05
0.0007173820565367923,-0.0018445721644310856,-8.624095361141648e-05
0.0005740325911556415,-0.0018442493107691624,-8.716315898021654e-05
0.0004078621774006654,-0.0018440038370770232,-8.808522226717809e-05
0.00022766995753284688,-0.0018438449540432898,-8.900718446495817e-05
4.204663307360972e-05,-0.0018437775248956382,-8.99290900846929e-05
-0.000140862504840766,-0.00184380222886358,-9.085098502313271e-05
-0.0003135667522032308,-0.0018439158361778412,-9.177291453939306e-05
-0.0004694062444320783,-0.001844111579427,-9.269492139329427e-05
-0.0006026940939974947,-0.0018443796045116074,-9.361704418927891e-05
-0.000708825598452725,-0.0018447074844347199,-9.45393159615155e-05
-0.0007843559031064925,-0.0018450807798101097,-9.54617630275767e-05
-0.0008270457881482948,-0.0018454836302329233,-9.638440413008746e-05
-0.0008358733385312128,-0.0018458993600145932,-9.730724987764934e-05
-0.0008110091453610751,-0.0018463110806355664,-9.823030248781188e-05
-0.0007537545661639325,-0.0018467022715634477,-9.915355582586163e-05
-0.0006664451254344667,-0.0018470573214863473,-0.00010007699572412408
-0.0005523235522583362,-0.0018473620136557705,-0.00010100060055790961
-0.00041538917124905926,-0.0018476039418366473,-0.00010192434204678271
-0.00026023197149981173,-0.0018477728471223344,-0.00010284818624402246
-9.186001666103073e-05,-0.0018478608701193746,-0.00010377209467333289
8.447207575954294e-05,-0.0018478627171046,-0.00010469602557013888
0.0002634275066578513,-0.0018477757422089955,-0.00010561993518496727
0.0004397403089296207,-0.0018475999502550987,-0.00010654377910808329
0.0006083545613988267,-0.0018473379265375165,-0.00010746751357728144
0.0007645487004828662,-0.0018469947007220462,-0.00010839109673409633
0.0009040444138921099,-0.0018465775524434524,-0.00010931448979738771
0.0010230994294459102,-0.001846095766482618,-0.00011023765812711923
0.0011185830488547176,-0.0018455603458630428,-0.00011116057215520565
0.001188033035943507,-0.0018449836918418433,-0.00011208320816463187
0.0012296926174089073,-0.001844379260428505,-0.00011300554890269946
0.0012425269315520853,-0.0018437612055412647,-0.0001139275840191919
0.0012262193776990322,-0.001843144018963952,-0.0001148493103253182
0.0011811499705103139,-0.0018425421766268997,-0.00011577073187421592
0.0011083597958905143,-0.0018419697991852995,-0.00011669185986816898
0.0010095076933237018,-0.0018414403323129959,-0.00011761271240104355
0.0008868267142631461,-0.0018409662487110991,-0.00011853331404629957
0.0007430874519661903,-0.0018405587701695418,-0.00011945369530101973
0.000581571848602867,-0.0018402276053443994,-0.00012037389189489822
0.00040605534037678036,-0.0018399806985471545,-0.00012129394397087111
0.0002207901793172528,-0.001839823987167231,-0.0001222138951422997
3.048115660910712e-05,-0.0018397611693332493,-0.0001231337914314248
-0.0001597530019786412,-0.0018397934872945918,-0.00012405368009558177
-0.0003444352087786936,-0.001839919534347281,-0.00012497360835099223
-0.0005178009066819716,-0.0018401350933761461,-0.00012589362200792308
-0.000673879376947805,-0.0018404330134470536,-0.0001268137640346289
-0.0008065789598311265,-0.0018408031280312484,-0.00012773407306999846
-0.0009097700642148567,-0.00184123221528726,-0.0001286545819058281
-0.0009773621287107273,-0.0018417039983354914,-0.00012957531595923378
-0.001003374057405277,-0.0018421991823820204,-0.00013049629175441316
-0.0009820007397359283,-0.0018426955260813058,-0.000131417515431529
-0.0009076799848245679,-0.001843167946262446,-0.00013233898129961494
-0.0007751642062156562,-0.001843588657310206,-0.0001332606704505081
-0.0005795999302442446,-0.001843927348344321,-0.00013418254945192173
-0.0003166164760781612,-0.0018441514024459017,-0.0001351045691396193
1.757647857637589e-05,-0.001844226162445277,-0.0001360266635308421
0.0004260837603030081,-0.0018441152473855573,-0.0001369487488832998
0.000911212966697123,-0.0018437809232038072,-0.00013787072292594714
0.0014743556966528126,-0.0018431845310379698,-0.00013879246428950758
0.002115861136495065,-0.0018422869768296827,-0.0001397138321664745
0.002834904526591678,-0.001841049285413911,-0.0001406346662320354
0.0036293582400152187,-0.0018394332197222594,-0.00014155478685831945
0.004495677164676528,-0.0018374019608710865,-0.0001424739956534678
0.005428811202782303,-0.0018349208387792217,-0.00014339207635338038
0.006422156987006583,-0.0018319580967317746,-0.00014430879608725813
0.00746755945545108,-0.00182848566762116,-0.00014522390702834635
0.008555371506506067,-0.0018244799348806709,-0.00014613714842897182
0.009674576152654532,-0.0018199224479658806,-0.00014704824902468346
0.010812970827521945,-0.0018148005612208364,-0.00014795692977698013
0.011957408558033655,-0.0018091079663744476,-0.00014886290690887895
0.013094086113900482,-0.001802845092706464,-0.00014976589517364918
0.014208865519610248,-0.0017960193547980864,-0.0001506656112855253
0.015287613361937253,-0.0017886452350776994,-0.00015156177743299426
0.016316542947932926,-0.0017807441960002318,-0.00015245412479076374
0.017282547416221622,-0.0017723444234091933,-0.0001533423969456161
0.018173516091573024,-0.0017634804075322445,-0.00015422635315335146
0.018978630011654958,-0.0017541923710064375,-0.00015510577134798613
0.019688634425724702,-0.0017445255548970925,-0.000155980450829462
0.020296085633451314,-0.0017345293748822984,-0.00015685021456190686
0.020795566934267824,-0.0017242564617403686,-0.00015771491102106253
0.021183864785012982,-0.0017137616038105483,-0.00015857441553745026
0.021460093427855806,-0.0017031006142573311,-0.00015942863109196724
0.02162575597149807,-0.0016923291519074927,-0.00016027748853350844
0.02168473274319017,-0.0016815015297288207,-0.00016112094620391752
0.02164319286654713,-0.0016706695483263863,-0.00016195898897343133
0.02150943085797898,-0.0016598813923952547,-0.00016279162670861173
0.021293635239109043,-0.0016491806258709827,-0.0001636188922131783
0.021007600247346818,-0.0016386053169993688,-0.0001644408386988959
0.020664394658563578,-0.0016281873182728912,-0.00016525753685771394
0.020278003503207763,-0.0016179517187324484,-0.00016606907161696529
0.019862959064656915,-0.0016079164780904822,-0.00016687553866617103
0.019433976843333027,-0.0015980922441134846,-0.00016767704084672203
0.019005609787739033,-0.0015884823474557165,-0.00016847368449461432
0.01859193028291349,-0.0015790829624380534,-0.00016926557582208775
0.018206245613840932,-0.0015698834184638647,-0.00017005281741731324
0.017860850316585224,-0.0015608666444812582,-0.00017083550493304951
0.017566817565174957,-0.0015520097275108181,-0.00017161372402604754
0.01733382982343845,-0.0015432845656636648,-0.00017238754759934117
0.017170046185096956,-0.0015346585966615309,-0.00017315703338992248
0.017082002157267077,-0.0015260955845759398,-0.00017392222193523185
0.017074538647040956,-0.0015175564493748628,-0.00017468313494371955
0.017150759371803628,-0.0015090001248701517,-0.0001754397740872808
0.017312017421576335,-0.0015003844306718066,-0.00017619212022616627
0.017557931446031096,-0.0014916669434549047,-0.00017694013306969794
0.017886430929801876,-0.0014828058528609464,-0.0001776837512687769
0.018293829301111366,-0.001473760787803218,-0.00017842289292894296
0.018774923313020195,-0.001464493599649685,-0.0001791574565258062
0.019323116877983652,-0.0014549690896019341,-0.0001798873221981191
0.01993056700896697,-0.0014451556686301964,-0.0001806123533876771
0.020588348747654424,-0.001435025939691041,-0.00018133239878975743
0.02128663536779321,-0.001424557193662179,-0.00018204729457309575
0.022014890135554296,-0.0014137318122863422,-0.00018275686682458288
0.022762066608487702,-0.0014025375731003317,-0.00018346093417092956
0.023516815808637657,-0.0013909678524960502,-0.00018415931052732866
0.02426770006394629,-0.0013790217235279043,-0.00018485180792133466
0.025003413669832525,-0.0013667039450944597,-0.00018553823933849025
0.025713009083508286,-0.0013540248394061244,-0.0001862184215346154
0.026386125028107693,-0.0013410000558782204,-0.0001868921777584365
0.02701321122301375,-0.00132765022181544,-0.0001875593403278599
0.02758574395376097,-0.0013140004830212463,-0.00018821975300406906
0.02809642659126169,-0.0013000799403849906,-0.00018887327310992063
0.02853936867667261,-0.001285920991568007,-0.0001895197733429089
0.028910236208490096,-0.0012715585903467163,-0.00019015914323838756
0.02920636485621535,-0.00125702944008054,-0.00019079129024599436
0.029426827943286493,-0.0012423711418806645,-0.00019141614039148468
0.029572452835219164,-0.001227621321686038,-0.00019203363850737635
0.029645782246354235,-0.0012128167629156445,-0.00019264374802852678
0.029650979577279357,-0.0011979925724597362,-0.00019324645036237063
0.029593679295752788,-0.0011831814077414781,-0.00019384174385742093
0.029480785607811488,-0.001168412791515587,-0.00019442964240723521
0.029320226143985932,-0.0011537125385776377,-0.00019501017373975852
0.029120671362405263,-0.0011391023142010399,-0.00019558337745295318
0.028891232992530165,-0.001124599338112306,-0.00019614930286603152
0.028641155210508862,-0.0011102162410615462,-0.000196708006760825
0.028379511167299705,-0.001095961074467094,-0.00019725955108970716
0.028114915884801337,-0.0010818374677040688,-0.00019780400072524996
0.027855264318272555,-0.0010678449226533004,-0.0001983414213228393
0.02760750094676438,-0.0010539792313370411,-0.0001988718773613369
0.02737742628417139,-0.0010402329995293073,-0.00019939543041905348
0.02716954694074981,-0.0010265962562230769,-0.00019991213773299158
0.026986977149300345,-0.0010130571252005643,-0.00020042205107834748
0.02683139801806431,-0.000999602531408723,-0.0002009252159924998
0.02670307597584353,-0.0009862189129102462,-0.00020142167135357955
0.026600936591207845,-0.0009728929097684834,-0.00020191144930924924
0.026522686335021445,-0.000959612004036926,-0.0002023945755377006
0.026464972621834098,-0.0009463650892977121,-0.00020287106981103424
0.02642357064886967,-0.0009331429534800362,-0.00020334094682172867
0.0263935845645801,-0.0009199386646766738,-0.00020380421722626785
0.026369651334065526,-0.0009067478557020124,-0.0002042608888563625
0.02634613821848741,-0.0008935689083138742,-0.00020471096804736648
0.026317327867337235,-0.000880403041792418,-0.00020515446103489305
