frame_number,force
0,713.1203849466405
1,713.0893812884028
2,713.0589779454548
3,713.0291748758272
4,712.9999777989984
5,712.9713983201989
6,712.9434539534881
7,712.9161680562319
8,712.8895696962246
9,712.8636934749212
10,712.8385793255712
11,712.8142722962991
12,712.7908223188753
13,712.7682839555333
14,712.7467161085003
15,712.7261816712306
16,712.706747100163
17,712.6884818930902
18,712.6714579723883
19,712.6557489830749
20,712.6414295227701
21,712.628574322179
22,712.6172573927247
23,712.6075511558043
24,712.5995255679721
25,712.5932472574733
26,712.5887786870073
27,712.5861773526175
28,712.5854950194766
29,712.5867769856864
30,712.5900613590228
31,712.5953783308054
32,712.6027494360791
33,712.612186799195
34,712.6236923757116
35,712.6372572112042
36,712.6528607433733
37,712.670470178508
38,712.6900399798135
39,712.7115115108787
40,712.7348128768158
41,712.7598589965861
42,712.7865519270274
43,712.8147814466554
44,712.8444258960187
45,712.8753532600061
46,712.9074224662493
47,712.9404848641592
48,712.9743858428876
49,713.0089665448639
50,713.044065634859
51,713.0795210922341
52,713.1151720038972
53,713.1508603427795
54,713.1864327174654
55,713.2217420738859
56,713.256649324351
57,713.291024876676
58,713.3247500369206
59,713.3577182597395
60,713.3898362183403
61,713.4210246648058
62,713.4512190558943
63,713.4803699292415
64,713.5084430256263
65,713.5354191615907
66,713.5612938649028
67,713.586076795925
68,713.6097909890196
69,713.6324719535244
70,713.6541666702757
71,713.6749325110998
72,713.6948361014727
73,713.7139521425494
74,713.7323622057119
75,713.7501535094993
76,713.7674176864178
77,713.7842495465098
78,713.8007458456376
79,713.8170040694821
80,713.8331212491258
81,713.8491928284564
82,713.8653116043724
83,713.8815667578041
84,713.8980429900743
85,713.9148197774254
86,713.9319707562628
87,713.9495632521543
88,713.9676579661821
89,713.9863088305784
90,714.005563039035
91,714.0254612453755
92,714.0460379101468
93,714.0673217627915
94,714.0893363417725
95,714.1121005766929
96,714.1356293814567
97,714.1599342328843
98,714.1850237147361
99,714.2109040123013
100,714.2375793449926
101,714.2650523219129
102,714.2933241999953
103,714.3223950206518
104,714.3522636022099
105,714.3829273717382
106,714.4143820301567
107,714.4466210583441
108,714.4796350874584
109,714.5134111699307
110,714.5479319953201
111,714.583175096562
112,714.6191120884765
113,714.6557079742488
114,714.6929205487045
115,714.7306999198914
116,714.7689881635044
117,714.8077191202597
118,714.8468183456075
119,714.8862032223279
120,714.9257832464187
121,714.9654604938748
122,715.0051302716249
123,715.0446819513551
124,715.0839999797458
125,715.1229650519538
126,715.161455427485
127,715.1993483597253
128,715.2365216023283
129,715.2728549477463
130,715.3082317478195
131,715.3425403674232
132,715.3756755311375
133,715.407539535593
134,715.4380433106973
135,715.4671073197612
136,715.4946622935993
137,715.520649797774
138,715.5450226341784
139,715.5677450775135
140,715.5887929447284
141,715.6081534928018
142,715.6258251396306
143,715.6418170067145
144,715.6561482915348
145,715.6688474891047
146,715.6799514913262
147,715.6895045981707
148,715.6975574788869
149,715.7041661251444
150,715.7093908377041
151,715.7132952811581
152,715.7159456298796
153,715.717409817365
154,715.7177568940331
155,715.7170564968619
156,715.7153784373705
157,715.7127924179325
158,715.7093678851018
159,715.7051740220824
160,715.7002798741502
161,715.6947545928964
162,715.6886677778032
163,715.682089888
164,715.6750926948428
165,715.6677497472425
166,715.6601368250255
167,715.6523323597706
168,715.6444178067247
169,715.6364779546948
170,715.6286011624373
171,715.6208795099752
172,715.6134088526948
173,715.6062887663345
174,715.5996223724803
175,715.593516037019
176,715.5880789384358
177,715.5834225088274
178,715.5796597574955
179,715.5769044941776
180,715.5752704746365
181,715.5748704921327
182,715.5758154311821
183,715.5782132869509
184,715.5821681423787
185,715.5877790925881
186,715.5951391129657
187,715.6043338792376
188,715.6154405600935
189,715.6285266121944
190,715.6436486120858
191,715.6608511587823
192,715.6801658747528
193,715.7016105238836
194,715.725188256224
195,715.7508869837804
196,715.7786788902226
197,715.8085200789609
198,715.8403503665578
199,715.8740932304404
200,715.9096559200655
201,715.9469297371178
202,715.9857904837763
203,716.0260990746707
204,716.0677023132467
205,716.1104338437333
206,716.1541152971643
207,716.1985576498743
208,716.2435628082186
209,716.2889254268691
210,716.3344349593933
211,716.3798779278961
212,716.4250403844392
213,716.4697105228289
214,716.5136813865855
215,716.5567536088696
216,716.598738115228
217,716.6394587223158
218,716.6787545748681
219,716.7164823757842
220,716.7525183758268
221,716.7867600969341
222,716.8191277650504
223,716.8495654250127
224,716.8780417041629
225,716.9045501878953
226,716.9291093736933
227,716.9517621817423
228,716.9725750177203
229,716.9916364026273
230,717.0090552019561
231,717.0249585007975
232,717.0394891824463
233,717.0528032756432
234,717.0650671396945
235,717.0764545569284
236,717.0871437972713
237,717.0973147107934
238,717.1071458946764
239,717.1168119749175
240,717.1264810391004
241,717.1363122503458
242,717.1464536635259
243,717.1570402583037
244,717.1681922035716
245,717.1800133713205
246,717.1925901186479
247,717.2059903524816
248,717.2202628853427
249,717.235437084895
250,717.2515228155132
251,717.2685106657632
252,717.2863724507831
253,717.3050619731958
254,717.3245160215448
255,717.344655582436
256,717.3653872419417
257,717.3866047532833
258,717.408190749958
259,717.4300185831909
260,717.4519542580804
261,717.4738584363994
262,717.4955884698101
263,717.5170004264688
264,717.5379510746545
265,717.5582997870517
266,717.577910328369
267,717.5966524884667
268,717.6144035255595
269,717.6310493909641
270,717.6464857166934
271,717.6606185563386
272,717.6733648769855
273,717.684652808009
274,717.6944216637897
275,717.7026217697213
276,717.7092141294518
277,717.7141699737599
278,717.7174702299018
279,717.7191049470091
280,717.7190727079701
281,717.7173800522006
282,717.7140409312155
283,717.7090762218808
284,717.7025133250704
285,717.6943858724437
286,717.6847335506864
287,717.6736020377881
288,717.6610430354164
289,717.6471143744765
290,717.631880165068
291,717.6154109583723
292,717.5977838891605
293,717.5790827733528
294,717.5593981423459
295,717.5388272019528
296,717.5174737086326
297,717.4954477604098
298,717.4728655037828
299,717.449848758913
300,717.4265245638925
301,717.4030246372548
302,717.3794847560974
303,717.3560440438408
304,717.3328441581847
305,717.3100283693142
306,717.2877405220909
307,717.2661238837393
308,717.2453198893261
309,717.2254668072044
310,717.2066983513212
311,717.1891422674753
312,717.172918920365
313,717.1581399096846
314,717.1449067452659
315,717.1333096102711
316,717.1234262347435
317,717.1153208891991
318,717.1090434945467
319,717.1046288383544
320,717.1020958916174
321,717.1014472298917
322,717.1026685706427
323,717.1057284422656
324,717.1105780015143
325,717.1171510174586
326,717.1253640422912
327,717.1351167906564
328,717.146292746021
329,717.1587600030921
330,717.1723723427754
331,717.1869705263647
332,717.2023837914361
333,717.218431533122
334,717.2349251595742
335,717.2516701148406
336,717.2684680585352
337,717.2851191771765
338,717.3014245852077
339,717.3171887653559
340,717.332221999831
341,717.3463427490043
342,717.3593799369607
343,717.3711751038867
344,717.3815843862011
345,717.3904802876863
346,717.3977532087663
347,717.4033127072332
348,717.4070884722186
349,717.409031001289
350,717.4091119740323
351,717.4073243140081
352,717.4036819295899
353,717.3982191277133
354,717.390989701921
355,717.3820657039581
356,717.3715359158515
357,717.359504047764
358,717.3460866956045
359,717.3314111006764
360,717.315612760888
361,717.2988329469009
362,717.2812161751085
363,717.2629076848657
364,717.244050964328
365,717.2247853682551
366,717.2052438693263
367,717.1855509817923
368,717.1658208968908
369,717.1461558750204
370,717.126644943742
371,717.1073629440644
372,717.0883699476884
373,717.0697110413724
374,717.0514164509775
375,717.0335019630907
376,717.0159695969814
377,716.9988084815749
378,716.9819958976187
379,716.9654984500388
380,716.9492733373974
381,716.9332696859989
382,716.9174299172088
383,716.9016911167137
384,716.8859863725417
385,716.8702460465583
386,716.8543989454774
387,716.8383733647723
388,716.8220979920907
389,716.8055026724392
390,716.7885190501688
391,716.7710811092952
392,716.753125635484
393,716.7345926240739
394,716.7154256601318
395,716.695572296767
396,716.6749844547121
397,716.6536188594654
398,716.6314375234824
399,716.6084082714755
400,716.584505297571
401,716.5597097342956
402,716.5340102056274
403,716.5074033301332
404,716.4798941358096
405,716.4514963465948
406,716.4222325034019
407,716.3921338909621
408,716.3612402546484
409,716.329599306453
410,716.2972660343214
411,716.2643018425437
412,716.2307735616532
413,716.1967523725792
414,716.1623126896432
415,716.1275310400158
416,716.0924849658153
417,716.0572519632017
418,716.0219084651695
419,715.9865288737193
420,715.9511846504995
421,715.9159434788679
422,715.8808685138841
423,715.8460177411865
424,715.8114434694894
425,715.7771919809793
426,715.7433033575054
427,715.7098114894299
428,715.6767442608548
429,715.6441238919988
430,715.6119674089557
431,715.5802872052419
432,715.5490916595359
433,715.5183857780219
434,715.4881718345141
435,715.4584499859305
436,715.4292188458877
437,715.4004760047997
438,715.3722184882188
439,715.3444431455699
440,715.317146962351
441,715.290327294308
442,715.2639820324727
443,715.2381097196649
444,715.2127096470088
445,715.18778196
446,715.1633277984621
447,715.1393494866459
448,715.1158507807352
449,715.0928371707798
450,715.0703162233434
451,715.0482979429646
452,715.026795127462
453,715.0058236949692
454,714.9854029686534
455,714.9655559150019
456,714.9463093382534
457,714.9276940342118
458,714.9097449026485
459,714.8925010123424
460,714.8760056104861
461,714.860306071106
462,714.8454537833395
463,714.8315039845864
464,714.8185155419465
465,714.8065506782549
466,714.7956746297461
467,714.785955215565
468,714.7774622982968
469,714.7702671187071
470,714.7644414937178
471,714.7600568726557
472,714.7571832543106
473,714.7558879775137
474,714.7562344096916
475,714.7582805688606
476,714.7620777221694
477,714.7676690055948
478,714.7750881041135
479,714.784358021981
480,714.795489961647
481,714.8084823198309
482,714.8233198028801
483,714.8399726615902
484,714.8583960467961
485,714.8785294900362
486,714.9002965186168
487,714.9236044211501
488,714.9483441857241
489,714.9743906350999
490,715.00160278032
491,715.0298244070609
492,715.0588849007263
493,715.0886003097517
494,715.1187746436353
495,715.1492014014162
496,715.1796653246474
497,715.2099443653714
498,715.2398118552877
499,715.2690388570406
500,715.2973966708895
501,715.3246594614964
502,715.3506069649061
503,715.3750272370497
504,715.3977194086935
505,715.4184964127209
506,715.4371876460298
507,715.4536415213759
508,715.4677278569827
509,715.4793400472261
510,715.4883969589243
511,715.4948445047153
512,715.4986568553678
513,715.4998372650693
514,715.4984184975467
515,715.4944628546078
516,715.4880618180625
517,715.4793353183941
518,715.4684306417444
519,715.4555209858001
520,715.4408036769237
521,715.4244980643534
522,715.4068431125412
523,715.3880947203729
524,715.3685228045509
525,715.3484081913604
526,715.3280393665339
527,715.3077091391843
528,715.2877112832443
529,715.2683372246674
530,715.2498728399241
531,715.2325954210683
532,715.2167708491348
533,715.2026510038335
534,715.1904714245991
535,715.1804492285502
536,715.172781287274
537,715.1676426652953
538,715.1651853250092
539,715.1655371049148
540,715.1688009816163
541,715.1750546301773
542,715.1843502981998
543,715.1967150047275
544,715.2121510670952
545,715.2306369481969
546,715.2521284032608
547,715.2765598905196
548,715.3038461981786
549,715.3338842351109
550,715.3665549356676
551,715.4017252358796
552,715.4392500835183
553,715.47897444599
554,715.5207352805018
555,715.5643634337863
556,715.6096854444255
557,715.6565252277618
558,715.7047056302875
559,715.754049847032
560,715.8043827012626
561,715.8555317900722
562,715.9073285024612
563,715.9596089190168
564,716.012214603737
565,716.0649932979993
566,716.1177995241891
567,716.1704951032775
568,716.2229495886805
569,716.2750406197002
570,716.3266542009482
571,716.3776849165038
572,716.428036087462
573,716.4776198798859
574,716.5263573692749
575,716.574178568837
576,716.6210224306224
577,716.666836827788
578,716.7115785220957
579,716.7552131159633
580,716.7977149857717
581,716.8390671927739
582,716.8792613687076
583,716.918297574682
584,716.9561841338824
585,716.9929374399504
586,717.028581742336
587,717.0631489075922
588,717.0966781525287
589,717.1292157417452
590,717.1608146377051
591,717.1915340858963
592,717.2214391123497
593,717.2505999090323
594,717.2790910863321
595,717.306990779785
596,717.3343796076009
597,717.3613394846534
598,717.3879523065278
599,717.4142985234832
600,717.4404556291053
601,717.4664965934023
602,717.4924882767598
603,717.5184898694449
604,717.5445514083897
605,717.5707124253498
606,717.5970007769256
607,717.6234316979943
608,717.6500071074516
609,717.6767151811766
610,717.7035301947695
611,717.730412630498
612,717.7573095395184
613,717.7841551494724
614,717.8108717069849
615,717.8373705455282
616,717.86355337213
617,717.8893137670548
618,717.9145388833431
619,717.9391113180518
620,717.9629111101501
621,717.9858178082601
622,718.0077125482001
623,718.0284800833477
624,718.0480107149764
625,718.0662020724064
626,718.0829606956349
627,718.098203378333
628,718.1118582376301
629,718.1238654884254
630,718.1341779116528
631,718.1427610146715
632,718.1495928874072
633,718.154663764206
634,718.1579753128025
635,718.1595396872696
636,718.1593783956531
637,718.1575210414697
638,718.1540040027272
639,718.1488691144899
640,718.1421624194674
641,718.1339330427114
642,718.124232231086
643,718.11311257862
644,718.10062743949
645,718.0868305154025
646,718.0717755963121
647,718.055516432724
648,718.038106720635
649,718.0196001810465
650,718.0000507120366
651,717.9795125855013
652,717.9580406592306
653,717.9356905810586
654,717.9125189716709
655,717.8885835799409
656,717.8639434059694
657,717.8386587827255
658,717.8127914003983
659,717.7864042529645
660,717.7595614879797
661,717.7323281488028
662,717.7047698103532
663,717.6769521206362
664,717.6489402672923
665,717.6207983904974
666,717.5925889628711
667,717.5643721572923
668,717.5362052257466
669,717.5081419135547
670,717.4802319304767
671,717.4525204940439
672,717.4250479540952
673,717.3978495028858
674,717.3709549729722
675,717.3443887258209
676,717.3181696369994
677,717.292311185996
678,717.2668216576487
679,717.2417044589886
680,717.2169585532918
681,717.1925790123767
682,717.1685576844055
683,717.1448839650882
684,717.1215456493289
685,717.0985298347791
686,717.0758238506044
687,717.0534161906013
688,717.0312974347745
689,717.0094611443753
690,716.9879047113271
691,716.9666301359097
692,716.9456447006967
693,716.9249615070685
694,716.9045998426774
695,716.88458535204
696,716.8649499880638
697,716.8457317316759
698,716.8269740797856
699,716.8087253155576
700,716.7910375863618
701,716.7739658228621
702,716.7575665370434
703,716.7418965372628
704,716.7270115967273
705,716.7129651115005
706,716.6998067851079
707,716.6875813752648
708,716.6763275324818
709,716.6660767535353
710,716.6568524693682
711,716.6486692872008
712,716.6415324067842
713,716.6354372273447
714,716.6303691542078
715,716.6263036036029
716,716.6232061936066
717,716.6210331026299
718,716.6197315762947
719,716.6192405670122
720,716.6194914947837
721,716.6204091206871
722,716.6219125255606
723,716.6239161860726
724,716.6263311390636
725,716.6290662215748
726,716.6320293671741
727,716.6351289304508
728,716.6382750043082
729,716.6413806921079
730,716.6443633004378
731,716.6471454272755
732,716.6496559305888
733,716.6518307693044
734,716.6536137106082
735,716.6549568974208
736,716.6558212709584
737,716.656176846106
738,716.65600284051
739,716.6552876608439
740,716.654028751284
741,716.6522323098644
742,716.6499128792215
743,716.6470928214659
744,716.6438016929383
745,716.6400755409823
746,716.63595614854
747,716.6314902518992
748,716.6267287529639
749,716.6217259421279
750,716.6165387432474
751,716.6112259880982
752,716.6058477214533
753,716.6004645281114
754,716.5951368628815
755,716.5899243594527
756,716.5848850980245
757,716.5800748234577
758,716.5755461209795
759,716.5713475705268
760,716.5675229108269
761,716.5641102491151
762,716.56114135187
763,716.5586410472309
764,716.5566267629907
765,716.5551082172615
766,716.5540872723723
767,716.5535579555325
768,716.5535066424276
769,716.5539123932247
770,716.5547474244449
771,716.5559776938566
772,716.5575635699848
773,716.5594605560498
774,716.5616200401869
775,716.5639900459969
776,716.5665159585349
777,716.5691412036607
778,716.5718078652296
779,716.5744572340667
780,716.5770302930223
781,716.5794681511932
782,716.5817124458324
783,716.5837057321017
784,716.5853918784456
785,716.5867164792709
786,716.5876272885421
787,716.5880746692173
788,716.5880120438363
789,716.5873963217977
790,716.5861882730102
791,716.5843528198918
792,716.5818592291697
793,716.578681195087
794,716.5747968109621
795,716.5701884284441
796,716.5648424092767
797,716.558748783578
798,716.5519008354429
799,716.5442946363977
800,716.5359285415253
801,716.526802656508
802,716.5169182799174
803,716.5062773251537
804,716.4948817297739
805,716.482732864344
806,716.4698309557643
807,716.4561745397399
808,716.4417599551183
809,716.4265808920991
810,716.4106280077374
811,716.3938886238784
812,716.3763465231057
813,716.3579818575781
814,716.3387711838689
815,716.3186876334863
816,716.2977012240111
817,716.2757793113881
818,716.2528871799977
819,716.2289887611427
820,716.2040474607824
821,716.178027066128
822,716.1508926934313
823,716.1226117401291
824,716.093154812955
825,716.0624966149438
826,716.0306167834639
827,715.9975006765328
828,715.9631401058408
829,715.9275340122471
830,715.8906890739705
831,715.852620232682
832,715.8133511212926
833,715.7729143786255
834,715.7313518380261
835,715.6887145792232
836,715.6450628368634
837,715.6004657656665
838,715.5550010698773
839,715.5087545106271
840,715.461819305843
841,715.4142954335709
842,715.3662888452002
843,715.3179105939674
844,715.2692758856203
845,715.2205030600127
846,715.171712515792
847,715.1230255971266
848,715.0745634691738
849,715.026446013391
850,714.9787907738024
851,714.9317119827717
852,714.8853196912188
853,714.8397190242382
854,714.7950095786334
855,714.7512849727709
856,714.7086325501908
857,714.6671332274266
858,714.626861466548
859,714.5878853465264
860,714.5502667039697
861,714.5140613116437
862,714.4793190636173
863,714.4460841401105
864,714.4143951308691
865,714.3842851001848
866,714.3557815803089
867,714.3289064853359
868,714.3036759441829
869,714.2801000565793
870,714.2581825799651
871,714.2379205602239
872,714.2193039256119
873,714.2023150685512
874,714.1869284420919
875,714.173110197531
876,714.1608178888362
877,714.1500002683752
878,714.1405971942141
879,714.1325396597563
880,714.125749944932
881,714.1201418810602
882,714.1156212208703
883,714.1120861065557
884,714.1094276281879
885,714.1075304627617
886,714.1062735820375
887,714.1055310160534
888,714.1051726609682
889,714.1050651267288
890,714.1050726291212
891,714.1050579351862
892,714.104883367186
893,714.1044118623233
894,714.1035080797766
895,714.1020395450978
896,714.0998778221085
897,714.0968997016113
898,714.092988393961
899,714.0880347093329
900,714.0819382054106
901,714.0746082768516
902,714.0659651558449
903,714.0559407915637
904,714.0444795799216
905,714.0315389224871
906,714.0170896019745
907,714.0011159692616
908,713.9836159432735
909,713.9646008313681
910,713.9440949842594
911,713.9221353052537
912,713.8987706377088
913,713.8740610559231
914,713.8480770821313
915,713.8208988468314
916,713.7926152048086
917,713.7633228191083
