frame_number,force
0,878.9157867018322
1,878.9051380734938
2,878.8933235935114
3,878.8803208795889
4,878.8661113738378
5,878.8506806107548
6,878.8340184784608
7,878.8161194678054
8,878.7969829027952
9,878.7766131450921
10,878.7550197653991
11,878.7322176756592
12,878.7082272178524
13,878.683074207071
14,878.6567899279223
15,878.6294110840735
16,878.6009797010453
17,878.5715429822383
18,878.5411531176893
19,878.509867044443
20,878.4777461570948
21,878.4448559676252
22,878.4112657154881
23,878.3770479315916
24,878.3422779621279
25,878.3070334592961
26,878.2713938461723
27,878.2354397631952
28,878.1992525042665
29,878.1629134507907
30,878.1265035115949
31,878.0901025757348
32,878.0537889843457
33,878.0176390270417
34,877.981726467392
35,877.9461221005462
36,877.9108933448676
37,877.8761038691475
38,877.8418132572783
39,877.8080767123611
40,877.7749448019304
41,877.7424632458045
42,877.7106727481837
43,877.6796088756386
44,877.6493019822718
45,877.6197771830113
46,877.5910543762809
47,877.5631483179609
48,877.5360687486266
49,877.509820575013
50,877.4844041049191
51,877.4598153331277
52,877.4360462745552
53,877.413085339306
54,877.3909177422969
55,877.369525938108
56,877.3488900706408
57,877.3289884276529
58,877.309797892172
59,877.2912943853614
60,877.273453297689
61,877.256249906612
62,877.2396597794697
63,877.2236591603662
64,877.2082253399542
65,877.1933370071112
66,877.1789745811063
67,877.1651205218504
68,877.1517596144695
69,877.1388792230033
70,877.1264695066875
71,877.1145235913776
72,877.1030376887173
73,877.0920111569302
74,877.0814464994587
75,877.0713493006159
76,877.0617281003819
77,877.0525942129796
78,877.0439614956266
79,877.0358460747647
80,877.0282660371423
81,877.0212410925423
82,877.0147922139467
83,877.0089412598851
84,877.0037105831068
85,876.9991226298062
86,876.9951995339577
87,876.9919627111913
88,876.9894324558177
89,876.9876275435709
90,876.9865648420733
91,876.9862589313339
92,876.9867217374605
93,876.9879621837505
94,876.9899858641752
95,876.9927947448564
96,876.9963868992058
97,877.0007562818686
98,877.0058925455226
99,877.0117809030338
100,877.0184020357507
101,877.0257320473173
102,877.0337424617638
103,877.0424002650451
104,877.0516679903631
105,877.0615038485686
106,877.0718619048529
107,877.0826923017892
108,877.0939415271744
109,877.1055527237183
110,877.1174660369593
111,877.1296189981392
112,877.1419469398963
113,877.1543834437471
114,877.1668608187052
115,877.1793106099011
116,877.1916641351734
117,877.2038530467686
118,877.2158099146044
119,877.2274688268434
120,877.2387660026402
121,877.2496404109472
122,877.2600343883371
123,877.2698942479835
124,877.2791708713647
125,877.2878202741107
126,877.2958041376687
127,877.3030902989756
128,877.3096531913059
129,877.3154742310903
130,877.3205421470778
131,877.3248532487164
132,877.3284116300061
133,877.331229304355
134,877.333326266111
135,877.3347304757784
136,877.3354777680861
137,877.3356116843382
138,877.3351832323763
139,877.33425057913
140,877.3328786823786
141,877.3311388697286
142,877.3291083733114
143,877.3268698279096
144,877.3245107385645
145,877.3221229221712
146,877.3198019266312
147,877.3176464304465
148,877.3157576248494
149,877.3142385799925
150,877.3131935967293
151,877.3127275459681
152,877.3129451981264
153,877.313950545857
154,877.3158461241165
155,877.3187323326231
156,877.3227067663325
157,877.3278635595877
158,877.3342927492281
159,877.3420796613987
160,877.351304326218
161,877.3620409241249
162,877.3743572678532
163,877.3883143246296
164,877.4039657840106
165,877.4213576773147
166,877.4405280547794
167,877.4615067266124
168,877.4843150739929
169,877.508965935276
170,877.5354635711332
171,877.5638037107058
172,877.5939736794296
173,877.6259526076968
174,877.6597117175736
175,877.6952146825265
176,877.7324180530061
177,877.7712717391761
178,877.811719541203
179,877.853699717311
180,877.8971455800468
181,877.9419861114945
182,877.9881465881017
183,878.0355492052921
184,878.0841136914961
185,878.133757901001
186,878.1843983752491
187,878.235950862827
188,878.288330789385
189,878.3414536704067
190,878.3952354623146
191,878.4495928504097
192,878.5044434750062
193,878.5597060997386
194,878.6153007284241
195,878.6711486786761
196,878.7271726215203
197,878.7832965969217
198,878.8394460152925
199,878.8955476539834
200,878.9515296554048
201,879.0073215308726
202,879.062854172465
203,879.118059873969
204,879.1728723608682
205,879.2272268283606
206,879.2810599859113
207,879.3343101069108
208,879.3869170826674
209,879.4388224812857
210,879.4899696135275
211,879.5403036087927
212,879.5897715045143
213,879.6383223514321
214,879.6859073354223
215,879.7324799141805
216,879.7779959646667
217,879.8224139353896
218,879.8656949970049
219,879.9078031857487
220,879.9487055363223
221,879.9883722025552
222,880.0267765646101
223,880.0638953210205
224,880.0997085632491
225,880.1341998301526
226,880.1673561396668
227,880.1991679949602
228,880.2296293619305
229,880.2587376143174
230,880.2864934424477
231,880.3129007222774
232,880.3379663429039
233,880.3616999926501
234,880.3841139057799
235,880.4052225735703
236,880.4250424245284
237,880.4435914789606
238,880.4608889830729
239,880.4769550276566
240,880.4918101564846
241,880.5054749699889
242,880.5179697304318
243,880.529313975316
244,880.5395261459977
245,880.5486232380589
246,880.5566204785883
247,880.5635310334
248,880.5693657453737
249,880.5741329043962
250,880.5778380497136
251,880.580483806167
252,880.5820697561969
253,880.582592349492
254,880.5820448517501
255,880.5804173335582
256,880.5776967002269
257,880.573866763466
258,880.5689083556301
259,880.5627994868406
260,880.5555155450095
261,880.5470295389742
262,880.5373123854133
263,880.5263332403968
264,880.514059875844
265,880.5004590998709
266,880.4854972186197
267,880.4691405362598
268,880.4513558893764
269,880.4321112113273
270,880.4113761208807
271,880.3891225277282
272,880.3653252459648
273,880.3399626057457
274,880.3130170530388
275,880.2844757275864
276,880.2543310098756
277,880.2225810289568
278,880.1892301238757
279,880.154289251774
280,880.1177763353733
281,880.0797165424461
282,880.040142490734
283,879.9990943733611
284,879.9566200013902
285,879.9127747615306
286,879.8676214884191
287,879.8212302525699
288,879.7736780669119
289,879.7250485164557
290,879.6754313169488
291,879.6249218095007
292,879.5736203991323
293,879.5216319459615
294,879.4690651182319
295,879.4160317166578
296,879.3626459797579
297,879.3090238798784
298,879.2552824190315
299,879.2015389323046
300,879.147910404788
301,879.0945128061273
302,879.0414604451178
303,878.9888653454033
304,878.9368366425591
305,878.8854800025966
306,878.8348970620633
307,878.7851848903455
308,878.7364354754404
309,878.6887352353812
310,878.6421645587202
311,878.5967973788164
312,878.5527007876102
313,878.5099346946445
314,878.4685515361203
315,878.4285960370331
316,878.3901050275983
317,878.3531073138518
318,878.3176236015124
319,878.2836664717399
320,878.2512404074748
321,878.2203418698726
322,878.1909594254299
323,878.1630739246989
324,878.1366587325299
325,878.1116800082192
326,878.0880970329155
327,878.0658625817343
328,878.0449233388425
329,878.0252203543192
330,878.0066895413336
331,877.9892622114813
332,877.9728656458017
333,877.9574236993498
334,877.9428574377669
335,877.9290858044093
336,877.9160263160155
337,877.9035957839017
338,877.891711056552
339,877.8802897781975
340,877.8692511564008
341,877.8585167298295
342,877.8480111255661
343,877.8376627938769
344,877.8274047077869
345,877.8171750151963
346,877.8069176323924
347,877.7965827693897
348,877.7861273794093
349,877.7755155266705
350,877.764718668351
351,877.7537158480881
352,877.7424937998079
353,877.7310469619199
354,877.7193774029777
355,877.7074946605725
356,877.6954154953302
357,877.6831635619583
358,877.6707690004603
359,877.6582679533077
360,877.6457020174894
361,877.6331176423894
362,877.6205654847389
363,877.6080997309851
364,877.5957773962124
365,877.5836576078038
366,877.5718008817098
367,877.5602683995949
368,877.5491212958356
369,877.5384199635637
370,877.5282233883727
371,877.5185885172164
372,877.5095696688736
373,877.5012179913201
374,877.4935809704194
375,877.4867019934107
376,877.4806199695638
377,877.4753690090953
378,877.4709781602322
379,877.4674712032972
380,877.4648664996207
381,877.463176891764
382,877.4624096502281
383,877.4625664610048
384,877.4636434483612
385,877.465631228317
386,877.4685149901472
387,877.4722746050273
388,877.4768847616335
389,877.4823151278875
390,877.4885305367237
391,877.4954911924883
392,877.5031528937857
393,877.5114672684637
394,877.5203820169631
395,877.5298411611177
396,877.5397852961662
397,877.5501518438864
398,877.5608753045938
399,877.5718875058311
400,877.583117846094
401,877.5944935325937
402,877.6059398126686
403,877.617380199164
404,877.6287366909138
405,877.6399299899747
406,877.6508797170347
407,877.6615046255173
408,877.6717228139792
409,877.681451936159
410,877.6906094087601
411,877.6991126186015
412,877.7068791327168
413,877.7138269166876
414,877.7198745673568
415,877.7249415658883
416,877.7289485560792
417,877.7318176511558
418,877.733472770151
419,877.7338400026632
420,877.7328479990304
421,877.7304283823186
422,877.7265161790058
423,877.7210502664419
424,877.7139738365228
425,877.7052348759773
426,877.6947866638883
427,877.6825882864086
428,877.6686051670594
429,877.6528096086739
430,877.6351813405092
431,877.615708061793
432,877.5943859713274
433,877.5712202717917
434,877.5462256370606
435,877.5194266311227
436,877.4908580679855
437,877.4605653032032
438,877.4286044492441
439,877.395042508517
440,877.3599574192074
441,877.3234380101895
442,877.2855838624463
443,877.2465050758099
444,877.2063219412803
445,877.1651645201481
446,877.12317213134
447,877.0804927483648
448,877.0372823078939
449,876.9937039335123
450,876.9499270799183
451,876.9061266045472
452,876.8624817753641
453,876.8191752250732
454,876.7763918625714
455,876.734317751931
456,876.693138967901
457,876.6530404354713
458,876.6142047600694
459,876.5768110548971
460,876.5410337728415
461,876.5070415518338
462,876.4749960838873
463,876.4450510189027
464,876.4173509147611
465,876.3920302454577
466,876.369212478913
467,876.3490092351291
468,876.3315195335238
469,876.3168291362991
470,876.3050099933467
471,876.2961197933827
472,876.2902016251575
473,876.2872837515708
474,876.2873794987181
475,876.2904872613892
476,876.2965906258131
477,876.3056586089727
478,876.3176460118054
479,876.3324938817426
480,876.3501300787985
481,876.3704699385647
482,876.3934170244936
483,876.4188639607172
484,876.4466933358425
485,876.476778668083
486,876.5089854225433
487,876.5431720720894
488,876.5791911937516
489,876.6168905927155
490,876.6561144453485
491,876.6967044514216
492,876.7385009844794
493,876.7813442290784
494,876.8250752945113
495,876.8695372961035
496,876.9145763965257
497,876.9600428002573
498,877.0057916940516
499,877.0516841252756
500,877.0975878092457
501,877.143377856931
502,877.1889374155962
503,877.2341582165201
504,877.2789410255059
505,877.323195993555
506,877.3668429067759
507,877.4098113360649
508,877.4520406882417
509,877.4934801614842
510,877.5340886093243
511,877.5738343187219
512,877.6126947080236
513,877.6506559497103
514,877.6877125215341
515,877.723866689099
516,877.7591279236436
517,877.7935122604187
518,877.8270416048424
519,877.8597429946935
520,877.8916478267734
521,877.9227910561607
522,877.9532103758298
523,877.9829453839792
524,878.0120367460119
525,878.0405253583377
526,878.0684515224699
527,878.0958541397847
528,878.1227699388506
529,878.1492327478155
530,878.1752728239506
531,878.2009162514463
532,878.226184417519
533,878.2510935761675
534,878.2756545082634
535,878.2998722856344
536,878.3237461452233
537,878.3472694774027
538,878.3704299302811
539,878.393209629488
540,878.415585510494
541,878.4375297580281
542,878.4590103444575
543,878.4799916560011
544,878.5004351928948
545,878.52030032808
546,878.5395451089857
547,878.5581270880352
548,878.5760041687765
549,878.593135455351
550,878.6094820932925
551,878.625008089792
552,878.6396811018366
553,878.6534731810175
554,878.6663614644834
555,878.678328802923
556,878.6893643186386
557,878.6994638890933
558,878.7086305530121
559,878.7168748369222
560,878.7242150002825
561,878.7306771977431
562,878.7362955580671
563,878.7411121806603
564,878.7451770518886
565,878.7485478839958
566,878.7512898792775
567,878.7534754211538
568,878.7551836922416
569,878.756500218453
570,878.7575163382106
571,878.7583285968941
572,878.7590380681646
573,878.7597496056841
574,878.7605710305706
575,878.7616122612741
576,878.762984393454
577,878.7647987385511
578,878.7671658315192
579,878.7701944203928
580,878.7739904522457
581,878.7786560710879
582,878.7842886434619
583,878.7909798273495
584,878.7988146997734
585,878.8078709579796
586,878.8182182080396
587,878.829917353183
588,878.8430200925119
589,878.8575685390593
590,878.8735949642021
591,878.8911216731246
592,878.9101610133708
593,878.9307155153941
594,878.952778160444
595,878.9763327677157
596,879.0013544902431
597,879.0278104076518
598,879.0556602029612
599,879.0848569096755
600,879.1153477147421
601,879.1470748031886
602,879.1799762313094
603,879.2139868162312
604,879.2490390296329
605,879.2850638825105
606,879.3219917872116
607,879.359753383262
608,879.3982803145707
609,879.4375059468138
610,879.4773660149955
611,879.5177991926877
612,879.5587475764739
613,879.6001570815212
614,879.6419777467146
615,879.6841639502211
616,879.726674538455
617,879.7694728730087
618,879.8125268010361
619,879.855808554953
620,879.8992945875412
621,879.9429653490724
622,879.9868050139156
623,880.0308011647894
624,880.0749444429119
625,880.1192281719183
626,880.163647963122
627,880.2082013096792
628,880.2528871769179
629,880.2977055949119
630,880.34265725744
631,880.3877431295587
632,880.4329640648489
633,880.4783204331733
634,880.5238117603437
635,880.5694363820813
636,880.6151911155414
637,880.6610709521732
638,880.7070687759651
639,880.7531751115899
640,880.7993779075089
641,880.8456623590761
642,880.8920107755877
643,880.93840249323
644,880.9848138335501
645,881.0312181049836
646,881.0775856436372
647,881.123883888902
648,881.170077489039
649,881.2161284314411
650,881.2619961921889
651,881.3076378999178
652,881.3530085096226
653,881.3980609826027
654,881.4427464692411
655,881.4870144916694
656,881.5308131235435
657,881.5740891641587
658,881.6167883042611
659,881.6588552815182
660,881.7002340247931
661,881.7408677879099
662,881.7806992750466
663,881.8196707607649
664,881.8577242079125
665,881.894801386572
666,881.9308439971494
667,881.9657938005475
668,881.99959275804
669,882.0321831827894
670,882.0635079038211
671,882.0935104419914
672,882.1221351968098
673,882.1493276431711
674,882.1750345374442
675,882.1992041320946
676,882.2217863969839
677,882.2427332444025
678,882.2619987544402
679,882.2795393977865
680,882.2953142543457
681,882.3092852274942
682,882.321417254526
683,882.331678513605
684,882.3400406267505
685,882.3464788574665
686,882.3509723007833
687,882.3535040626571
688,882.354061424727
689,882.3526359893407
690,882.3492237990118
691,882.3438254247264
692,882.3364460189314
693,882.3270953309682
694,882.315787684138
695,882.3025419140965
696,882.2873812685997
697,882.2703332698107
698,882.2514295425817
699,882.2307056143965
700,882.2082006942151
701,882.1839574382019
702,882.1580217104168
703,882.1304423459208
704,882.1012709222633
705,882.0705615430713
706,882.0383706346562
707,882.0047567536582
708,881.9697804014729
709,881.9335038402829
710,881.8959909060856
711,881.8573068156484
712,881.8175179662798
713,881.7766917294213
714,881.7348962410141
715,881.6922001925346
716,881.6486726258862
717,881.604382733349
718,881.559399661686
719,881.5137923180861
720,881.4676291748764
721,881.4209780696169
722,881.3739059974444
723,881.3264788934957
724,881.2787614044031
725,881.2308166487597
726,881.1827059672255
727,881.1344886635131
728,881.0862217374759
729,881.0379596108706
730,880.9897538457379
731,880.9416528553545
732,880.893701608561
733,880.8459413296364
734,880.7984091973316
735,880.7511380479582
736,880.7041560886124
737,880.6574866276551
738,880.6111478302674
739,880.5651525069185
740,880.5195079417687
741,880.474215766538
742,880.4292718835447
743,880.3846664399099
744,880.3403838536042
745,880.2964028910662
746,880.2526967953836
747,880.2092334636093
748,880.1659756719433
749,880.1228813481196
750,880.0799038908807
751,880.0369925364843
752,879.9940927716915
753,879.9511467916784
754,879.9080939997485
755,879.8648715439024
756,879.8214148838873
757,879.7776583817339
758,879.7335359086763
759,879.688981461083
760,879.6439297773186
761,879.5983169466055
762,879.5520810004023
763,879.5051624767882
764,879.4575049486335
765,879.4090555069122
766,879.359765191977
767,879.3095893684367
768,879.2584880427975
769,879.2064261259864
770,879.1533736445699
771,879.0993059051683
772,879.044203616841
773,878.9880529762124
774,878.9308457196305
775,878.8725791457724
776,878.8132561112678
777,878.7528850014452
778,878.6914796783692
779,878.6290594088343
780,878.5656487756302
781,878.5012775758163
782,878.4359807096528
783,878.3697980630247
784,878.3027743846559
785,878.2349591575245
786,878.1664064624844
787,878.0971748317461
788,878.0273270904738
789,877.9569301856366
790,877.8860550017275
791,877.8147761627991
792,877.7431718197839
793,877.6713234219797
794,877.5993154723064
795,877.5272352671518
796,877.4551726225025
797,877.3832195881496
798,877.3114701512437
799,877.2400199297463
800,877.1689658555136
801,877.0984058460289
802,877.0284384635335
803,876.9591625607511
804,876.8906769133374
805,876.8230798402219
806,876.7564688138168
807,876.6909400626126
808,876.6265881690299
809,876.563505665655
810,876.5017826332248
811,876.4415063038233
812,876.3827606726402
813,876.3256261213901
814,876.2701790562228
815,876.2164915625597
816,876.1646310787429
817,876.1146600899474
818,876.0666358437666
819,876.0206100892161
820,875.9766288414529
821,875.9347321751555
822,875.89495404991
823,875.8573221705855
824,875.8218578844553
825,875.7885761151375
826,875.7574853318789
827,875.7285875517051
828,875.7018783716428
829,875.6773470284828
830,875.6549764842422
831,875.6347435366488
832,875.6166189556271
833,875.60056764855
834,875.5865488582733
835,875.5745163980931
836,875.5644189266432
837,875.5562002636574
838,875.5497997449102
839,875.5451526120322
840,875.5421904309667
841,875.5408415321587
842,875.5410314662752
843,875.5426834707471
844,875.5457189437321
845,875.550057922448
846,875.5556195621498
847,875.5623226108386
848,875.5700858737224
849,875.5788286608486
850,875.5884712114351
851,875.598935089546
852,875.6101435477567
853,875.6220218575611
854,875.6344976066437
855,875.6475009637298
856,875.6609649120877
857,875.6748254532837
858,875.6890217834182
859,875.7034964445007
860,875.7181954536472
861,875.7330684123463
862,875.7480685973337
863,875.7631530340908
864,875.7782825538962
865,875.7934218354632
866,875.8085394321527
867,875.8236077857507
868,875.8386032280804
869,875.8535059721933
870,875.8683000952357
871,875.882973515107
872,875.8975179626234
873,875.9119289501646
874,875.926205737007
875,875.9403512908476
876,875.9543722441714
877,875.9682788430181
878,875.9820848847747
879,875.9958076414845
880,876.0094677660867
881,876.023089180511
882,876.0366989457169
883,876.0503271140584
884,876.0640065638634
885,876.0777728153844
886,876.091663826746
887,876.1057197682769
888,876.1199827736359
889,876.1344966665979
890,876.149306663376
891,876.1644590514724
892,876.1800008466922
893,876.1959794301952
894,876.212442167958
895,876.2294360161733
896,876.2470071175245
897,876.2652003942968
898,876.284059144739
899,876.3036246492377
900,876.3239357927996
901,876.3450287099363
902,876.3669364573892
903,876.3896887194467
904,876.4133115498541
905,876.4378271531394
906,876.4632537064924
907,876.4896052217011
908,876.5168914457605
909,876.5451177985126
910,876.5742853451483
911,876.6043908002865
912,876.6354265596904
913,876.667380756678
914,876.7002373427963
915,876.7339761950537
916,876.7685732536585
