acceleration,velocity,displacement
0.009622717422440814,0.0,0.0
0.009503746397903386,4.78161595508605e-06,1.1954039887715125e-09
0.00937174998074209,9.500490049747418e-06,4.7659304899798795e-09
0.00922647810637941,1.4150047071527792e-05,1.0678564770298683e-08
0.009067723438144758,1.8723597457658833e-05,1.889697590259534e-08
0.008895324361242468,2.321435940750564e-05,2.9381465118886457e-08
0.008709167901423577,2.761548247317215e-05,4.208892558905591e-08
0.008509192508091089,3.192007257555082e-05,5.6972814351236654e-08
0.008295390628750057,3.612121835976111e-05,7.398313708506464e-08
0.008067810993743535,4.0212018765384504e-05,9.306644636635104e-08
0.007826560531055021,4.418561164658414e-05,1.141658539693432e-07
0.007571805843287479,4.803520324016977e-05,1.3722105769103166e-07
0.007303774199735423,5.1754098250925495e-05,1.6216838306380547e-07
0.00702275401763379,5.5335730305267796e-05,1.889408402028538e-07
0.00672909482197268,5.877369251516941e-05,2.1746819590796312e-07
0.006423206681787296,6.206176789110941e-05,2.476770610095328e-07
0.006105559124138622,6.519395934259089e-05,2.794909928179579e-07
0.0057766795255752654,6.816451900501936e-05,3.1283061240486044e-07
0.005437150975469973,7.096797663028068e-05,3.4761373631368544e-07
0.005087609598799809,7.359916677384812e-05,3.837555221647176e-07
0.004728741322204676,7.605325450409924e-05,4.211686274842045e-07
0.004361278073512209,7.832575935302846e-05,4.597633809484864e-07
0.003985993425477139,8.041257722777579e-05,4.994479650936874e-07
0.003603697724401741,8.231000001524551e-05,5.401286094044427e-07
0.003215232770133977,8.401473263887944e-05,5.817097925679739e-07
0.0028214661262159616,8.552390736296692e-05,6.240944525684355e-07
0.0024232851411781988,8.683509517981546e-05,6.671842032041312e-07
0.0020215907644454685,8.794631415622138e-05,7.108795555381404e-07
0.0016172912462087085,8.885603465888492e-05,7.55080142741917e-07
0.001211295814277819,8.956318142400655e-05,7.996849467626398e-07
0.0008045084166295826,9.00671324817334e-05,8.445925252390749e-07
0.00039782160792162794,9.03677149878712e-05,8.89701237106476e-07
-7.88935120531468e-06,9.046519805205029e-05,9.349094653664564e-07
-0.0004117721205840912,9.036028268410294e-05,9.801158355504947e-07
-0.0008130025820968067,9.005408900843272e-05,1.0252194284736285e-06
-0.0012107897820777893,8.954814091738908e-05,1.070119985955084e-06
-0.0016043804937488115,8.884434834843242e-05,1.1147181082715394e-06
-0.001993063382152034,8.79449873794572e-05,1.1589154422035119e-06
-0.0023761727505570256,8.685267834627995e-05,1.202614858634946e-06
-0.002753091846313501,8.557036219706231e-05,1.2457206187707816e-06
-0.0031232557072930225,8.410127530866068e-05,1.2881385281472124e-06
-0.0034861535321230844,8.244892299880665e-05,1.3297760777240792e-06
-0.0038413305560592264,8.061705197676107e-05,1.370542571467971e-06
-0.004188389414149004,7.860962198420902e-05,1.4103492399582137e-06
-0.004526990977357901,7.64307768863323e-05,1.449109339675849e-06
-0.004856854650961181,7.408481547925253e-05,1.4867382377672452e-06
-0.00517775812125534,7.15761622861984e-05,1.523153482208608e-06
-0.005489536529244174,6.890933862357352e-05,1.558274857436051e-06
-0.0057920810490551524,6.608893422899868e-05,1.5920244256491942e-06
-0.0060853368605438265,6.311957975159893e-05,1.6243265541443436e-06
-0.006369300524846516,6.000592040525135e-05,1.6551079291835562e-06
-0.0066440167899610705,5.6752591076549455e-05,1.6842975570540064e-06
-0.006909574868659561,5.3364193161894296e-05,1.7118267531136174e-06
-0.007166104248220766,4.984527338267421e-05,1.7376291197497596e-06
-0.007413770113930494,4.62003047921364e-05,1.7616405142934622e-06
-0.0076527684907325855,4.243367014097063e-05,1.783799008026739e-06
-0.007883321219455825,3.8549647713423525e-05,1.8040448374903373e-06
-0.00810567087855362,3.4552399688921165e-05,1.8223203493409235e-06
-0.008320075740731086,3.044596303409999e-05,1.8385699400216788e-06
-0.008526804825044858,2.6234242892656004e-05,1.8527399915033677e-06
-0.008726133079718632,2.1921008416465132e-05,1.864778804330648e-06
-0.008918336715581674,1.7509890967640057e-05,1.8746365291766744e-06
-0.009103688704767573,1.3004384612552747e-05,1.8822650980717227e-06
-0.009282454458305837,8.407848821784395e-06,1.887618156430307e-06
-0.009454887694738904,3.7235132835232097e-06,1.890650996956634e-06
-0.009621226511041015,-1.04551526792177e-06,1.8913204964605344e-06
-0.009781689671520308,-5.896244313562101e-06,1.8895850565651633e-06
-0.009936473141566732,-1.0825785016833861e-05,1.8854045492325644e-06
-0.010085746908265114,-1.5831340029291824e-05,1.878740267971033e-06
-0.01022965214596408,-2.0910189792849122e-05,1.8695548855154979e-06
-0.010368298799886967,-2.6059677529311886e-05,1.8578124186849576e-06
-0.010501763670912757,-3.127719314701182e-05,1.8434782010158766e-06
-0.010630089084171132,-3.656015633578279e-05,1.826518863645178e-06
-0.01075328220985602,-4.190599915928958e-05,1.8069023247714098e-06
-0.010871315078430631,-4.731214848136124e-05,1.7845977878612472e-06
-0.010984125299553385,-5.2776008575857246e-05,1.7595757485969426e-06
-0.011091617460902812,-5.82949442659713e-05,1.7318080103864854e-06
-0.011193665155128613,-6.386626491997916e-05,1.7012677080899978e-06
-0.011290113563464658,-6.948720959962747e-05,1.6679293394600962e-06
-0.011380782514406442,-7.515493361909525e-05,1.6317688036554155e-06
-0.01146546993505916,-8.086649673146165e-05,1.5927634460677762e-06
-0.011543955619296168,-8.661885312005048e-05,1.5508921086048982e-06
-0.011616005247981578,-9.240884333686992e-05,1.5061351844906682e-06
-0.01168137460826595,-9.823318830093179e-05,1.4584746765812178e-06
-0.011739813965660406,-0.00010408848544441338,1.4078942581448816e-06
-0.011791072541673579,-0.00010997120707124688,1.3543793350159666e-06
-0.011834903046071675,-0.00011587770096818319,1.2979171080061091e-06
-0.01187106621428651,-0.00012180419328327273,1.238496634443245e-06
-0.011899335309608409,-0.00012774679366424647,1.1761088877063653e-06
-0.011919500561520645,-0.00013370150263202873,1.1107468136322964e-06
-0.011931373517744431,-0.000139664221151845,1.042405382686328e-06
-0.011934791284186116,-0.00014563076235232764,9.710816368102848e-07
-0.011929620617264106,-0.0001515968653276902,8.967747298902804e-07
-0.011915761822079424,-0.00015755821093752607,8.194859608239763e-07
-0.011893152400380401,-0.00016351043949314103,7.392187982163096e-07
-0.011861770385800535,-0.00016944917018968627,6.559788957956027e-07
-0.011821637302994938,-0.00017537002211188515,5.697740977202099e-07
-0.01177282069322745,-0.00018126863661094075,4.806144330395033e-07
-0.011715436161183135,-0.0001871407008245434,3.885120986806323e-07
-0.01164964891503351,-0.00019298197209359754,2.9348143045109704e-07
-0.011575674791005611,-0.00019878830302010733,1.955388616726708e-07
-0.01149378076939891,-0.00020455566691020846,9.470286919009186e-08
-0.011404284995917603,-0.0002102801833515376,-9.006093375344652e-09
-0.011307556317586667,-0.00021595814367991365,-1.1556567513320746e-07
-0.011204013329484362,-0.00022158603609168142,-2.2495172007610623e-07
-0.011094122917843138,-0.00022716057015351328,-3.371383716374049e-07
-0.010978398285972728,-0.00023267870045446724,-4.5209818928940006e-07
-0.010857396462356369,-0.00023813764914154951,-5.698022766884042e-07
-0.010731715308200622,-0.00024353492708418877,-6.902204207448388e-07
-0.010601990057457879,-0.0002488683534256034,-8.133212408722869e-07
-0.010468889429759496,-0.00025413607329740777,-9.390723475530397e-07
-0.010333111352772859,-0.00025933657349304086,-1.067440509250652e-06
-0.010195378317914639,-0.00026446869591071275,-1.1983918266015904e-06
-0.010056432380885985,-0.0002695316485854129,-1.3318919127256218e-06
-0.009917029814329239,-0.0002745250141342167,-1.467906078405529e-06
-0.009777935425315378,-0.0002794487554441279,-1.6063995208001153e-06
-0.009639916560309105,-0.000284303218440534,-1.7473375142712808e-06
-0.009503736829628434,-0.0002890891317880184,-1.890685601828419e-06
-0.009370149590974394,-0.00029380760339316913,-2.0364097856237156e-06
-0.009239891239567734,-0.00029846011360080467,-2.184476714872209e-06
-0.009113674362287293,-0.00030304850500126844,-2.334853869522727e-06
-0.008992180824101326,-0.00030757496879786557,-2.4875097379725107e-06
-0.008876054865484425,-0.000312042027720262,-2.6424139871020424e-06
-0.008765896298615896,-0.0003164525155112871,-2.7995376229099297e-06
-0.008662253896618,-0.0003208095530600956,-2.9588531400527752e-06
-0.008565619071671308,-0.0003251165213021679,-3.120334658643341e-06
-0.008476419935016986,-0.00032937703105384,-3.2839580467323433e-06
-0.008395015826144017,-0.00033359488999413025,-3.4497010269943357e-06
-0.008321692387433003,-0.0003377740670475245,-3.6175432662547495e-06
-0.008256657242467972,-0.0003419186544549997,-3.7874664466303808e-06
-0.008200036318482066,-0.0003460328278452372,-3.95945431720544e-06
-0.008151870847912237,-0.0003501208046368358,-4.133492725325959e-06
-0.008112115090854938,-0.00035418680112152756,-4.309569626765549e-06
-0.00808063482840351,-0.00035823498860134215,-4.487675074196266e-06
-0.008057206675171406,-0.0003622694489772359,-4.667801183590911e-06
-0.008041518244464783,-0.00036629413020714495,-4.849942078387006e-06
-0.008033169175379207,-0.00037031280206210594,-5.034093811454319e-06
-0.008031673005858369,-0.00037432901260741534,-5.220254265121699e-06
-0.00803645985450298,-0.0003783460458225057,-5.4084230297291795e-06
-0.00804687985551348,-0.0003823668807500098,-5.5986012613723085e-06
-0.008062207272815395,-0.000386394152532092,-5.790791519692834e-06
-0.008081645203899977,-0.0003904301156512709,-5.984997586738674e-06
-0.008104330778383708,-0.0003944766096468418,-6.181224268063203e-06
-0.008129340765149711,-0.00039853502753272517,-6.379477177358094e-06
-0.008155697520468092,-0.0004026062871041296,-6.5797625060173085e-06
-0.008182375226736068,-0.00040669080529093064,-6.782086779116073e-06
-0.008208306381949797,-0.00041078847569310213,-6.986456599362082e-06
-0.008232388507695447,-0.00041489864941551347,-7.1928783806392356e-06
-0.008253491052264477,-0.00041902011930550345,-7.4013580728194895e-06
-0.008270462471852667,-0.00042315110768653273,-7.611900879567499e-06
-0.00828213747274405,-0.00042728925767268193,-7.824510970907303e-06
-0.008287344392335813,-0.0004314316281389519,-8.039191192360211e-06
-0.008284912690753298,-0.00043557469240972416,-8.25594277249738e-06
-0.00827368051765582,-0.00043971434071182644,-8.474765030777767e-06
-0.008252502308705745,-0.0004438458864184168,-8.695655087560327e-06
-0.008220256355360459,-0.00044796407608443337,-8.91860757818604e-06
-0.008175852285076257,-0.0004520631032445425,-9.143614373018284e-06
-0.008118238388755453,-0.00045613662591300046,-9.370664305307669e-06
-0.008046408736357797,-0.00046017778769427876,-9.59974290870949e-06
-0.00795941002773732,-0.00046417924238530253,-9.830832166229384e-06
-0.007856348132210462,-0.0004681331819252895,-1.0063910272307033e-05
-0.0077363942742188375,-0.0004720313675268968,-1.0298951409670079e-05
-0.00759879082092195,-0.000475865163800682,-1.0535925542501974e-05
-0.0074428566204156645,-0.00047962557566101643,-1.0774798227367399e-05
-0.00726799183005086,-0.0004833032877736331,-1.1015530443226061e-05
-0.0070736821682680345,-0.0004868887062732128,-1.1258078441737773e-05
-0.006859502521556226,-0.0004903720024456689,-1.1502393618917494e-05
-0.006625119837519671,-0.0004937431580354379,-1.1748422409037771e-05
-0.006370295236469631,-0.0004969920118039351,-1.1996106201497615e-05
-0.006094885282800401,-0.0005001083069337527,-1.2245381281182037e-05
-0.005798842374448947,-0.000503081738848065,-1.2496178792627491e-05
-0.0054822142272527,-0.0005059020029984905,-1.274842472808913e-05
-0.0051451424468360605,-0.0005085588421670127,-1.3002039939380506e-05
-0.004787860197354912,-0.0005110420928280604,-1.3256940173129275e-05
-0.004410688998169765,-0.0005133417301269416,-1.3513036128868026e-05
-0.004014034704828551,-0.0005154479110526912,-1.3770233539162933e-05
-0.0035983827542545505,-0.000517351015417462,-1.4028433270780471e-05
-0.0031642927714919857,-0.0005190416842988986,-1.4287531445709562e-05
-0.0027123926450823054,-0.0005205108556530422,-1.4547419580697546e-05
-0.0022433721805244964,-0.0005217497968594439,-1.4807984743825668e-05
-0.0017579764385355428,-0.0005227501340142089,-1.5069109726544082e-05
-0.0012569988616060392,-0.0005235038778392443,-1.5330673229507445e-05
-0.0007412742931868178,-0.0005240034461279425,-1.559255006049924e-05
-0.0002116719992393377,-0.0005242416827010491,-1.5854611342706487e-05
0.00033091119196857356,-0.0005242118729028668,-1.6116724731607466e-05
0.0008855575134302054,-0.0005239077557265171,-1.6378754638764812e-05
0.001451334530466871,-0.0005233235327155428,-1.6640562460875327e-05
0.00202730095027912,-0.0005224538738453563,-1.690200681251555e-05
0.0026125118720759437,-0.0005212939206397676,-1.716294376113683e-05
0.003206023398728618,-0.0005198392868220664,-1.7423227063002287e-05
0.003806896559469286,-0.000518086056832517,-1.7682708398915934e-05
0.004414200526884724,-0.0005160307825609285,-1.7941237608764295e-05
0.005027015143368422,-0.0005136704786433652,-1.8198662924065368e-05
0.005644432801524615,-0.000511002616657142,-1.8454831197890495e-05
0.0062655597498055375,-0.0005080251185193094,-1.8709588131684606e-05
0.006889516914951378,-0.0005047363493531202,-1.8962778498652715e-05
0.007515440344607296,-0.0005011351100382306,-1.9214246363500553e-05
0.00814248138079905,-0.000497220629606879,-1.946383529841183e-05
0.008769806676768946,-0.0004929925575924871,-1.971138859521167e-05
0.009396598157785103,-0.0004884509563838486,-1.9956749473705756e-05
0.010022053000158456,-0.0004835962935943627,-2.019976128620031e-05
0.01064538367419441,-0.0004784294344257745,-2.0440267718205343e-05
0.01126581807666269,-0.00047295163398806023,-2.06781129853088e-05
0.01188259976482014,-0.00046716452952768955,-2.0913142026187738e-05
0.01249498829144661,-0.00046107013251362285,-2.1145200691698064e-05
0.013102259629588327,-0.00045467082053336414,-2.1374135929959812e-05
0.013703706670328967,-0.00044796932895838483,-2.159979596733275e-05
0.014298639777588287,-0.0004409687423464055,-2.1822030485158948e-05
0.014886387391358233,-0.0004336724855541689,-2.2040690792134092e-05
0.015466296685522806,-0.0004260843145349486,-2.2255629992156373e-05
0.01603773430367326,-0.0004182083067876496,-2.246670314748702e-05
0.016600087208002903,-0.0004100488514097305,-2.2673767437036366e-05
0.017152763678062764,-0.00040161063868821413,-2.2876682309560854e-05
0.01769519448692529,-0.0003928986491469671,-2.3075309631519648e-05
0.018226834262321148,-0.00038391814195965553,-2.3269513829296305e-05
0.01874716301371962,-0.0003746746426406453,-2.345916202544638e-05
0.019255687779640877,-0.0003651739299423052,-2.3644124168592118e-05
0.01975194432904902,-0.0003554220219151327,-2.3824273156556477e-05
0.020235498843894747,-0.0003454251611218968,-2.3999484952315733e-05
0.02070594952162532,-0.0003351897990305168,-2.4169638692353835e-05
0.02116292805983408,-0.00032472257963515194,-2.4334616787020252e-05
0.0216061010043451,-0.00031403032236910713,-2.4494305012521316e-05
0.022035170946970828,-0.00030312000438127815,-2.464859259420891e-05
0.022449877553777354,-0.0002919987422560911,-2.4797372280868252e-05
0.02284999839809713,-0.00028067377326812244,-2.4940540409749307e-05
0.023235349569022304,-0.00026915243627634257,-2.5077996962135423e-05
0.02360578602541038,-0.0002574421523777344,-2.520964560929894e-05
0.023961201664635376,-0.0002455504054552229,-2.533539374875718e-05
0.024301529071158765,-0.0002334847227712744,-2.54551525308138e-05
0.024626738903302317,-0.00022125265577765913,-2.5568836875451035e-05
0.024936838873711384,-0.0002088617613334057,-2.56763654797288e-05
0.025231872286238376,-0.00019631958354341826,-2.5777660815948006e-05
0.025511916108841397,-0.0001836336364446483,-2.5872649120945023e-05
0.02577707858361822,-0.0001708113877715334,-2.596126037699907e-05
0.02602749639700878,-0.00015786024402637664,-2.6043428284948547e-05
0.026263331451766236,-0.0001447875370641829,-2.6119090230221188e-05
0.026484767294211054,-0.0001316005123776886,-2.6188187242581656e-05
0.026692005254925998,-0.00011830631924040432,-2.6250663950486178e-05
0.02688526036077188,-0.00010491200283647986,-2.63064685310054e-05
0.027064757074677537,-9.14244984776175e-05,-2.6355552656333926e-05
0.02723072492046654,-7.785062797883147e-05,-2.639787143794804e-05
0.0273833940549825,-6.419709823496921e-05,-2.6433383369501488e-05
0.027522990856882645,-5.0470502007002926e-05,-2.646205026956198e-05
0.027649733607497565,-3.6677320890907875e-05,-2.6483837225286457e-05
0.027763828341541518,-2.2823930403648102e-05,-2.6498712538110098e-05
0.027865464940913198,-8.916607083034422e-06,-2.6506647672481768e-05
0.027954813529150503,5.038462534481502e-06,-2.6507617208618906e-05
0.028032021200347087,1.90351712168559e-05,-2.650159880018107e-05
0.028097209095784836,3.306747879088888e-05,-2.6488573137679133e-05
0.028150469833606705,4.7129398523236766e-05,-2.6468523918350603e-05
0.028191865300634465,6.121498230679706e-05,-2.6441437823143093e-05
0.02822142482270239,7.531830483763128e-05,-2.6407304501356987e-05
0.02823914373464236,8.943344697696747e-05,-2.6366116563403337e-05
0.02824498237083723,0.00010355447850333737,-2.631786958203326e-05
0.028238865492760706,0.00011767544046923685,-2.626256210229012e-05
0.02822068216474062,0.00013179032738361217,-2.6200195660326906e-05
0.028190286087290302,0.00014589306944661992,-2.613077481111935e-05
0.028147496397898694,0.00015997751506791717,-2.6054307164990717e-05
0.028092098947419673,0.00017403741390424675,-2.5970803432747676e-05
0.028023848055506513,0.0001880664006549783,-2.588027747910787e-05
0.027942468745374746,0.00020205797985519861,-2.5782746383980325e-05
0.0278476594602089,0.00021600551190659452,-2.5678230511039876e-05
0.027739095268695623,0.00022990220058882065,-2.556675358291602e-05
0.027616431569255105,0.00024374108229830834,-2.544834276219424e-05
0.02747930829598235,0.00025751501726461773,-2.5323028737303506e-05
0.0273273546149545,0.0002712166829923519,-2.5190845812239262e-05
0.027160194083992104,0.00028483857016708855,-2.5051831998949402e-05
0.026977450238882286,0.00029837298124780717,-2.4906029111095677e-05
0.026778752563796727,0.0003118120319484769,-2.4753482857796605e-05
0.026563742796523276,0.00032514765578855694,-2.4594242935862347e-05
0.026332081504971547,0.00033837161186393063,-2.4428363118949223e-05
0.026083454852230913,0.00035147549595323125,-2.425590134199493e-05
0.02581758145062974,0.0003644507550289464,-2.4076919779249388e-05
0.025534219195426384,0.0003772887051904605,-2.3891484914194538e-05
0.025233171965491744,0.00038998055298069,-2.369966759965175e-05
0.024914296080540712,0.0004025174199921981,-2.3501543106408527e-05
0.024577506412128663,0.00041489037061536544,-2.3297191158756637e-05
0.024222782057208153,0.00042709044273269966,-2.3086695955419622e-05
0.023850171493461154,0.000439108681120367,-2.2870146174456355e-05
0.0234597971387659,0.00045093617327842376,-2.2647634960856658e-05
0.02305185923343461,0.0004625640873714739,-2.2419259895694182e-05
0.02262663896258429,0.0004739837119204786,-2.2185122945871195e-05
0.022184500745568457,0.00048518649684751677,-2.1945330393679196e-05
0.021725893637158194,0.0004961640954431984,-2.169999274560652e-05
0.021251351802982606,0.0005069084068032336,-2.144922462004491e-05
0.020761494047032588,0.0005174116182657374,-2.1193144613777667e-05
0.0202570223847286,0.0005276662473736777,-2.0931875147367812e-05
0.01973871967380811,0.0005376651828883119,-2.0665542289802313e-05
0.019207446335631366,0.0005474017243906718,-2.0394275562982566e-05
0.018664136217669918,0.0005568696200289971,-2.011820772687765e-05
0.018109791662606168,0.0005660631019990661,-1.9837474546370634e-05
0.017545477862064795,0.0005749769193802339,-1.955221454102581e-05
0.01697231658384129,0.0005836063679917104,-1.9262568719182824e-05
0.016391479369985227,0.000591947316980167,-1.8968680297939854e-05
0.01580418030854238,0.0005999962318997989,-1.8670694410719863e-05
0.01521166848485878,0.0006077501940981492,-1.8368757804220377e-05
