frame_number,force
0,878.9621749632447
1,878.9542999478125
2,878.9449417514807
3,878.9340536651406
4,878.9215936490606
5,878.9075249661093
6,878.8918168518514
7,878.8744452041913
8,878.8553932707196
9,878.8346523088999
10,878.8122221940068
11,878.7881119531437
12,878.7623402097497
13,878.7349355292206
14,878.7059366606161
15,878.6753926716603
16,878.6433629748257
17,878.6099172413954
18,878.5751351982817
19,878.5391062998103
20,878.5019292651572
21,878.4637114737956
22,878.4245682175393
23,878.3846218169908
24,878.3440006181813
25,878.3028378889022
26,878.2612706348364
27,878.2194383563001
28,878.1774817682689
29,878.1355415075548
30,878.0937568497116
31,878.0522644550983
32,878.0111971607038
33,877.9706828322536
34,877.930843287953
35,877.8917933003871
36,877.8536396791751
37,877.8164804363487
38,877.7804040379528
39,877.745488746158
40,877.7118020556438
41,877.6794002278799
42,877.648327927869
43,877.6186179685202
44,877.5902911670738
45,877.5633563173966
46,877.5378102835131
47,877.5136382226024
48,877.4908139464743
49,877.4693004273215
50,877.4490504478765
51,877.4300073907204
52,877.4121061570582
53,877.3952742001753
54,877.379432651985
55,877.3644975142197
56,877.350380882213
57,877.3369921711093
58,877.3242393212562
59,877.3120299686957
60,877.300272574687
61,877.288877512965
62,877.277758115002
63,877.2668316736798
64,877.256020406015
65,877.2452523755828
66,877.2344623735679
67,877.2235927534584
68,877.2125942092038
69,877.2014264811182
70,877.190058968602
71,877.1784712250713
72,877.1666533101259
73,877.1546059779621
74,877.1423406888086
75,877.1298794400095
76,877.1172544233391
77,877.1045075234626
78,877.0916896781613
79,877.0788601236477
80,877.0660855480978
81,877.0534391740043
82,877.0409997860289
83,877.0288507169606
84,877.0170788019293
85,877.0057733110493
86,876.9950248716259
87,876.9849243904264
88,876.975561983512
89,876.9670259173657
90,876.9594015630914
91,876.9527703665746
92,876.9472088407102
93,876.9427875894401
94,876.939570376602
95,876.9376132549245
96,876.9369637710986
97,876.937660261372
98,876.9397312486786
99,876.943194947301
100,876.9480588754946
101,876.9543195720753
102,876.9619624113266
103,876.9709615126387
104,876.9812797459991
105,876.9928688384567
106,877.0056695869906
107,877.0196121797575
108,877.0346166225922
109,877.0505932632487
110,877.0674434040757
111,877.0850599956044
112,877.1033284080048
113,877.1221272817878
114,877.1413294608674
115,877.160803009769
116,877.180412313949
117,877.2000192594999
118,877.2194844863259
119,877.2386687065264
120,877.257434076692
121,877.2756456093946
122,877.293172605835
123,877.3098900886321
124,877.3256802115357
125,877.3404336221193
126,877.3540507541205
127,877.3664430275743
128,877.3775339379671
129,877.3872600209301
130,877.3955716840842
131,877.4024338988847
132,877.4078267425482
133,877.4117457769585
134,877.4142022513317
135,877.4152231194761
136,877.4148508694465
137,877.4131431707191
138,877.4101723500319
139,877.4060247121917
140,877.4007997272804
141,877.3946091099455
142,877.3875758175669
143,877.3798329906859
144,877.3715228526316
145,877.3627955792803
146,877.3538081460753
147,877.3447231565465
148,877.3357076533918
149,877.3269319108052
150,877.3185682064839
151,877.3107895731026
152,877.30376853081
153,877.2976758044555
154,877.2926790324145
155,877.2889414773273
156,877.2866207512168
157,877.2858675676724
158,877.2868245326889
159,877.2896249840549
160,877.2943918874541
161,877.3012367965811
162,877.310258885449
163,877.3215440637869
164,877.335164189812
165,877.3511763971063
166,877.3696225534467
167,877.3905288701912
168,877.413905680968
169,877.4397474061943
170,877.4680327151739
171,877.4987248922533
172,877.5317724091173
173,877.5671097005978
174,877.6046581350616
175,877.6443271629838
176,877.6860156203999
177,877.7296131588987
178,877.7750017712134
179,877.8220573811486
180,877.8706514678381
181,877.9206526957051
182,877.9719285215525
183,878.02434674876
184,878.0777769968576
185,878.132092054122
186,878.1871690817914
187,878.2428906407489
188,878.2991455151197
189,878.3558293131844
190,878.4128448350549
191,878.4701022071768
192,878.5275187937474
193,878.5850189042725
194,878.6425333248499
195,878.6999987070055
196,878.7573568514467
197,878.8145539262086
198,878.8715396590094
199,878.9282665396078
200,878.9846890593726
201,879.0407630059636
202,879.0964448243748
203,879.1516910510295
204,879.2064578233478
205,879.2607004635111
206,879.3143731331623
207,879.3674285557104
208,879.4198178049562
209,879.4714901631535
210,879.5223930567862
211,879.5724720817562
212,879.6216711299394
213,879.669932625849
214,879.7171978755555
215,879.7634075213111
216,879.8085020866066
217,879.8524225896416
218,879.8951112007812
219,879.9365119230177
220,879.9765712816089
221,880.0152390148436
222,880.0524687591968
223,880.0882187202025
224,880.1224523180224
225,880.1551387953656
226,880.1862537749677
227,880.2157797533746
228,880.2437065162809
229,880.2700314583584
230,880.2947597894412
231,880.3179046110904
232,880.3394868527763
233,880.3595350636405
234,880.3780850626691
235,880.3951794559431
236,880.4108670333964
237,880.4252020589959
238,880.4382434682316
239,880.4500539864317
240,880.4606991818108
241,880.4702464688712
242,880.478764080255
243,880.4863200272601
244,880.4929810702716
245,880.4988117192075
246,880.5038732794585
247,880.5082229516436
248,880.511912987391
249,880.5149899012738
250,880.5174937406576
251,880.5194574180231
252,880.5209061122866
253,880.5218567460964
254,880.5223175451702
255,880.5222876846068
256,880.5217570270372
257,880.520705958162
258,880.5191053251808
259,880.5169164826167
260,880.5140914495219
261,880.5105731831412
262,880.5062959761713
263,880.5011859857921
264,880.4951619009414
265,880.4881357500418
266,880.480013846744
267,880.470697868265
268,880.4600860593819
269,880.4480745530021
270,880.4345587937872
271,880.4194350452207
272,880.4026019551119
273,880.3839621512769
274,880.3634238379042
275,880.3409023635497
276,880.316321733821
277,880.2896160450914
278,880.2607308184536
279,880.2296242136591
280,880.1962681010582
281,880.1606489685877
282,880.12276864329
283,880.0826448118105
284,880.0403113293108
285,879.9958183103812
286,879.9492319998018
287,879.9006344262397
288,879.8501228476928
289,879.7978090025343
290,879.7438181839731
291,879.6882881590418
292,879.6313679560233
293,879.5732165462834
294,879.5140014476373
295,879.4538972768001
296,879.3930842786765
297,879.3317468598982
298,879.2700721516205
299,879.208248621407
300,879.1464647473757
301,879.0849077610936
302,879.0237624595828
303,878.9632100819625
304,878.9034272434949
305,878.8445849190267
306,878.7868474684569
307,878.7303716985937
308,878.675305958407
309,878.6217892682587
310,878.5699504884229
311,878.5199075374145
312,878.4717666744947
313,878.4256218615416
314,878.3815542166632
315,878.339631566422
316,878.2999080977311
317,878.2624241065018
318,878.2272058380697
319,878.1942654135463
320,878.1636008372161
321,878.1351960837859
322,878.1090212689019
323,878.0850329081686
324,878.063174267258
325,878.0433758009062
326,878.0255556756578
327,878.0096203722289
328,877.9954653668585
329,877.9829758935223
330,877.9720277884699
331,877.9624884165617
332,877.9542176781663
333,877.9470690969819
334,877.9408909914616
335,877.9355277331513
336,877.9308210933635
337,877.9266116761967
338,877.9227404319486
339,877.9190502404133
340,877.9153875478556
341,877.911604034769
342,877.9075582847635
343,877.9031174195735
344,877.898158662728
345,877.8925707953656
346,877.8862554711153
347,877.8791283620084
348,877.8711201134021
349,877.8621770918782
350,877.8522619153225
351,877.8413537590832
352,877.8294484363716
353,877.8165582547623
354,877.8027116536568
355,877.7879526292004
356,877.7723399527582
357,877.7559461886067
358,877.738856519924
359,877.721167400934
360,877.7029850634764
361,877.6844239128432
362,877.6656048481763
363,877.6466535390022
364,877.6276986847126
365,877.6088702800165
366,877.5902979078562
367,877.5721090824053
368,877.5544276669513
369,877.5373723920437
370,877.5210554970894
371,877.5055815146246
372,877.4910462123578
373,877.4775357044272
374,877.4651257400998
375,877.4538811749302
376,877.4438556256481
377,877.4350913057165
378,877.4276190344774
379,877.4214584095063
380,877.416618128315
381,877.4130964412165
382,877.4108817128999
383,877.4099530677638
384,877.4102810945867
385,877.4118285903231
386,877.4145513298633
387,877.4183988553747
388,877.4233152817467
389,877.4292401129187
390,877.4361090596901
391,877.4438548455896
392,877.4524079850189
393,877.461697517917
394,877.4716516875145
395,877.4821985512447
396,877.493266517694
397,877.5047848034241
398,877.5166838033313
399,877.5288953689103
400,877.5413529910192
401,877.5539918864555
402,877.5667489901882
403,877.5795628579696
404,877.5923734872844
405,877.6051220667638
406,877.6177506637262
407,877.6302018566428
408,877.64241831637
409,877.6543423394343
410,877.665915339509
411,877.6770773089768
412,877.6877662696028
413,877.6979177375993
414,877.7074642316359
415,877.7163348518783
416,877.7244549545594
417,877.7317459408044
418,877.7381251709695
419,877.74350600771
420,877.7477979847883
421,877.7509070963625
422,877.7527362031834
423,877.7531855562712
424,877.752153443317
425,877.7495369662811
426,877.7452329592089
427,877.7391390526885
428,877.7311548854603
429,877.7211834551103
430,877.709132590337
431,877.6949165188427
432,877.6784574985263
433,877.6596874756117
434,877.6385497315586
435,877.615000480892
436,877.5890103841801
437,877.5605659440765
438,877.5296707571457
439,877.4963465990332
440,877.4606343244299
441,877.4225945663667
442,877.3823082226396
443,877.3398767211993
444,877.2954220605775
445,877.2490866240178
446,877.2010327658338
447,877.1514421675795
448,877.1005149631857
449,877.0484686368177
450,876.9955367027018
451,876.941967181585
452,876.8880208942062
453,876.8339695970059
454,876.7800939869804
455,876.7266816003504
456,876.6740246249217
457,876.6224176407891
458,876.5721553005326
459,876.5235299599349
460,876.4768292736552
461,876.4323337756827
462,876.3903144695298
463,876.3510304566239
464,876.3147266334233
465,876.2816314892518
466,876.2519550371381
467,876.2258869073457
468,876.203594627634
469,876.1852221082517
470,876.1708883458803
471,876.1606863589114
472,876.1546823645355
473,876.1529152056524
474,876.1553960339087
475,876.1621082545269
476,876.1730077371723
477,876.1880232930513
478,876.2070574124397
479,876.2299872513574
480,876.2566658527476
481,876.2869235854972
482,876.320569782149
483,876.3573945529791
484,876.397170752079
485,876.4396560714983
486,876.484595241734
487,876.5317223195611
488,876.5807630464288
489,876.6314372613599
490,876.6834613503352
491,876.7365507096957
492,876.7904221968103
493,876.8447965403041
494,876.8994006850954
495,876.9539700523422
496,877.008250698755
497,877.062001361649
498,877.1149953744675
499,877.167022433329
500,877.2178901917035
501,877.2674256603455
502,877.3154763929174
503,877.3619114423035
504,877.4066220771812
505,877.4495222532103
506,877.490548838149
507,877.5296615943035
508,877.5668429246812
509,877.6020973922622
510,877.6354510257627
511,877.6669504286839
512,877.6966617085044
513,877.7246692387332
514,877.751074261093
515,877.7759933323712
516,877.7995566222417
517,877.8219060735463
518,877.8431934422757
519,877.8635782378885
520,877.8832255848599
521,877.9023040250195
522,877.9209832788482
523,877.9394319823804
524,877.9578154149897
525,877.9762932343166
526,877.9950172394738
527,878.014129190751
528,878.0337587199257
529,878.0540213679002
530,878.0750167856215
531,878.096827131386
532,878.1195156947236
533,878.1431257753036
534,878.16767984385
535,878.1931790093022
536,878.2196028117926
537,878.2469093548295
538,878.2750357830638
539,878.3038991046083
540,878.3333973491646
541,878.3634110452354
542,878.3938049909757
543,878.424430283392
544,878.4551265615746
545,878.4857244147825
546,878.5160479067672
547,878.5459171719399
548,878.5751510438508
549,878.6035696796376
550,878.6309971452733
551,878.6572639270524
552,878.6822093357378
553,878.7056837710683
554,878.7275508165468
555,878.7476891391425
556,878.7659941758873
557,878.7823795971055
558,878.7967785415128
559,878.8091446206736
560,878.8194526905954
561,878.8276993889268
562,878.8339034389727
563,878.8381057259681
564,878.840369154616
565,878.8407782982899
566,878.8394388489511
567,878.8364768723931
568,878.8320378671882
569,878.8262856211222
570,878.8194008583928
571,878.8115796737391
572,878.8030317544712
573,878.7939783973683
574,878.7846503333584
575,878.7752853771783
576,878.7661259220331
577,878.7574163028893
578,878.7494000581233
579,878.7423171269425
580,878.7364010266084
581,878.731876057088
582,878.7289545816274
583,878.7278344314855
584,878.7286964825554
585,878.7317024502416
586,878.7369929457299
587,878.7446858319125
588,878.7548749119563
589,878.767628978159
590,878.7829912425431
591,878.8009791631567
592,878.8215846713915
593,878.844774795344
594,878.8704926623652
595,878.8986588526327
596,878.9291730676931
597,878.9619160738141
598,878.9967518774116
599,879.0335300871106
600,879.0720884152757
601,879.1122552732244
602,879.1538524185916
603,879.1966976171327
604,879.2406072814367
605,879.2853990461854
606,879.3308942374574
607,879.3769201947831
608,879.4233124084855
609,879.4699164391428
610,879.5165895901733
611,879.5632023097073
612,879.6096393048683
613,879.6558003597877
614,879.7016008572447
615,879.7469720120158
616,879.7918608310666
617,879.8362298208476
618,879.8800564647458
619,879.923332494526
620,879.9660629798404
621,880.0082652611892
622,880.0499677541399
623,880.0912086545063
624,880.1320345739522
625,880.1724991335713
626,880.2126615414198
627,880.252585179402
628,880.2923362233811
629,880.3319823157443
630,880.3715913023728
631,880.4112300388417
632,880.450963266188
633,880.4908525555061
634,880.530955322384
635,880.5713239154541
636,880.6120047863388
637,880.6530377499132
638,880.694455344749
639,880.7362823052104
640,880.7785351586451
641,880.8212219611007
642,880.8643421812252
643,880.9078867351221
644,880.9518381668487
645,880.9961709620749
646,881.0408519779169
647,881.0858409700235
648,881.1310911967338
649,881.1765500788754
650,881.2221598937762
651,881.267858483802
652,881.3135799622183
653,881.3592554015506
654,881.4048134916856
655,881.4501811565764
656,881.4952841193443
657,881.5400474059248
658,881.5843957781831
659,881.6282540898771
660,881.671547563332
661,881.7142019904379
662,881.7561438669843
663,881.7973004726923
664,881.8375999103527
665,881.8769711174848
666,881.9153438638665
667,881.9526487479407
668,881.9888172041092
669,882.0237815307154
670,882.0574749446266
671,882.0898316639456
672,882.1207870180824
673,882.150277585162
674,882.1782413581955
675,882.2046179405079
676,882.2293487672798
677,882.2523773462023
678,882.273649508626
679,882.2931136642492
680,882.3107210569156
681,882.3264260241025
682,882.3401862651302
683,882.3519631221939
684,882.361721875392
685,882.3694320495459
686,882.3750677274475
687,882.3786078611136
688,882.3800365690669
689,882.3793434036388
690,882.3765235694351
691,882.371578074776
692,882.3645138027247
693,882.3553434949138
694,882.3440856461723
695,882.3307643095378
696,882.3154088121396
697,882.2980533864111
698,882.2787367286182
699,882.2575015045213
700,882.2343938272213
701,882.2094627346374
702,882.1827596941769
703,882.1543381596996
704,882.1242532004137
705,882.0925612131575
706,882.0593197194222
707,882.0245872379869
708,881.9884232158086
709,881.9508879963664
710,881.9120428064824
711,881.8719497479219
712,881.8306717868347
713,881.788272741454
714,881.7448172752033
715,881.7003709055812
716,881.655000036572
717,881.6087720152191
718,881.5617552054513
719,881.5140190671893
720,881.4656342260588
721,881.416672517847
722,881.3672069927504
723,881.3173118678459
724,881.2670624203477
725,881.2165348174728
726,881.1658058814941
727,881.1149527906858
728,881.064052716887
729,881.0131823982404
730,880.9624176435732
731,880.9118327651084
732,880.8614999393742
733,880.8114885012415
734,880.7618641813393
735,880.7126883019089
736,880.6640169505979
737,880.6159001556999
738,880.5683810891021
739,880.5214953236051
740,880.4752701687474
741,880.4297241043232
742,880.3848663247113
743,880.3406964014409
744,880.2972040671413
745,880.2543691210426
746,880.2121614539699
747,880.1705411896609
748,880.1294589401583
749,880.0888561755518
750,880.0486657106069
751,880.008812311351
752,879.969213423273
753,879.9297800194942
754,879.8904175620107
755,879.8510270629071
756,879.8115062275743
757,879.7717506599714
758,879.7316551097329
759,879.6911147400873
760,879.6500263931403
761,879.6082898260993
762,879.5658088901013
763,879.5224926231747
764,879.4782562298467
765,879.433021921864
766,879.3867195995588
767,879.3392873632095
768,879.2906718560384
769,879.2408284507396
770,879.1897212971842
771,879.137323251154
772,879.0836157046313
773,879.0285883378655
774,878.9722388114452
775,878.9145724131752
776,878.8556016712217
777,878.7953459430228
778,878.7338309893108
779,878.6710885440033
780,878.6071558926523
781,878.5420754732854
782,878.4758945127705
783,878.4086647086284
784,878.3404419604044
785,878.2712861477066
786,878.2012609466827
787,878.1304336751479
788,878.0588751583848
789,877.9866596104367
790,877.9138645271101
791,877.8405705860254
792,877.7668615470976
793,877.6928241462508
794,877.6185479775066
795,877.5441253626519
796,877.4696512105993
797,877.3952228686837
798,877.3209399661797
799,877.246904247585
800,877.1732193902327
801,877.0999907981388
802,877.027325362985
803,876.9553311846246
804,876.8841172468115
805,876.81379304747
806,876.7444681857058
807,876.6762519097192
808,876.6092526310672
809,876.5435774117275
810,876.4793314313391
811,876.4166174424937
812,876.3555352216715
813,876.2961810227166
814,876.23864703898
815,876.1830208790797
816,876.1293850595146
817,876.0778165160788
818,876.0283861361476
819,875.9811583153768
820,875.9361905446169
821,875.8935330354462
822,875.853228394459
823,875.8153113555218
824,875.7798085751961
825,875.7467384909339
826,875.7161112365275
827,875.6879286061024
828,875.6621840571948
829,875.6388627447268
830,875.6179415804932
831,875.5993893172367
832,875.5831666625838
833,875.5692264347638
834,875.5575137767677
835,875.5479664463504
836,875.5405151955885
837,875.5350842465751
838,875.5315918608336
839,875.5299509910191
840,875.5300699968317
841,875.5318534048754
842,875.5352026948409
843,875.5400170998101
844,875.5461944132007
845,875.553631796196
846,875.5622265771533
847,875.5718770303171
848,875.5824831173885
849,875.5939471733426
850,875.6061745182149
851,875.6190739804366
852,875.6325583242924
853,875.6465445813772
854,875.6609542906407
855,875.6757136535189
856,875.6907536117313
857,875.7060098569938
858,875.7214227838729
859,875.7369373982965
860,875.7525031940718
861,875.768074007951
862,875.7836078610025
863,875.7990667919101
864,875.8144166872326
865,875.8296271136966
866,875.8446711571848
867,875.8595252727266
868,875.8741691505096
869,875.8885856042964
870,875.9027604895624
871,875.916682658438
872,875.9303439568064
873,875.9437392660083
874,875.9568665885743
875,875.9697271746351
876,875.9823256823742
877,875.9946703617434
878,876.0067732470973
879,876.0186503436735
880,876.0303217958931
881,876.0418120305411
882,876.0531498718298
883,876.0643686261615
884,876.075506132501
885,876.0866047715127
886,876.0977114245986
887,876.1088773730193
888,876.1201581272508
889,876.1316131782792
890,876.1433056660438
891,876.1553019641786
892,876.1676711824642
893,876.1804845892688
894,876.1938149580867
895,876.2077358464323
896,876.2223208204491
897,876.2376426423425
898,876.2537724395122
899,876.2707788749617
900,876.2887273385408
901,876.3076791773972
902,876.3276909819399
903,876.3488139414814
904,876.3710932813582
905,876.3945677894872
906,876.4192694346887
907,876.4452230736716
908,876.4724462407971
909,876.5009490141983
910,876.5307339503349
911,876.5617960754957
912,876.5941229208224
913,876.6276945913361
914,876.6624838686946
915,876.6984563574225
916,876.7355706905474
