acceleration,velocity,displacement
0.009911648256237367,0.0,0.0
0.009809281432710282,4.930232422236912e-06,1.232558105559228e-09
0.009691752548380107,9.80549091750951e-06,4.916488940495833e-09
0.009558681584514353,1.4618099450733125e-05,1.1022386532556492e-08
0.00940974158310909,1.9360205242638986e-05,1.951696270589952e-08
0.009244663347397146,2.4023806475265547e-05,3.036296563537565e-08
0.009063240198255974,2.8600782361678826e-05,4.3519112844611747e-08
0.008865332674248442,3.308292557980493e-05,5.894003982998268e-08
0.00865087303623958,3.746197700742694e-05,7.657626547679066e-08
0.008419869420147705,4.172966262152376e-05,9.637417538402833e-08
0.008172409481375612,4.587773234690459e-05,1.1827602412613541e-07
0.007908663397147483,4.989800056653537e-05,1.422199573544954e-07
0.007628886132197117,5.3782387948871515e-05,1.6814005448334713e-07
0.007333418913354498,5.752296421025942e-05,1.9596639252312987e-07
0.007022689886975983,6.111199141034204e-05,2.2562513142828022e-07
0.0066972139485080885,6.454196736921306e-05,2.5703862112316897e-07
0.006357591738367586,6.780566879093198e-05,2.9012553016320525e-07
0.006004507794083311,7.08961936740447e-05,3.248009957794494e-07
0.005638727836710714,7.380700258174322e-05,3.609767948433964e-07
0.00526109515465153,7.653195832958378e-05,3.985615350712281e-07
0.004872526039677445,7.906536362816603e-05,4.374608655606656e-07
0.004474004241269929,8.140199619840288e-05,4.775777055173078e-07
0.00406657444498433,8.353714086996645e-05,5.188124897844002e-07
0.0036513348386687664,8.546661819087972e-05,5.610634295496117e-07
0.0032294288805421604,8.718680912068246e-05,6.042267863775023e-07
0.0028020364067492544,8.869467544250531e-05,6.481971575182992e-07
0.0023703642201156256,8.998777559922153e-05,6.92867770278731e-07
0.001935636306391914,9.106427573084841e-05,7.381307831112484e-07
0.0014990838358844643,9.192295576641751e-05,7.838775909855649e-07
0.0010619351157034852,9.25632105043145e-05,8.29999132553248e-07
0.0006254056495351922,9.298504569562417e-05,8.763861966032326e-07
0.0001906884418635582,9.318906921847385e-05,9.229297253317571e-07
-0.00024105533457566112,9.317647749529583e-05,9.695211120101995e-07
-0.0006687052030042856,9.294903736090084e-05,1.0160524907242487e-06
-0.0010911896939708177,9.250906363665707e-05,1.062417015973638e-06
-0.0015074940503751442,9.185939270057058e-05,1.108509130057945e-06
-0.0019166672982040796,9.100335236342577e-05,1.154224816323944e-06
-0.002317828660199997,8.994472837382476e-05,1.1994618365082568e-06
-0.002710173281516412,8.868772788839566e-05,1.244119950573812e-06
-0.0030929772329392233,8.723694025978175e-05,1.2881011176108562e-06
-0.0034656017621043254,8.559729551102086e-05,1.3313096765535568e-06
-0.0038274967655200403,8.377402087911476e-05,1.3736525056510908e-06
-0.004178203450082422,8.177259582521415e-05,1.415039159827173e-06
-0.004517356150643982,7.959870592503255e-05,1.4553819852647347e-06
-0.004844683276531912,7.725819606823857e-05,1.4945962107630525e-06
-0.0051600073654345545,7.475702340774696e-05,1.5326000156320489e-06
-0.0054632442150245935,7.210121051263218e-05,1.5693145741121437e-06
-0.005754401046637712,6.92967991972166e-05,1.604664076539606e-06
-0.00603357365196972,6.634980552256475e-05,1.6385757277195513e-06
-0.0063009424953160776,6.32661764857433e-05,1.6709797232216283e-06
-0.006556767780572636,6.005174891677112e-05,1.7018092045722568e-06
-0.006801383527004757,5.671221108987677e-05,1.7310001945739187e-06
-0.007035190726622056,5.3253067526470065e-05,1.7584915142280055e-06
-0.007258649688794038,4.967960742261604e-05,1.784224682965277e-06
-0.007472271721019971,4.5996877070162535e-05,1.8081438040884717e-06
-0.007676610338252813,4.220965655534434e-05,1.8301954374948484e-06
-0.007872252216188412,3.8322440916734035e-05,1.8503284618628681e-06
-0.00805980809274749,3.433942583950006e-05,1.8684939285519266e-06
-0.008239903779197687,3.0264497871513765e-05,1.8846449094796801e-06
-0.008413171385553891,2.610122908032587e-05,1.89873634121764e-06
-0.00858024081497523,2.185287603019359e-05,1.9107248674952698e-06
-0.008741731552042433,1.7522382938439174e-05,1.920568682237428e-06
-0.008898244759597312,1.3112388860529239e-05,1.92822737518717e-06
-0.009050355697426399,8.62523874627331e-06,1.9336617820888706e-06
-0.009198606473859474,4.0629982034518415e-06,1.9368338413263017e-06
-0.00934349914041625,-5.725282001170894e-07,1.9377064588271353e-06
-0.009485489149253503,-5.279775272534528e-06,1.9362433829589724e-06
-0.009624979216332553,-1.005739236393104e-05,1.932409091049856e-06
-0.009762313664160423,-1.4904215584054286e-05,1.9261686890628597e-06
-0.00989777335098221,-1.9819237337839944e-05,1.917487825832386e-06
-0.010031571324166964,-2.4801573506627237e-05,1.9063326231212692e-06
-0.010163849356751182,-2.9850428676856775e-05,1.8926696225753982e-06
-0.010294675526690939,-3.496505989771731e-05,1.8764657504317547e-06
-0.010424042971871668,-4.0144739522357957e-05,1.857688300576736e-06
-0.010551869903822066,-4.5388717741281386e-05,1.8363049362608262e-06
-0.010678000900045639,-5.069618544224831e-05,1.8122837104649438e-06
-0.010802209431146908,-5.606623802504645e-05,1.7855931045981201e-06
-0.01092420152537047,-6.14978407641758e-05,1.7562020849008146e-06
-0.011043620435973315,-6.698979625451174e-05,1.7240801756461427e-06
-0.011160052158333097,-7.254071440308834e-05,1.6891975479817427e-06
-0.011273031643418205,-7.814898535352617e-05,1.651525123042589e-06
-0.011382049568356948,-8.381275565646996e-05,1.61103468779009e-06
-0.011486559547962521,-8.952990793554983e-05,1.567699021892085e-06
-0.011585985695108264,-9.529804424631753e-05,1.521492033846618e-06
-0.011679730452049295,-0.00010111447328310691,1.472388904464262e-06
-0.011767182613653638,-0.00010697620154953265,1.420366235756102e-06
-0.01184772545677288,-0.00011287992856713928,1.365402203226934e-06
-0.011920744893301277,-0.00011882204615465782,1.3074767095464848e-06
-0.011985637582710446,-0.00012479864177366076,1.2465715375644052e-06
-0.012041818962964966,-0.00013080550591007962,1.18267050064347e-06
-0.01208873117090243,-0.00013683814344354648,1.1157595883050635e-06
-0.012125850816263318,-0.00014289178894033792,1.0458271052090924e-06
-0.012152696553954928,-0.00014896142578289248,9.728638015282848e-07
-0.0121688363769643,-0.00015504180901562228,8.968629928286561e-07
-0.012173894532712354,-0.00016112749174304145,8.178206676389902e-07
-0.012167557952049518,-0.00016721285486423192,7.357355809871718e-07
-0.012149582077362296,-0.00017329213987158488,6.506093323032176e-07
-0.012119795986641186,-0.00017935948438758573,5.624464262384249e-07
-0.012078106733092427,-0.00018540896006751913,4.712543151246487e-07
-0.01202450285249115,-0.00019143461246391502,3.7704342199179015e-07
-0.011959057026629876,-0.00019743050243369527,2.798271432673876e-07
-0.011881927920489579,-0.00020339074867047513,1.79621830491345e-07
-0.011793361222720436,-0.00020930957095627764,7.64467505846568e-08
-0.011693689908084481,-0.00021518133373897886,-2.9675975589157322e-08
-0.011583333713084691,-0.00022100058964427116,-1.3872145643496984e-07
-0.01146279779309256,-0.00022676212252081547,-2.506621344762415e-07
-0.011332670529251965,-0.0002324609896014016,-3.6546791250679575e-07
-0.011193620476880434,-0.0002380925623529347,-4.831063004953798e-07
-0.011046392480716368,-0.0002436525655923339,-6.03542582481697e-07
-0.010891803011505814,-0.00024913711446538945,-7.267400024961278e-07
-0.010730734791357692,-0.0002545427489161053,-8.526599683415014e-07
-0.010564130765944207,-0.0002598664653054308,-9.812622718968854e-07
-0.010392987455431218,-0.00026510574486077464,-1.1125053244384367e-06
-0.010218347689982574,-0.0002702585786471281,-1.2463464053154123e-06
-0.010041292726309914,-0.00027532348875120125,-1.3827419221649945e-06
-0.009862933751219882,-0.0002802995453705837,-1.5216476806954409e-06
-0.009684402796759207,-0.00028518637950757846,-1.6630191619149815e-06
-0.009506843109211995,-0.00028998419098407124,-1.806811804537894e-06
-0.0093313990285335,-0.00029469375151850764,-1.9529812901635386e-06
-0.009159205449988186,-0.00029931640263813805,-2.1014838287027e-06
-0.008991376958977271,-0.0003038540482403794,-2.2522764414223294e-06
-0.008828996751510556,-0.0003083091416680014,-2.4053172388994246e-06
-0.008673105473358882,-0.0003126846672242187,-2.5605656911224795e-06
-0.00852469012926473,-0.0003169841161248746,-2.7179828869597527e-06
-0.008384673226814575,-0.0003212114569638944,-2.877531780231945e-06
-0.00825390232349254,-0.0003253711008514712,-3.0391774196857862e-06
-0.008133140140805167,-0.00032946786146754564,-3.2028871602655405e-06
-0.008023055399213438,-0.0003335069103525503,-3.3686308532205642e-06
-0.00792421450727809,-0.0003374937278291732,-3.536381012765995e-06
-0.007837074204182,-0.0003414340500070382,-3.706112957225048e-06
-0.007761975221637256,-0.000345333812363493,-3.877804922817681e-06
-0.0076991370219262854,-0.00034919909042438387,-4.05143814851465e-06
-0.007648653684267811,-0.0003530360381009324,-4.2269969306459795e-06
-0.007610491029712977,-0.00035685082427942756,-4.40446864624107e-06
-0.007584485073584358,-0.0003606495683052519,-4.583843744387239e-06
-0.007570341867258677,-0.0003644382750404627,-4.7651157052236675e-06
-0.007567638745790054,-0.0003682227701937249,-4.948280966532215e-06
-0.007575826950262515,-0.000372008636617738,-5.133338818235081e-06
-0.007594235554250972,-0.0003758011522438664,-5.320291265450482e-06
-0.007622076589686409,-0.0003796052302798507,-5.5091428610814116e-06
-0.007658451233460847,-0.00038342536223563755,-5.699900509210284e-06
-0.007702356887770359,-0.00038726556426594536,-5.89257324083568e-06
-0.007752694978363048,-0.00039112932723247873,-6.087171963710286e-06
-0.0078082793142923,-0.0003950195708056426,-6.2837091882198164e-06
-0.007867844891122975,-0.0003989386018569964,-6.482198731385476e-06
-0.007930057055337617,-0.00040288807734361156,-6.682655401185628e-06
-0.007993520969918832,-0.0004068689718499257,-6.885094663484013e-06
-0.008056791337721712,-0.0004108815499268358,-7.089532293928203e-06
-0.00811838235787336,-0.0004149253433507346,-7.295984017247595e-06
-0.008176777904279913,-0.0004189991334162729,-7.504465136439347e-06
-0.00823044191605061,-0.00042310093837135554,-7.714990154386255e-06
-0.008277828980612514,-0.0004272280060955213,-7.927572390502973e-06
-0.008317395078878383,-0.00043137681211039404,-8.142223595054451e-06
-0.008347608448168389,-0.00043554306299215575,-8.358953563830089e-06
-0.008366960498920509,-0.00043972170522892795,-8.57776975588536e-06
-0.008373976699885745,-0.0004439069395286295,-8.798676917074749e-06
-0.008367227333408993,-0.00044809224053695324,-9.021676712091146e-06
-0.008345338021610192,-0.00045227038187570804,-9.246767367694311e-06
-0.008306999931642148,-0.00045643346636402114,-9.473943329754243e-06
-0.008250979579690097,-0.0004605729612418542,-9.703194936655712e-06
-0.008176128165038057,-0.00046467973817803624,-9.934508111510684e-06
-0.008081390372051859,-0.00046874411781230873,-1.016786407550827e-05
-0.007965812573735931,-0.00047275591854875566,-1.0403239084598536e-05
-0.007828550354986913,-0.0004767045092809364,-1.064060419155596e-05
-0.007668875254021577,-0.0004805788656831885,-1.087992503529699e-05
-0.007486180606916693,-0.00048436762964842306,-1.1121161659129894e-05
-0.007279986374744408,-0.00048805917139383836,-1.1364268359390458e-05
-0.007049942829890716,-0.0004916416536949971,-1.1609193565662668e-05
-0.006795832978935949,-0.0004951030976472038,-1.1855879753498218e-05
-0.006517573614977195,-0.0004984314492956821,-1.210426339023394e-05
-0.006215214923787745,-0.0005016146464303733,-1.2354274914165453e-05
-0.005888938602661704,-0.0005046406848119856,-1.2605838746976043e-05
-0.005539054479860744,-0.0005074976830826163,-1.2858873338949693e-05
-0.005165995653462616,-0.0005101739456159471,-1.3113291246124334e-05
-0.004770312209260613,-0.0005126580225816279,-1.3368999238173728e-05
-0.004352663625207464,-0.000514938766540245,-1.3625898435454196e-05
-0.0039138100143489155,-0.000517005384950134,-1.388388447332679e-05
-0.0034546023907451296,-0.0005188474880514076,-1.4142847691577177e-05
-0.0029759721602791805,-0.0005204551316891637,-1.440267334651232e-05
-0.002478920041304157,-0.0005218188547395595,-1.46632418431195e-05
-0.001964504613246894,-0.0005229297109031972,-1.492442898453019e-05
-0.001433830683507928,-0.0005237792947273859,-1.5186106235937836e-05
-0.0008880376633465509,-0.0005243597618140995,-1.5448141000073208e-05
-0.0003282881529660319,-0.0005246638432681777,-1.571039690134378e-05
0.00024424305288854814,-0.000524684854543197,-1.597273407579662e-05
0.0008283793233832073,-0.0005244166989491291,-1.6235009464169702e-05
0.0014229517044298593,-0.0005238538661921758,-1.6497077105455028e-05
0.002026807390204611,-0.0005229914264185172,-1.67587884286077e-05
0.002638816980084717,-0.0005218250203259449,-1.7019992540293817e-05
0.0032578803850273775,-0.0005203508459846668,-1.728053650687147e-05
0.0038829313038873632,-0.0005185656430624382,-1.7540265629133247e-05
0.0045129402565844785,-0.0005164666751723202,-1.7799023708691938e-05
0.005146916223874242,-0.0005140517110522056,-1.805665330524807e-05
0.005783907000801211,-0.0005113190052460367,-1.831299598432263e-05
0.006422998423484981,-0.0005082672788899651,-1.856789255535663e-05
0.0070633126683247414,-0.0005048957011170126,-1.8821183300358373e-05
0.0077040058454009575,-0.0005012038714885813,-1.9072708193509772e-05
0.008344265121659313,-0.0004971918037468162,-1.932230711231862e-05
0.00898330561226282,-0.0004928599110633357,-1.956982004102116e-05
0.009620367254243,-0.0004882089928467092,-1.981508726699867e-05
0.010254711823874548,-0.00048324022307717984,-2.0057949570979642e-05
0.010885620202091639,-0.0004779551400706883,-2.0298248411766608e-05
0.01151238995150963,-0.00047235563753228796,-2.0535826106167352e-05
0.012134333241056098,-0.00046644395673414653,-2.077052600473396e-05
0.01275077512824801,-0.0004602226796418205,-2.1002192663827952e-05
0.013361052186849071,-0.0004536947228130462,-2.1230672014441668e-05
0.013964511455968618,-0.0004468633319023418,-2.1455811528120515e-05
0.01456050968675862,-0.00043973207661666,-2.1677460380250265e-05
0.015148412876265538,-0.00043230484597590397,-2.1895469610898406e-05
0.015727596105852216,-0.0004245858437303745,-2.2109692283324976e-05
0.016297443734326723,-0.0004165795837703298,-2.2319983640200153e-05
0.01685735001764503,-0.00040829088533233686,-2.252620125747582e-05
0.017406720229254213,-0.00039972486777061205,-2.2728205195751558e-05
0.01794497233560919,-0.0003908869446293962,-2.2925858148851558e-05
0.01847153924094019,-0.00038178281673525885,-2.311902558919272e-05
0.01898587156175625,-0.00037241846403458475,-2.3307575909385182e-05
0.01948744083781708,-0.00036280013593469144,-2.34913805593775e-05
0.019975743044898377,-0.00035293433996401257,-2.3670314178352177e-05
0.020450302260189495,-0.0003428278286377406,-2.3844254720502616e-05
0.020910674353143862,-0.00033248758448440723,-2.4013083573783153e-05
0.021356450619590146,-0.0003219208032412237,-2.417668567071456e-05
0.021787261313444484,-0.00031113487525796503,-2.4334949590339356e-05
0.022202779039047014,-0.00030013736516984214,-2.4487767650446306e-05
0.02260272195568638,-0.0002889359899211588,-2.4635035989219055e-05
0.022986856731892928,-0.00027753859524926397,-2.477665463551166e-05
0.023355001179355992,-0.00026595313077145175,-2.4912527567016838e-05
0.02370702649415903,-0.000254187623853073,-2.504256275567297e-05
0.02404285903077303,-0.00024225015247183998,-2.51666721997542e-05
0.02436248152542608,-0.0002301488173327902,-2.5284771942205355e-05
0.024665933671692154,-0.00021789171353351066,-2.539678207492193e-05
0.024953311945045402,-0.00020548690212932627,-2.5502626728837638e-05
0.025224768586969683,-0.0001929423819963225,-2.560223404986905e-05
0.025480509692190203,-0.00018026606242653253,-2.5695536160974766e-05
0.025720792384802755,-0.0001674657369072843,-2.578246911080822e-05
0.02594592111214077,-0.00015454905853304842,-2.5862972809668304e-05
0.02615624312185811,-0.0001415235174745487,-2.5936990953670203e-05
0.026352143211341963,-0.0001283964208912487,-2.600447093826165e-05
0.02653403784796289,-0.00011517487562642248,-2.6065363762391067e-05
0.026702368758556208,-0.0001018657739747927,-2.611962392479137e-05
0.02685759608425132,-8.847578276409082e-05,-2.6167209313976093e-05
0.02700019119903551,-7.501133594326911e-05,-2.6208081093652932e-05
0.027130629300917513,-6.147863081828085e-05,-2.624220358534332e-05
0.02724938189962899,-4.788362801814423e-05,-2.6269544150052425e-05
0.02735690933754323,-3.4232055208851176e-05,-2.6290073070859175e-05
0.027453653486371094,-2.0529414502872597e-05,-2.6303763438287105e-05
0.027540030754420772,-6.78099344267463e-06,-2.631059104027349e-05
0.027616425509637627,7.00812062333997e-06,-2.6310534258478322e-05
0.02768318397836276,2.083302299534007e-05,-2.630357397257365e-05
0.027740608640644756,3.468897115009195e-05,-2.6289693474037294e-05
0.027788953129013055,4.8571361592506405e-05,-2.6268878390851646e-05
0.027828417646535195,6.247570428639346e-05,-2.624111662438192e-05
0.027859144936138093,7.639759493206178e-05,-2.6206398299577307e-05
0.027881216844109394,9.033268537712365e-05,-2.616471572950001e-05
0.02789465152205665,0.00010427665246866517,-2.6116063395038563e-05
0.027899401304494233,0.00011822516567530289,-2.6060437940502572e-05
0.02789535129068735,0.00013217385382409828,-2.5997838185627722e-05
0.027882318657448103,0.00014611827131113213,-2.5928265154343916e-05
0.027860052732304196,0.0001600538641585702,-2.585172212047649e-05
0.027828235854638422,0.00017397593630530587,-2.576821467036052e-05
0.027786485044645023,0.00018787961653012674,-2.567775078215166e-05
0.027734354495283928,0.00020175982641510898,-2.558034092141535e-05
0.027671338907761172,0.00021561124976587025,-2.5475998152370107e-05
0.027596877702495172,0.00022942830391843434,-2.536473826394903e-05
0.027510360142715976,0.00024320511337973713,-2.5246579909624487e-05
0.027411131396087893,0.0002569354862644381,-2.5121544759713443e-05
0.027298499532117517,0.0002706128939964894,-2.4989657664648212e-05
0.027171743423329,0.00028423045473535105,-2.485094682746525e-05
0.027030121498761325,0.00029778092096587364,-2.4705443983539947e-05
0.026872881288295396,0.0003112566716626378,-2.455318458538282e-05
0.026699269682503305,0.0003246497094053375,-2.4394207990115826e-05
0.026508543804724057,0.0003379516627771444,-2.4228557647070206e-05
0.026299982354122967,0.00035115379431685615,-2.4056281282796705e-05
0.026072897244948157,0.0003642470142166239,-2.3877431080663335e-05
0.025826645347140614,0.00037722189986464613,-2.3692063852143018e-05
0.02556064012627151,0.00039006872123299914,-2.3500241196868605e-05
0.025274362984065057,0.0004027774720105833,-2.330202964855771e-05
0.02496737411469256,0.0004153379062852727,-2.3097500803983745e-05
0.024639322713384728,0.000427739580492292,-2.2886731432289354e-05
0.024289956392941462,0.00043997190026887355,-2.2669803562099062e-05
0.023919129668233733,0.00045202417178416733,-2.24468045440858e-05
0.02352681135960249,0.0004638856570411264,-2.2217827086879478e-05
0.02311309076156198,0.0004755456325714175,-2.1982969264476342e-05
0.02267818244009788,0.0004869934508718325,-2.174233449361553e-05
0.022222429554537907,0.0004982186038704914,-2.149603147992995e-05
0.021746305632904306,0.000509210787667352,-2.124417413204549e-05
0.021250414757486527,0.0005199599677649497,-2.0986881443187413e-05
0.020735490145935863,0.0005304564439908053,-2.0724277340248474e-05
0.020202391147770126,0.0005406909143142318,-2.0456490500672216e-05
0.01965209871395493,0.0005506545367796631,-2.018365413789874e-05
0.01908570943063436,0.0005603389888158104,-1.9905905756499873e-05
0.018504428234819577,0.0005697365232321739,-1.9623386878487876e-05
0.01790955995233192,0.0005788400202789617,-1.9336242742610093e-05
0.017302499817639136,0.0005876430352214545,-1.9044621978734988e-05
0.01668472314995458,0.000596139840963353,-1.8748676259688785e-05
0.016057774368864214,0.0006043254653430577,-1.8448559933112182e-05
0.015423255537092707,0.0006121957228195469,-1.814442963607153e-05
