frame_number,force
0,782.8684100052735
1,782.7394828119045
2,782.6109340329525
3,782.4831399496744
4,782.3564726052978
5,782.2312977546002
6,782.1079728909056
7,781.9868453698509
8,781.8682506455673
9,781.7525106312715
10,781.6399321929104
11,781.5308057814881
12,781.4254042068799
13,781.3239815532625
14,781.2267722340873
15,781.1339901830897
16,781.0458281772228
17,780.9624572871911
18,780.884026451055
19,780.8106621662627
20,780.7424682958525
21,780.6795259855691
22,780.6218936897991
23,780.5696073049074
24,780.5226804086901
25,780.4811046048923
26,780.4448499724627
27,780.4138656200814
28,780.3880803467393
29,780.3674034083559
30,780.3517253886816
31,780.3409191705614
32,780.3348410015249
33,780.3333316459775
34,780.3362176150729
35,780.3433124645654
36,780.3544181504185
37,780.3693264314895
38,780.3878203080596
39,780.4096754842373
40,780.4346618415353
41,780.462544910614
42,780.493087328631
43,780.526050270698
44,780.5611948450226
45,780.598283441964
46,780.6370810276038
47,780.6773563730281
48,780.7188832117114
49,780.7614413190765
50,780.8048175100075
51,780.8488065515581
52,780.8932119894608
53,780.9378468882335
54,780.9825344852517
55,781.0271087589146
56,781.0714149103572
57,781.1153097576281
58,781.1586620412327
59,781.2013526404062
60,781.2432747001137
61,781.284333669605
62,781.3244472547424
63,781.3635452883271
64,781.401569524779
65,781.4384733671542
66,781.4742215350791
67,781.5087896815916
68,781.5421639655316
69,781.5743405847011
70,781.6053252738161
71,781.6351327702524
72,781.6637862495302
73,781.6913167314177
74,781.7177624568001
75,781.7431682357459
76,781.7675847690608
77,781.7910679486037
78,781.8136781443426
79,781.8354794874409
80,781.8565391587119
81,781.8769266911539
82,781.8967132941215
83,781.9159712050924
84,781.934773073312
85,781.9531913780916
86,781.9712978831808
87,781.9891631273744
88,782.0068559505652
89,782.0244430540341
90,782.0419885938927
91,782.0595538071972
92,782.0771966709838
93,782.094971594877
94,782.1129291476577
95,782.1311158173742
96,782.1495738038276
97,782.1683408420421
98,782.1874500557681
99,782.2069298409258
100,782.2268037797949
101,782.2470905874881
102,782.2678040928457
103,782.2889532562936
104,782.3105422270644
105,782.3325704413328
106,782.355032761545
107,782.3779196558667
108,782.4012174152678
109,782.424908404371
110,782.4489713411758
111,782.4733816005099
112,782.4981115365284
113,782.523130820225
114,782.548406788078
115,782.5739047973251
116,782.5995885824326
117,782.625420607054
118,782.6513624067868
119,782.6773749200088
120,782.703418806011
121,782.7294547506684
122,782.7554437597322
123,782.7813474388502
124,782.807128258438
125,782.8327498012372
126,782.8581769907449
127,782.8833762990287
128,782.9083159324008
129,782.9329659934243
130,782.9572986181827
131,782.9812880884954
132,783.0049109193984
133,783.0281459226641
134,783.0509742475974
135,783.0733794009058
136,783.0953472479192
137,783.1168659976256
138,783.1379261737317
139,783.1585205732068
140,783.1786442128624
141,783.1982942642046
142,783.2174699775877
143,783.2361725979799
144,783.2544052752684
145,783.2721729716259
146,783.2894823678354
147,783.3063417703027
148,783.3227610204934
149,783.3387514081328
150,783.3543255886361
151,783.3694975044273
152,783.3842823096543
153,783.3986962985415
154,783.4127568386943
155,783.426482311382
156,783.4398920608119
157,783.4530063536315
158,783.4658463484509
159,783.4784340735775
160,783.4907924101502
161,783.5029450776013
162,783.5149166183124
163,783.5267323779344
164,783.538418477287
165,783.5500017716604
166,783.5615097941967
167,783.5729706816599
168,783.5844130826367
169,783.5958660495664
170,783.6073589169174
171,783.6189211681195
172,783.6305822931097
173,783.6423716366903
174,783.6543182361627
175,783.6664506457538
176,783.6787967454196
177,783.6913835322362
178,783.7042368931408
179,783.7173813579625
180,783.7308398318069
181,783.7446333062596
182,783.7587805494787
183,783.7732977758097
184,783.7881982961478
185,783.8034921511618
186,783.8191857307097
187,783.8352813842326
188,783.8517770287576
189,783.8686657634886
190,783.8859355025435
191,783.9035686394361
192,783.9215417574951
193,783.9398253990666
194,783.9583839037091
195,783.9771753231191
196,783.996151419037
197,784.0152577492721
198,784.0344338453044
199,784.0536134825696
200,784.0727250421568
201,784.0916919605959
202,784.1104332625654
203,784.1288641693386
204,784.1468967735431
205,784.1644407688444
206,784.1814042222005
207,784.1976943763939
208,784.2132184713284
209,784.2278845739486
210,784.2416024086219
211,784.2542841818968
212,784.2658453967263
213,784.2762056509873
214,784.2852894137677
215,784.2930267712956
216,784.2993541333307
217,784.3042148906064
218,784.3075600140796
219,784.3093485867662
220,784.3095482589936
221,784.3081356185529
222,784.3050964687797
223,784.3004260098876
224,784.2941289216894
225,784.2862193486376
226,784.2767207901187
227,784.2656658994504
228,784.253096194245
229,784.239061679919
230,784.223620388278
231,784.2068378343511
232,784.1887863961815
233,784.1695446235283
234,784.14919648245
235,784.127830543698
236,784.1055391235459
237,784.0824173860233
238,784.0585624160921
239,784.0340722746924
240,784.0090450484779
241,783.9835779084109
242,783.9577661915503
243,783.9317025195305
244,783.9054759658032
245,783.8791712817557
246,783.8528681893604
247,783.8266407456247
248,783.8005567825745
249,783.7746774260321
250,783.7490566964188
251,783.7237411944924
252,783.6987698741871
253,783.6741739039718
254,783.6499766177579
255,783.6261935559753
256,783.6028325963167
257,783.5798941717724
258,783.5573715717062
259,783.5352513205187
260,783.5135136276953
261,783.4921329022224
262,783.4710783233282
263,783.450314458755
264,783.4298019216303
265,783.4094980572168
266,783.3893576506572
267,783.3693336460193
268,783.3493778659661
269,783.3294417211313
270,783.3094768992123
271,783.2894360255497
272,783.269273288676
273,783.2489450255182
274,783.2284102617854
275,783.207631203891
276,783.186573679808
277,783.1652075275132
278,783.1435069307078
279,783.1214507018889
280,783.099022512797
281,783.076211072059
282,783.0530102491716
283,783.0294191426476
284,783.0054420890158
285,782.9810886095585
286,782.9563732933772
287,782.9313156178807
288,782.9059397102342
289,782.8802740552223
290,782.854351156341
291,782.8282071578237
292,782.8018814356811
293,782.7754161657467
294,782.748855876318
295,782.72224699227
296,782.695637376562
297,782.6690758742349
298,782.6426118636087
299,782.6162948191976
300,782.5901738906323
301,782.5642975017514
302,782.538712974145
303,782.5134661795214
304,782.4886012249129
305,782.4641601738388
306,782.4401828051451
307,782.41670640927
308,782.393765619165
309,782.3713922705625
310,782.3496152845238
311,782.3284605649824
312,782.3079509052728
313,782.2881058995553
314,782.2689418566943
315,782.2504717155347
316,782.2327049620319
317,782.2156475501721
318,782.199301829276
319,782.1836664799638
320,782.1687364605186
321,782.154502965236
322,782.1409533964529
323,782.1280713520742
324,782.1158366307129
325,782.1042252572287
326,782.0932095322999
327,782.0827581101051
328,782.0728361076413
329,782.0634052474378
330,782.0544240328643
331,782.045847952857
332,782.0376297116769
333,782.0297194795643
334,782.0220651614757
335,782.0146126826253
336,782.0073062904911
337,782.0000888730904
338,781.9929022929904
339,781.9856877359839
340,781.97838607269
341,781.970938230645
342,781.9632855740027
343,781.9553702879965
344,781.9471357658183
345,781.93852699633
346,781.9294909518119
347,781.9199769757312
348,781.9099371711121
349,781.8993267900698
350,781.8881046240523
351,781.8762333925503
352,781.8636801261329
353,781.8504165381808
354,781.8364193786695
355,781.8216707626232
356,781.8061584655493
357,781.789876178822
358,781.7728237199226
359,781.7550071950363
360,781.7364391133646
361,781.7171384527045
362,781.6971306747852
363,781.676447687909
364,781.6551277547347
365,781.6332153443685
366,781.6107609292693
367,781.5878207280945
368,781.5644563955669
369,781.5407346604641
370,781.5167269135667
371,781.4925087487501
372,781.468159461445
373,781.4437615087601
374,781.4193999350612
375,781.3951617667535
376,781.3711353806543
377,781.3474098509454
378,781.3240742795153
379,781.3012171138274
380,781.2789254563473
381,781.2572843706807
382,781.2363761913472
383,781.2162798457927
384,781.1970701987292
385,781.178817430304
386,781.161586460339
387,781.1454364300707
388,781.1304202503286
389,781.1165842218513
390,781.1039677308547
391,781.0926030218483
392,781.0825150496569
393,781.0737214127043
394,781.0662323694131
395,781.0600509389453
396,781.0551730862103
397,781.0515879888015
398,781.0492783805873
399,781.0482209639093
400,781.0483868807003
401,781.0497422324813
402,781.0522486394483
403,781.0558638289154
404,781.0605422430865
405,781.066235655718
406,781.072893786968
407,781.0804649057079
408,781.0888964090925
409,781.0981353705524
410,781.1081290496043
411,781.1188253594665
412,781.1301732906608
413,781.1421232899891
414,781.1546275944053
415,781.1676405187584
416,781.1811186959092
417,781.1950212678004
418,781.2093100267449
419,781.2239495071716
420,781.238907029007
421,781.2541526945673
422,781.269659341469
423,781.285402455023
424,781.301360044735
425,781.3175124901097
426,781.3338423605786
427,781.3503342134628
428,781.3669743729056
429,781.3837506918293
430,781.4006522982722
431,781.4176693271014
432,781.434792638203
433,781.452013522938
434,781.4693234017793
435,781.4867135172162
436,781.5041746269945
437,781.5216967037202
438,781.5392686479413
439,781.5568780227457
440,781.5745108179932
441,781.5921512510992
442,781.6097816090179
443,781.6273821335627
444,781.644930950292
445,781.6624040402361
446,781.6797752535812
447,781.6970163646271
448,781.7140971673919
449,781.7309856105805
450,781.7476479691574
451,781.7640490480703
452,781.7801524126535
453,781.795920640171
454,781.8113155875138
455,781.8262986707402
456,781.8408311527065
457,781.8548744354471
458,781.8683903542533
459,781.8813414706755
460,781.8936913620796
461,781.9054049058774
462,781.9164485568123
463,781.9267906155002
464,781.9364014857989
465,781.9452539176808
466,781.9533232317267
467,781.9605875219469
468,781.9670278354049
469,781.9726283289527
470,781.9773764043086
471,781.981262822948
472,781.9842818023932
473,781.9864310954343
474,781.9877120533645
475,781.9881296737401
476,781.987692632761
477,781.9864133018772
478,781.98430774733
479,781.9813957101657
480,781.9777005631602
481,781.9732492403485
482,781.9680721346305
483,781.9622029594925
484,781.955678572202
485,781.948538757521
486,781.9408259727212
487,781.9325850564006
488,781.9238629053498
489,781.9147081254002
490,781.9051706634548
491,781.8953014284195
492,781.8851519085129
493,781.8747737916723
494,781.8642185947267
495,781.8535373058666
496,781.8427800441455
497,781.8319957395306
498,781.821231836956
499,781.8105340272377
500,781.7999460066861
501,781.7895092667125
502,781.7792629150877
503,781.7692435309385
504,781.7594850551238
505,781.7500187165543
506,781.7408729941686
507,781.7320736137887
508,781.723643578334
509,781.7156032286788
510,781.7079703311699
511,781.7007601866768
512,781.6939857550302
513,781.6876577880397
514,781.6817849640348
515,781.6763740165775
516,781.6714298492249
517,781.6669556276078
518,781.6629528410745
519,781.6594213294088
520,781.6563592745018
521,781.6537631605872
522,781.6516277091004
523,781.6499457956958
524,781.6487083576444
525,781.6479042997485
526,781.6475204063386
527,781.6475412662514
528,781.6479492171503
529,781.6487243150392
530,781.6498443341046
531,781.6512848010824
532,781.6530190674495
533,781.6550184218589
534,781.6572522440323
535,781.6596881996104
536,781.6622924735921
537,781.665030038497
538,781.667864952482
539,781.6707606819273
540,781.673680441859
541,781.6765875460363
542,781.679445757728
543,781.682219633163
544,781.6848748518302
545,781.6873785296588
546,781.6896995118766
547,781.6918086427357
548,781.6936790100234
549,781.69528616302
550,781.6966083027746
551,781.6976264433445
552,781.6983245426005
553,781.6986896016659
554,781.6987117329643
555,781.6983841978046
556,781.6977034149983
557,781.6966689421608
558,781.6952834316545
559,781.6935525639661
560,781.6914849623244
561,781.6890920928516
562,781.6863881541823
563,781.6833899593789
564,781.6801168115118
565,781.676590372912
566,781.6728345274423
567,781.6688752355292
568,781.6647403829335
569,781.6604596255422
570,781.6560642332075
571,781.6515869356608
572,781.6470617726407
573,781.6425239485766
574,781.6380096900322
575,781.6335561027797
576,781.6292010254871
577,781.624982877978
578,781.6209405028293
579,781.6171129992483
580,781.6135395480825
581,781.6102592270972
582,781.6073108166967
583,781.6047325976522
584,781.6025621432026
585,781.6008361076307
586,781.599590012717
587,781.5988580334523
588,781.5986727856259
589,781.5990651197549
590,781.6000639271277
591,781.601695963893
592,781.6039856983372
593,781.6069551851007
594,781.6106239682315
595,781.6150090130357
596,781.6201246651242
597,781.6259826340669
598,781.63259199856
599,781.6399592298586
600,781.6480882301489
601,781.6569803823149
602,781.6666346071337
603,781.6770474236065
604,781.6882130083666
605,781.7001232511492
606,781.7127678049496
607,781.7261341311606
608,781.7402075412136
609,781.7549712367369
610,781.7704063499984
611,781.7864919859878
612,781.8032052676422
613,781.8205213864718
614,781.8384136613628
615,781.8568536079181
616,781.8758110195732
617,781.8952540607315
618,781.9151493716189
619,781.9354621841852
620,781.9561564479192
621,781.9771949639734
622,781.9985395256518
623,782.020151063277
624,782.0419897920269
625,782.0640153630154
626,782.0861870203059
627,782.108463768089
628,782.1308045515151
629,782.1531684520996
630,782.1755148957227
631,782.1978038689311
632,782.2199961377215
633,782.2420534623047
634,782.2639388014281
635,782.2856165004232
636,782.3070524581142
637,782.328214269101
638,782.3490713396084
639,782.3695949766671
640,782.3897584515865
641,782.409537039443
642,782.4289080365076
643,782.4478507569052
644,782.4663465087413
645,782.4843785493708
646,782.5019320198634
647,782.5189938594857
648,782.5355527015545
649,782.5515987524523
650,782.5671236565648
651,782.5821203515153
652,782.5965829195022
653,782.6105064406809
654,782.6238868531996
655,782.6367208227655
656,782.6490056234625
657,782.6607390308025
658,782.6719192268378
659,782.6825447153768
660,782.6926142437347
661,782.7021267269173
662,782.7110811708586
663,782.7194765926947
664,782.7273119373896
665,782.7345859911516
666,782.7412972930061
667,782.7474440464134
668,782.7530240326786
669,782.7580345274472
670,782.7624722215565
671,782.7663331480585
672,782.7696126174384
673,782.7723051621091
674,782.7744044894214
675,782.7759034409695
676,782.7767939560023
677,782.7770670381586
678,782.776712726206
679,782.7757200698288
680,782.774077110905
681,782.7717708699479
682,782.7687873369654
683,782.7651114659509
684,782.7607271726823
685,782.755617336592
686,782.7497638090055
687,782.7431474314265
688,782.7357480683581
689,782.7275446594706
690,782.7185152959778
691,782.7086373258421
692,782.6978874917509
693,782.6862421047733
694,782.6736772555929
695,782.6601690643729
696,782.6456939693442
697,782.6302290527128
698,782.6137524006549
699,782.5962434925756
700,782.5776836139319
701,782.5580562866755
702,782.5373477112954
703,782.5155472142626
704,782.4926476944661
705,782.4686460618533
706,782.4435436606974
707,782.4173466691271
708,782.3900664668357
709,782.3617199645271
710,782.3323298906215
711,782.3019250318657
712,782.2705404246901
713,782.2382174940619
714,782.2050041366135
715,782.1709547450733
716,782.1361301717527
717,782.1005976304332
718,782.0644305382183
719,782.0277083007255
720,781.9905160448232
721,781.9529443035398
722,781.9150886581122
723,781.8770493416318
724,781.838930806889
725,781.800841258805
726,781.7628921508559
727,781.7251976454693
728,781.6878740394814
729,781.6510391561546
730,781.6148117048158
731,781.5793106086438
732,781.5446543013874
733,781.510959995268
734,781.4783429250049
735,781.446915576211
736,781.4167869094201
737,781.3880615928488
738,781.3608392574632
739,781.3352137873443
740,781.3112726570772
741,781.2890963261265
742,781.2687576982187
743,781.2503216517821
744,781.2338446452551
745,781.2193743986535
746,781.2069496508367
747,781.1965999909223
748,781.1883457618849
749,781.1821980339336
750,781.1781586446853
751,781.1762203025967
752,781.176366749631
753,781.1785729786288
754,781.182805500351
755,781.1890226548353
756,781.1971749616586
757,781.2072055039201
758,781.2190503411961
759,781.2326389475156
760,781.2478946716914
761,781.264735218621
762,781.2830731504868
763,781.3028164056416
764,781.3238688312167
765,781.3461307245113
766,781.3694993786156
767,781.3938696288077
768,781.4191343971213
769,781.4451852330582
770,781.4719128492034
771,781.4992076513647
772,781.52696026302
773,781.5550620428362
774,781.5834055922966
775,781.6118852490523
776,781.6403975611278
777,781.6688417374498
778,781.6971200708568
779,781.72513833033
780,781.7528061195408
781,781.780037199045
782,781.8067497699874
783,781.8328667183674
784,781.8583158206321
785,781.8830299128065
786,781.906947025789
787,781.9300104890024
788,781.9521690040052
789,781.9733766893652
790,781.9935930979534
791,782.0127832076943
792,782.0309173869874
793,782.0479713369191
794,782.0639260137518
795,782.0787675359942
796,782.0924870798161
797,782.1050807648694
798,782.1165495305452
799,782.1268990009983
800,782.1361393358759
801,782.1442850621953
802,782.1513548812436
803,782.1573714434841
804,782.1623610849638
805,782.1663535206203
806,782.1693814925019
807,782.1714803734849
808,782.1726877293145
809,782.1730428438638
810,782.1725862145846
811,782.1713590270123
812,782.169402618465
813,782.1667579417424
814,782.1634650402436
815,782.159562546916
816,782.1550872203298
817,782.1500735308134
818,782.1445533070053
819,782.1385554487208
820,782.1321057075388
821,782.125226533989
822,782.117936989991
823,782.110252725822
824,782.1021860208443
825,782.0937458861582
826,782.0849382259472
827,782.0757660531848
828,782.0662297546444
829,782.0563273996314
830,782.046055086424
831,782.0354073200415
832,782.0243774147318
833,782.0129579147543
834,782.0011410276901
835,781.988919065309
836,781.9762848875934
837,781.9632323458261
838,781.9497567209825
839,781.9358551544093
840,781.9215270692251
841,781.9067745824972
842,781.8916029088288
843,781.8760207547858
844,781.8600407009368
845,781.843679565213
846,781.8269587387771
847,781.8099044841921
848,781.7925481854973
849,781.774926540641
850,781.7570816883051
851,781.7390612631183
852,781.7209183753171
853,781.7027115129132
854,781.6845043663822
855,781.6663655779912
856,781.6483684200031
857,781.6305904073715
858,781.6131128506073
859,781.5960203535923
860,781.5794002603768
861,781.5633420551471
862,781.5479367206026
863,781.5332760614474
864,781.5194520009148
865,781.5065558587921
866,781.4946776195106
867,781.4839051989328
868,781.4743237182996
869,781.4660147929619
870,781.4590558424093
871,781.4535194277948
872,781.4494726240804
873,781.4469764352699
874,781.4460852617799
875,781.4468464285408
876,781.4492997816336
877,781.4534773605855
878,781.4594031523559
879,781.4670929308369
880,781.4765541825444
881,781.4877861161035
882,781.5007797509836
883,781.5155180800921
884,781.5319763011927
885,781.5501221131151
886,781.5699160734014
887,781.5913120137856
888,781.6142575089343
889,781.6386943927829
890,781.6645593157497
891,781.6917843348634
892,781.7202975273805
893,781.7500236172195
894,781.7808846030068
895,781.8128003770126
896,781.8456893258564
897,781.8794689061351
898,781.9140561902014
899,781.9493683785151
900,781.9853232753037
901,782.0218397240114
902,782.0588379985688
903,782.0962401463519
904,782.1339702794323
905,782.1719548126594
906,782.2101226497866
907,782.2484053211384
908,782.286737077426
909,782.3250549445606
910,782.3632987444624
911,782.4014110873419
912,782.4393373416428
913,782.4770255884744
914,782.5144265675162
915,782.5514936209547
916,782.5881826413432
917,782.6244520287864
