acceleration,velocity,displacement
0.006747824552373952,0.0,0.0
0.005131147050950265,2.969742900831054e-06,7.424357252077635e-10
0.00351921466231632,5.1323333291477e-06,2.767954782702452e-09
0.0019167457505837042,6.491323432372706e-06,5.673868973082553e-09
0.0003284055372611968,7.052611254333931e-06,9.059852644759212e-09
-0.0012412196099151438,6.8244077361704446e-06,1.2529107392385307e-08
-0.0027876469173846383,5.817191104345499e-06,1.5689507102514292e-08
-0.004306520732715199,4.043649191820539e-06,1.81547171765558e-08
-0.005793634641944159,1.5186103481556995e-06,1.954528206154986e-08
-0.007244952026871849,-1.7410363190483025e-06,1.948967556882671e-08
-0.008656624953955906,-5.71643056425524e-06,1.7625308848000824e-08
-0.010025011324180665,-1.0386839633789384e-05,1.3599491298489668e-08
-0.011346690248781233,-1.572976502702986e-05,7.070340133284858e-09
-0.012618475649155764,-2.1721056501514107e-05,-2.2923652488511344e-09
-0.01383742810699258,-2.8335032440551194e-05,-1.4806387484367458e-08
-0.015000865008581074,-3.554460571944461e-05,-3.077629702436641e-08
-0.016106369034853598,-4.332141423030328e-05,-5.0492802011803375e-08
-0.01715179505139711,-5.1635955251865953e-05,-7.423214438234569e-08
-0.018135275455226467,-6.045772287852185e-05,-1.0225556391494264e-07
-0.019055224036534004,-6.975534775146197e-05,-1.348088315724386e-07
-0.01991033840881025,-7.949673836279804e-05,-1.721218531010036e-07
-0.020699601048164037,-8.964922322704161e-05,-2.144083434984635e-07
-0.02142227896809688,-0.00010017969323110684,-2.6186557261300064e-07
-0.022077922047545495,-0.00011105474348501743,-3.146741817920317e-07
-0.0226663600282672,-0.00012224081400397061,-3.729980711642787e-07
-0.023187698194771914,-0.0001337043285597304,-4.36984356805204e-07
-0.023642311740910554,-0.00014541183104365102,-5.067633967060493e-07
-0.024030838816402694,-0.00015733011868297934,-5.824488841377069e-07
-0.024354172243516777,-0.0001694263714479592,-6.641380066704415e-07
-0.024613449904104006,-0.0001816682769848644,-7.519116687786475e-07
-0.024810043818948226,-0.00019402415041562743,-8.458347756287704e-07
-0.02494554796864677,-0.0002064630483625262,-9.459565753233088e-07
-0.02502176493168171,-0.00021895487658760832,-1.0523110565608425e-06
-0.025040691436566148,-0.0002314704906796703,-1.1649173983776622e-06
-0.02500450293990883,-0.00024398178927378903,-1.283780468366027e-06
-0.024915537352038185,-0.00025646179934677577,-1.4088913655211682e-06
-0.024776278038410333,-0.0002688847531943879,-1.5402280036564591e-06
-0.02458933623069215,-0.00028122615676166347,-1.677755731145472e-06
-0.024357432988375814,-0.0002934628490664305,-1.8214279826024955e-06
-0.024083380861026196,-0.000305573052528781,-1.9711869580012983e-06
-0.023770065410415892,-0.0003175364140966415,-2.126964324657654e-06
-0.023420426755666184,-0.00032933403713816204,-2.288681937466355e-06
-0.02303744129886105,-0.00034094850415179387,-2.456252572788844e-06
-0.022624103775349395,-0.00035236389042034647,-2.629580671431879e-06
-0.02218340975942478,-0.00036356576880404,-2.8085630862379754e-06
-0.021718338747889098,-0.0003745412059308685,-2.9930898299217028e-06
-0.02123183793937507,-0.0003852787501026845,-3.183044818930091e-06
-0.02072680681980957,-0.00039576841129248066,-3.3783066092788823e-06
-0.020206082649445508,-0.0004060016336597944,-3.578749120516951e-06
-0.01967242692575739,-0.00041597126105359514,-3.7842423441952983e-06
-0.019128512875174804,-0.0004256714960038282,-3.994653033459654e-06
-0.018576914008203976,-0.0004350978527246729,-4.209845370641779e-06
-0.01802009375545338,-0.0004442471046655872,-4.4296816099893444e-06
-0.01746039618709384,-0.00045311722715122405,-4.654022692943548e-06
-0.016900037811144176,-0.00046170733565078354,-4.88272883364405e-06
-0.016341100448978702,-0.00047001762021581424,-5.115660072610699e-06
-0.015785525194912112,-0.00047804927662678694,-5.352676796821349e-06
-0.015235107473430336,-0.00048580443479387256,-5.593640224676514e-06
-0.014691493207832699,-0.0004932860849641884,-5.8384128546160286e-06
-0.014156176108292841,-0.0005004980022932197,-6.08685887643038e-06
-0.01363049607934406,-0.0005074446703401289,-6.3388445445887175e-06
-0.013115638736423765,-0.0005141312040440708,-6.594238513184767e-06
-0.012612636003652743,-0.00052056327272909,-6.8529121323780575e-06
-0.012122367739877831,-0.0005267470236649727,-7.1147397064765734e-06
-0.011645564313275708,-0.0005326890066782611,-7.379598714062382e-06
-0.011182810024401352,-0.0005383961002626803,-7.647369990797617e-06
-0.010734547270120328,-0.0005438754395863108,-7.917937875759865e-06
-0.010301081348212953,-0.0005491343467408941,-8.191190322341666e-06
-0.00988258581936414,-0.0005541802635327884,-8.467018974910087e-06
-0.009479108361088081,-0.0005590206870779014,-8.74531921256276e-06
-0.009090577063136804,-0.0005636631084339576,-9.025990161440725e-06
-0.008716807126763178,-0.0005681149544814326,-9.308934677169573e-06
-0.008357507943438338,-0.0005723835332489829,-9.594059299102177e-06
-0.008012290541989542,-0.0005764759828703399,-9.881274178132008e-06
-0.007680675402333777,-0.0005803992243564207,-1.0170492979938698e-05
-0.007362100630367106,-0.000584159918364596,-1.0461632765618953e-05
-0.007055930465318711,-0.0005877644261385174,-1.0754613851744732e-05
-0.0067614640534102806,-0.0005912187747681997,-1.1049359651971411e-05
-0.006477944387785511,-0.0005945286268784986,-1.1345796502383086e-05
-0.006204567298229134,-0.0005976992548000023,-1.164385347280271e-05
-0.00594049037355904,-0.0006007355192179494,-1.1943462166307199e-05
-0.005684841707461353,-0.0006036418522382045,-1.2244556509171238e-05
-0.005436728373017835,-0.0006064222447583243,-1.254707253342037e-05
-0.005195244551198582,-0.0006090802379893784,-1.2850948154107295e-05
-0.00495947925963298,-0.0006116189189420864,-1.315612294334016e-05
-0.0047285236468307765,-0.0006140409196687022,-1.3462537902992858e-05
-0.004501477834056438,-0.0006163484200389241,-1.3770135237919765e-05
-0.00427745730285244,-0.0006185431538231513,-1.4078858131385285e-05
-0.004055598838072161,-0.0006206264178583824,-1.4388650524305668e-05
-0.0038350660416118483,-0.0006225990840783034,-1.4699456899789839e-05
-0.0036150544304188095,-0.0006244616141963111,-1.5011222074358493e-05
-0.003394796124820243,-0.0006262140768351209,-1.532389099711635e-05
-0.003173564124036452,-0.000627856166897335,-1.5637408558049465e-05
-0.00295067616070707,-0.0006293872269685209,-1.595171940651593e-05
-0.0027254981295833495,-0.0006308062705410936,-1.6266767780893333e-05
-0.0024974470955998283,-0.0006321120068473894,-1.6582497350240454e-05
-0.0022659938959987904,-0.0006333028670952891,-1.6898851068726123e-05
-0.0020306653539208692,-0.0006343770319077691,-1.721577104347689e-05
-0.0017910461153924095,-0.0006353324597750974,-1.7533198416397607e-05
-0.0015467801108814045,-0.0006361669163316659,-1.7851073260424297e-05
-0.0012975716313147058,-0.000636878004267215,-1.8169334490574018e-05
-0.0010431859992670975,-0.0006374631936748604,-1.8487919790059538e-05
-0.0007834498085357407,-0.0006379198526268112,-1.8806765551634956e-05
-0.0005182507002128032,-0.0006382452777539984,-1.9125806834230158e-05
-0.0002475366451553279,-0.0006384367245903403,-1.9444977334816242e-05
2.868528656964674e-05,-0.0006384914374299868,-1.9764209375321323e-05
0.00031035067280726247,-0.0006384066784401426,-2.0083433904288856e-05
0.000597339989494168,-0.0006381797557745673,-2.0402580512842534e-05
0.0008894813327833226,-0.000637808050443998,-2.0721577464397176e-05
0.0011865535645507515,-0.0006372890417196645,-2.104035173743809e-05
0.0014882898199832465,-0.000636620330873531,-2.1358829080586388e-05
0.0017943813126942766,-0.0006357996630903616,-2.167693407907736e-05
0.0021044813786930032,-0.0006348249474175149,-2.1994590231704332e-05
0.002418209708590056,-0.0006336942746456941,-2.2311720037220135e-05
0.0027351567194323473,-0.0006324059330386885,-2.262824508914123e-05
0.003054888009657269,-0.000630958421856416,-2.2944086177865007e-05
0.0033769488290210947,-0.0006293504626467464,-2.32591633989908e-05
0.0037008684919749555,-0.0006275810083164974,-2.357339626673161e-05
0.004026164675646487,-0.0006256492500245921,-2.3886703831316882e-05
0.004352347568351719,-0.0006235546219635925,-2.4199004799313927e-05
0.004678923858807886,-0.0006212968041068027,-2.4510217655831527e-05
0.005005400569082194,-0.0006188757229998301,-2.4820260787608186e-05
0.005331288732314375,-0.000616291550674481,-2.5129052606026763e-05
0.005656106904026553,-0.0006135447017653957,-2.5436511669136732e-05
0.005979384483462862,-0.0006106358289185233,-2.5742556801807713e-05
0.006300664817835874,-0.0006075658165931987,-2.6047107213185642e-05
0.006619508066706356,-0.0006043357733720631,-2.6350082610676956e-05
0.006935493807876932,-0.0006009470229034173,-2.6651403309745826e-05
0.007248223365644273,-0.000597401093610037,-2.6950990338874188e-05
0.00755732184226579,-0.0005936997073080595,-2.724876553910371e-05
0.007862439839249028,-0.0005898447668876808,-2.7544651657652647e-05
0.008163254864475002,-0.0005858383432117498,-2.7838572435177503e-05
0.008459472429155625,-0.0005816826613883421,-2.8130452686327527e-05
0.008750826844337662,-0.0005773800865699688,-2.8420218373317105e-05
0.009037081732469116,-0.0005729331094257671,-2.870779667231604e-05
0.009318030276550666,-0.0005683443314235121,-2.8993116032528358e-05
0.009593495235442031,-0.000563616450045514,-2.9276106227895616e-05
0.009863328756206841,-0.0005587522440476017,-2.9556698401418894e-05
0.010127412011236224,-0.0005537545588557409,-2.983482510214473e-05
0.010385654678409826,-0.0005486262921833294,-3.0110420314904495e-05
0.010637994271228239,-0.0005433703799459198,-3.0383419482936807e-05
0.010884395321903426,-0.0005379897825476369,-3.0653759523560195e-05
0.011124848430282877,-0.0005324874716095904,-3.09213788370995e-05
0.011359369207596531,-0.0005268664172001206,-3.1186217309301924e-05
0.011587997151730634,-0.0005211295756102888,-3.144821630750453e-05
0.01181079448565769,-0.0005152798777009417,-3.170731867083234e-05
0.012027844982793936,-0.0005093202178338287,-3.196346869471603e-05
0.012239252800990056,-0.0005032534433878828,-3.221661211002146e-05
0.012445141346920817,-0.000497082344850905,-3.246669605708116e-05
0.01264565218765254,-0.0004908096464672617,-3.27136690549107e-05
0.01284094401527179,-0.0004844379974165306,-3.295748096588165e-05
0.013031191660257225,-0.00047796996349764833,-3.319808295611019e-05
0.013216585147456045,-0.00047140801929572,-3.3435427451808535e-05
0.013397328797657386,-0.00046475454080944167,-3.3669468091834823e-05
0.01357364039127072,-0.0004580117985122096,-3.390015967666524e-05
0.01374575041950158,-0.00045118195080951656,-3.412745811399567e-05
0.013913901448284293,-0.0004442670378425701,-3.435132036115869e-05
0.014078347610452013,-0.00043726897557788604,-3.457170436451381e-05
0.014239354223568049,-0.000430189550119381,-3.478856899593813e-05
0.014397197510733352,-0.0004230304121858057,-3.5001873986514426e-05
0.014552164389092986,-0.0004157930717108491,-3.521157985748859e-05
0.014704552287542581,-0.0004084788925416902,-3.5417647848551725e-05
0.014854668954316063,-0.00040108908723122553,-3.562003984349495e-05
0.015002832210212083,-0.0003936247119400935,-3.581871829328778e-05
0.015149369596228342,-0.0003860866614884834,-3.601364613664492e-05
0.01529461786322689,-0.0003784756646236196,-3.620478671817295e-05
0.015438922261966654,-0.00037079227959232124,-3.6392103704226934e-05
0.015582635612299238,-0.00036303689012375477,-3.657556099665595e-05
0.01572611715205972,-0.00035520970193266504,-3.675512264467006e-05
0.015869731183172742,-0.0003473107398488569,-3.6930752755115437e-05
0.016013845544058387,-0.0003393398456670491,-3.710241540149441e-05
0.016158829941033345,-0.0003312966767957762,-3.727007453211012e-05
0.016305054162008323,-0.0003231807057700158,-3.743369387775157e-05
0.016452886174986442,-0.0003149912206857671,-3.759323685936551e-05
0.016602690092071774,-0.00030672732661900253,-3.7748666496191704e-05
0.016754823967877773,-0.00029838794810401517,-3.789994531487246e-05
0.016909637402022247,-0.00028997183276154015,-3.8047035260088845e-05
0.01706746892328462,-0.00028147755618021346,-3.818989760732428e-05
0.017228643139903875,-0.00027290352816441635,-3.832849287841044e-05
0.017393467642712292,-0.0002642480004687623,-3.846278076056873e-05
0.017562229649385405,-0.0002555090761457379,-3.8592720029722354e-05
0.017735192383092235,-0.0002466847206376185,-3.871826847891819e-05
0.017912591186415482,-0.00023777277474524154,-3.883938285276391e-05
0.018094629378507695,-0.00022877096960401074,-3.8956018788851223e-05
0.018281473870818347,-0.00021967694379167922,-3.906813076720015e-05
0.0184732505679217,-0.0002104882626819942,-3.917567206881857e-05
0.018670039595193255,-0.00020120244014121546,-3.9278594744524373e-05
0.018871870413357184,-0.00019181696263907783,-3.9376849595219443e-05
0.019078716903055362,-0.0001823293158099747,-3.9470386164831706e-05
0.019290492532025458,-0.0001727370134512045,-3.9559152747147e-05
0.019507045749821608,-0.00016303762888074272,-3.964309640772999e-05
0.019728155780598944,-0.00015322882849813757,-3.972216302207471e-05
0.01995352899192168,-0.0001433084073050074,-3.97962973310255e-05
0.020182796000691554,-0.0001332743260568541,-3.986544301436597e-05
0.02041550964419444,-0.0001231247496456326,-3.992954278329159e-05
0.020651143913320815,-0.00011285808625625379,-3.9988538492267064e-05
0.02088909392629819,-0.00010247302679634904,-4.0042371270530216e-05
0.021128677007405488,-9.196858406292312e-05,-4.009098167324504e-05
0.021369134913999686,-8.134413108257183e-05,-4.013430985203141e-05
0.0216096372257454,-7.059943804763555e-05,-4.017229574431396e-05
0.0218492858801082,-5.973470727117215e-05,-4.020487928064366e-05
0.02208712081244925,-4.875060559803279e-05,-4.023200060886096e-05
0.022322126635889124,-3.764829373594819e-05,-4.0253600333694454e-05
0.022553240270898924,-2.6429452009251182e-05,-4.0269619770130755e-05
0.022779359406417312,-1.5096302089922124e-05,-4.0280001208655545e-05
0.022999351649695444,-3.6516243258939356e-06,-4.02846881902595e-05
0.02321206420994438,7.90122963901602e-06,-4.028362578893122e-05
0.02341633396166206,1.955832918191763e-05,-4.027676089922599e-05
0.02361099774324955,3.131516210814553e-05,-4.026404252640347e-05
0.023794902763749674,4.316663723489534e-05,-4.024542207656771e-05
0.023966917015399204,5.510709217968256e-05,-4.022085364421407e-05
0.024125939615642283,6.713030633744294e-05,-4.019029429458479e-05
0.024270911017063242,7.922951899561932e-05,-4.015370433825152e-05
0.024400823020382385,9.139745250498073e-05,-4.011104759537637e-05
0.024514728508678387,0.00010362634038724592,-4.006229164715332e-05
0.024611750800941704,0.00011590796021465094,-4.000740807200284e-05
0.02469109250984127,0.0001282336710423467,-3.994637266418859e-05
0.024752043785691343,0.00014059445511622985,-3.987916563264895e-05
0.02479398983072097,0.00015298096352033293,-3.9805771777989806e-05
0.02481641756800796,0.00016538356537001517,-3.972618064576722e-05
0.024818921350097927,0.00017779240009954163,-3.964038665439983e-05
0.024801207600513044,0.00019019743233719436,-3.954838919629065e-05
0.024763098300733127,0.0002025885088125059,-3.9450192711003226e-05
0.0247045332640266,0.00021495541670369582,-3.9345806729624174e-05
0.02462557117272212,0.000227287942812883,-3.923524588974503e-05
0.024526389390627554,0.00023957593295372042,-3.911852992080338e-05
0.02440728258738329,0.00025180935094822315,-3.899568359982789e-05
0.0242686602179888,0.0002639783366495662,-3.886673667792844e-05
0.02411104289092222,0.00027607326242679394,-3.873172377815935e-05
0.023935057647147377,0.00028808478756131133,-3.859068426566233e-05
0.023741432174223094,0.00030000391001665396,-3.8443662091267836e-05
0.023530987995293875,0.0003118220150590332,-3.829070560999891e-05
0.02330463269200634,0.00032353092023085824,-3.8131867376176435e-05
0.02306335123599144,0.0003351229162128577,-3.796720391706551e-05
0.022808196516358507,0.0003465908031509452,-3.779677548722456e-05
0.022540279162583346,0.0003579279220706807,-3.7620645805919154e-05
0.022260756770968587,0.00036912818105406864,-3.7438881780137964e-05
0.021970822647143777,0.0003801860759085967,-3.72515532158973e-05
0.021671694184193655,0.0003910967051164311,-3.7058732520641045e-05
0.021364601013444836,0.0004018557789158407,-3.686049439963298e-05
0.021050773088654027,0.0004124596224413654,-3.6656915549293676e-05
0.020731428881306736,0.00042290517293385555,-3.644807435044987e-05
0.020407763866725485,0.00043318997112086363,-3.623405056443619e-05
0.020080939470275568,0.0004433121469551139,-3.601492503491719e-05
0.019752072625021273,0.0004532703999789381,-3.579077939818368e-05
0.019422226067670034,0.0004630639746521109,-3.556169580452592e-05
0.019092399468779605,0.0004726926310362233,-3.5327756653103836e-05
0.01876352146329931,0.00048215661126924304,-3.508904434252747e-05
0.018436442628266752,0.0004914566022921346,-3.4845641039137126e-05
0.01811192944853979,0.0005005936953113362,-3.459762846473626e-05
0.017790659311081265,0.0005095693425012414,-3.434508770528312e-05
0.017473216564269804,0.0005183853114700792,-3.408809904179029e-05
0.017160089669442283,0.0005270436380285072,-3.382674180441564e-05
0.01685166946239636,0.0005355465778114669,-3.3561094250455645e-05
0.016548248537801555,0.0005438965573115164,-3.32912334666749e-05
0.01625002176426968,0.0005520961248870342,-3.301723529612526e-05
0.015957087923822128,0.0005601479023090571,-3.2739174289326237e-05
0.01566945244592248,0.0005680545374014932,-3.2457123679398596e-05
0.015387031182812214,0.0005758186583086769,-3.217115538047105e-05
0.015109655157737783,0.0005834428298938144,-3.188134000842043e-05
0.014837076208315524,0.0005909295127353276,-3.158774692276314e-05
0.014568973437030988,0.0005982810251466643,-3.1290444288292646e-05
0.014304960368022087,0.0006054995085979276,-3.09894991548565e-05
0.0140445926998752,0.0006125868968649019,-3.068497755349079e-05
0.013787376542445632,0.0006195448891754821,-3.0376944606980697e-05
0.013532777028319742,0.0006263749275681735,-3.0065464652794784e-05
0.013280227187564442,0.0006330781786221446,-2.9750601376247206e-05
0.013029136964155755,0.0006396555196600746,-2.943241795167665e-05
0.012778902240259378,0.0006461075294611784,-2.9110977189396337e-05
0.012528913731417209,0.0006524344834540975,-2.8786341686167518e-05
0.01227856562739904,0.0006586363532938015,-2.8458573976980542e-05
0.01202726387551377,0.0006647128106695297,-2.812773668598971e-05
0.011774434024657773,0.0006706632351445726,-2.7793892674536185e-05
0.011519528563432186,0.0006764867257915951,-2.7457105184302144e-05
0.011262033696318365,0.0006821821163565327,-2.7117437973765112e-05
0.011001475512115047,0.0006877479936586411,-2.6774955446261318e-05
0.010737425512025823,0.0006931827189146764,-2.642972276811799e-05
0.010469505480538118,0.0006984844516628174,-2.6081805975473617e-05
0.010197391695183354,0.0007036511759567478,-2.5731272068568725e-05
0.009920818476097734,0.000708680728499568,-2.5378189092454646e-05
0.009639581075708758,0.0007135708283875197,-2.5022626203232875e-05
0.009353537906285021,0.0007183191081330181,-2.466465371910274e-05
0.009062612094620464,0.0007229231456332445,-2.4304343155661177e-05
0.008766792336550538,0.0007273804967410372,-2.3941767245067606e-05
0.008466133009809017,0.0007316887280776271,-2.357699993886294e-05
0.008160753506143394,0.0007358454497066152,-2.3210116394416877e-05
0.007850836765021766,0.0007398483472744065,-2.2841192945171623e-05
0.0075366270226509225,0.0007436952132213247,-2.2470307055047692e-05
0.007218426820673659,0.0007473839766821558,-2.209753725757182e-05
0.006896593342935751,0.0007509127317230582,-2.1722963080470516e-05
0.006571534165751345,0.00075427976360023,-2.1346664956639693e-05
0.006243702518326252,0.0007574835727712494,-2.0968724122546823e-05
0.005913592154604621,0.0007605228964394821,-2.058922250524414e-05
0.005581731936802302,0.0007633967274623338,-2.0208242599268687e-05
0.005248680225765261,0.0007661043305029757,-1.982586733477736e-05
0.004915019164400152,0.000768645255350517,-1.944217993831399e-05
