frame_number,force
0,520.6336600000429
1,520.6137992746591
2,520.6028489307395
3,520.6086322266126
4,520.6369294099699
5,520.6907633906195
6,520.7700028431822
7,520.8713188718592
8,520.9884909186175
9,521.113019316434
10,521.2349699521466
11,521.3439559997707
12,521.4301558109115
13,521.4852727106826
14,521.5033541041774
15,521.4813972045081
16,521.4196791397175
17,521.3217686788881
18,521.1942076201016
19,521.0458867173289
20,520.8871790146035
21,520.7289266144458
22,520.5813956620765
23,520.453316073507
24,520.351115417518
25,520.2784412577677
26,520.2360313084368
27,520.2219372672271
28,520.2320568573347
29,520.2608894369057
30,520.3023980687698
31,520.3508404866453
32,520.4014375340283
33,520.4507821940726
34,520.4969463793725
35,520.5393066541524
36,520.5781666887484
37,520.6142818083076
38,520.6483859295915
39,520.6807994618022
40,520.7111720200427
41,520.7383898489273
42,520.7606559787275
43,520.7757322148698
44,520.7813138398549
45,520.775484009028
46,520.7571625708484
47,520.726438718799
48,520.684687555059
49,520.6344303919337
50,520.5789822890085
51,520.5219899733055
52,520.466971439768
53,520.4169415936647
54,520.374177623004
55,520.3401511357586
56,520.3156230257756
57,520.3008635674726
58,520.2959351011059
59,520.3009618381832
60,520.3163089208621
61,520.3426036658823
62,520.3805645997389
63,520.4306612079479
64,520.4926914829375
65,520.5654007920496
66,520.6462539283137
67,520.7314286756475
68,520.8160535197829
69,520.8946717111731
70,520.9618685933115
71,521.0129523478545
72,521.0445542756959
73,521.0550318960014
74,521.0446087714436
75,521.0152476269571
76,520.9703096580803
77,520.9140863310982
78,520.8512910126367
79,520.7865778753754
80,520.7241370634381
81,520.6674043836027
82,520.618905552692
83,520.5802186662136
84,520.5520038507956
85,520.5340503401201
86,520.5253323063858
87,520.5241071528069
88,520.528092908429
89,520.534723584659
90,520.5414384030997
91,520.5459472507375
92,520.5464344934177
93,520.5416941856635
94,520.5312070575238
95,520.5151634921934
96,520.4944164092451
97,520.4703371144583
98,520.4445664751913
99,520.4186990407223
100,520.3939779714221
101,520.3710826953326
102,520.3500551782096
103,520.3303595863536
104,520.3110356916422
105,520.2909014703224
106,520.268772362239
107,520.2436744225495
108,520.2150309433869
109,520.1828032917741
110,520.1475720910169
111,520.1105567244982
112,520.0735868327189
113,520.03904644008
114,520.0097951185597
115,519.9890360982879
116,519.9800795769069
117,519.9859709919988
118,520.0090153763826
119,520.0502938974578
120,520.1092960810746
121,520.1837638855552
122,520.2697826868815
123,520.3620992400599
124,520.4546173569453
125,520.5410063471348
126,520.6153380317883
127,520.6726501312864
128,520.7093409508423
129,520.7233451610957
130,520.7141031017147
131,520.6823821018502
132,520.6300225410138
133,520.5596731060693
134,520.4745630825671
135,520.3783391952365
136,520.2749687568522
137,520.1686825176128
138,520.0639108936216
139,519.9651683315177
140,519.87686470141
141,519.8030558919547
142,519.7471665136779
143,519.7117185255163
144,519.6980928808056
145,519.7063481565755
146,519.7351206112675
147,519.7816312810185
148,519.8418232592786
149,519.9106375363765
150,519.9824055387617
151,520.0513056411038
152,520.111823316882
153,520.1591762137234
154,520.1896930059672
155,520.2011386207005
156,520.1929556114585
157,520.1663702722485
158,520.1243171675601
159,520.0711620034577
160,520.0122350498807
161,519.9532248418427
162,519.8995223667777
163,519.855627230866
164,519.824710514854
165,519.808385711226
166,519.8066941034524
167,519.8182748061078
168,519.8406667482856
169,519.8706893861225
170,519.9048660742322
171,519.939862425677
172,519.97289554302
173,520.0020465190607
174,520.0264103324753
175,520.0460573033491
176,520.0618404834535
177,520.0751294628801
178,520.0875575153595
179,520.1008336096606
180,520.1166174244671
181,520.1364222543613
182,520.1615183399242
183,520.1928390537855
184,520.2309103181274
185,520.2758202013298
186,520.3272356997811
187,520.3844649747867
188,520.4465494859941
189,520.5123540637769
190,520.5806222853062
191,520.6499893707602
192,520.7189797027893
193,520.7860357147537
194,520.8496143292333
195,520.908348178955
196,520.961226046352
197,521.0077348614506
198,521.0479274060147
199,521.0824018978852
200,521.1121838352435
201,521.1385062827515
202,521.1625069462721
203,521.1848871999972
204,521.205599115559
205,521.2236420163089
206,521.237049813738
207,521.243115780992
208,521.2388367662262
209,521.2214949117293
210,521.1892568423262
211,521.141661760956
212,521.0798892609064
213,521.0067462047273
214,520.9263810245171
215,520.8437987047448
216,520.764285901729
217,520.6928570102299
218,520.6338085713771
219,520.5904312839259
220,520.5648834791951
221,520.5581899619742
222,520.570308590897
223,520.6002084335621
224,520.6459266386083
225,520.7046087779123
226,520.7725699452961
227,520.8454216068055
228,520.9182918576464
229,520.9861409081201
230,521.0441507671284
231,521.0881472900812
232,521.1149950341654
233,521.1229003999084
234,521.1115725740051
235,521.0822198647322
236,521.0373905460186
237,520.9806917307264
238,520.9164289389279
239,520.8492008517817
240,520.7834669358956
241,520.7230993321133
242,520.6709501393876
243,520.6285028136011
244,520.5956997024018
245,520.5710168895251
246,520.551792835888
247,520.5347414247648
248,520.5165307361049
249,520.4943007674116
250,520.4660195891207
251,520.4306283884324
252,520.3879876560975
253,520.3386825724835
254,520.2837573101839
255,520.2244408682625
256,520.1619238559254
257,520.0972369880928
258,520.0312472832317
259,519.9647398783637
260,519.898526579989
261,519.8335292390042
262,519.7708123685813
263,519.7115681952301
264,519.6570776123721
265,519.608674669461
266,519.5677285284755
267,519.5356310710984
268,519.5137531334844
269,519.5033235223375
270,519.5052030215426
271,519.5195706726153
272,519.545598095006
273,519.5812261450632
274,519.6231411079957
275,519.6669791593511
276,519.7077181133346
277,519.7401871637821
278,519.7596321910381
279,519.7622824788555
280,519.7458570186282
281,519.7099359768193
282,519.6561242517326
283,519.5879568587907
284,519.5105358655022
285,519.4299366306213
286,519.3524673042868
287,519.2839005795059
288,519.2288100372981
289,519.1901263926911
290,519.1689836568984
291,519.1648639447758
292,519.1759859632996
293,519.199830347112
294,519.2336725383984
295,519.2750123987643
296,519.3218402971213
297,519.3727373672332
298,519.4268514725676
299,519.4838075149185
300,519.5435968071598
301,519.6064574734108
302,519.6727310492702
303,519.7426779988883
304,519.8162594011737
305,519.8929301756158
306,519.9715122493475
307,520.0501984187
308,520.1266853971656
309,520.1983842203874
310,520.2626408866906
311,520.3169242663463
312,520.3589801461641
313,520.3869774000792
314,520.3996642152524
315,520.3965215232986
316,520.3778811318595
317,520.34498318785
318,520.2999677521559
319,520.2458129489199
320,520.1862430729673
321,520.1256273230072
322,520.0688677771274
323,520.0212485541381
324,519.988211245469
325,519.9750392703467
326,519.9864607089509
327,520.0262035054282
328,520.0965560269968
329,520.1979957942132
330,520.3289436930984
331,520.4856831520515
332,520.6624649248412
333,520.8518007627224
334,521.0449261947715
335,521.2323887259279
336,521.4047086176338
337,521.5530647518551
338,521.6699633535163
339,521.7498473034437
340,521.7896005098154
341,521.788893962824
342,521.7503135418211
343,521.6792216514508
344,521.5833414358219
345,521.4720949754322
346,521.3557542701327
347,521.2444776733399
348,521.1473201534499
349,521.0713275315005
350,521.0208407945396
351,520.9971282896954
352,520.9984176058769
353,521.020323112894
354,521.0565904490952
355,521.1000311467918
356,521.1434983484999
357,521.1807504069927
358,521.2070703351443
359,521.2195657472253
360,521.2171536517926
361,521.2003023316519
362,521.1706313148992
363,521.1304634013137
364,521.0824012383354
365,521.0289799391691
366,520.9724300018842
367,520.9145680889166
368,520.856809213967
369,520.8002609179754
370,520.7458359983634
371,520.6943284058681
372,520.6464355400457
373,520.6027524739288
374,520.5637837535078
375,520.5300074506987
376,520.5019896056541
377,520.480501848561
378,520.4665672873618
379,520.4613721465261
380,520.466030489925
381,520.4812473964456
382,520.5069634377779
383,520.5420743757348
384,520.5843099547949
385,520.6303226893865
386,520.6759833443081
387,520.7168248943802
388,520.7485473966553
389,520.7675006462285
390,520.7710839637133
391,520.7580221251958
392,520.7284913776092
393,520.6840898097307
394,520.6276692929613
395,520.5630602244569
396,520.4947236656491
397,520.4273627436869
398,520.36552035774
399,520.3131906373086
400,520.2734795374314
401,520.2483507953456
402,520.2384737478626
403,520.243163068015
404,520.2603948573243
405,520.2869026677846
406,520.3183746216537
407,520.3497636563222
408,520.3756905074465
409,520.3908883061797
410,520.3906270982196
411,520.3710653338345
412,520.3294945129364
413,520.2644674940256
414,520.1758278188631
415,520.0646794548597
416,519.9333382916985
417,519.7852794880508
418,519.6250565294986
419,519.4581512947855
420,519.2907289715554
421,519.1292973383134
422,518.9802871621848
423,518.8495797238514
424,518.7420206346598
425,518.6609804224198
426,518.6080386483269
427,518.5828586036555
428,518.5832784783794
429,518.605592885665
430,518.6449640468771
431,518.695895617849
432,518.7527152553283
433,518.810031916188
434,518.8631514459445
435,518.9084398883599
436,518.9436127704154
437,518.9679088308465
438,518.9820963865922
439,518.9882743151736
440,518.9894705562835
441,518.9890973359902
442,518.9903700578124
443,518.9958121180271
444,519.0069424183848
445,519.0241905479504
446,519.0470313297931
447,519.0742893092059
448,519.1045363765704
449,519.1364957889211
450,519.1693773126989
451,519.2030941855792
452,519.2383387646661
453,519.2765093322395
454,519.3194885388295
455,519.3692933299745
456,519.4276563718443
457,519.4956340443982
458,519.5733311034678
459,519.6597870020529
460,519.7530140281624
461,519.8501421755325
462,519.9476215231692
463,520.0414506751747
464,520.1274204716069
465,520.2013769610268
466,520.2595188488848
467,520.2987481976211
468,520.3170772182915
469,520.3140551706274
470,520.2911304274156
471,520.2518304296117
472,520.2016569808528
473,520.1476629583559
474,520.0977668640298
475,520.0599295944934
476,520.0413420151629
477,520.0477554577949
478,520.0830418448202
479,520.1490073598441
480,520.2454180641706
481,520.3701530983517
482,520.519406069027
483,520.6879027843235
484,520.8691563307466
485,521.0558046701794
486,521.2400643302766
487,521.4142972986766
488,521.5716455358679
489,521.706658447312
490,521.8158305992674
491,521.8979724833595
492,521.9543494304087
493,521.9885456834659
494,522.0060479790911
495,522.0135922221393
496,522.0183614636047
497,522.0271479867723
498,522.0455953243929
499,522.0776209648473
500,522.1250857095338
501,522.187724900508
502,522.2633097142776
503,522.3479840460651
504,522.4367225224003
505,522.5238576178746
506,522.6036190879696
507,522.6706305383589
508,522.720329612324
509,522.7493089693567
510,522.7555862231073
511,522.738788710994
512,522.7002066530138
513,522.6426639468369
514,522.5701906801709
515,522.4875339630096
516,522.3995873550053
517,522.310838999018
518,522.2249301556193
519,522.1443843243684
520,522.0705255003654
521,522.0035658470156
522,521.9428166901087
523,521.8869670253323
524,521.8343819607725
525,521.7833912074315
526,521.7325469807238
527,521.6808225230368
528,521.6277132679814
529,521.5732182879441
530,521.5177197741275
531,521.4618118754292
532,521.4061314342159
533,521.3512159097354
534,521.2973816545968
535,521.2446032739804
536,521.1923924660493
537,521.1397097879634
538,521.0849672355981
539,521.0261695125732
540,520.9611956487365
541,520.888165799126
542,520.8058044365563
543,520.7137157522509
544,520.6125194211719
545,520.5038308892524
546,520.3900921286945
547,520.2742714433626
548,520.1594712939996
549,520.0485115775234
550,519.9435743331403
551,519.8459878093698
552,519.7561872277656
553,519.6738285539515
554,519.5979839477775
555,519.5273422848322
556,519.4603691237043
557,519.3954181402448
558,519.3308103714597
559,519.2649082328866
560,519.1962136272411
561,519.1235126269416
562,519.0460687523893
563,518.9638359150399
564,518.8776349322833
565,518.7892292306379
566,518.701249665243
567,518.6169489809794
568,518.5398069462836
569,518.4730523941795
570,518.4192041875591
571,518.3797358670982
572,518.3549284811525
573,518.343914534408
574,518.3448673332603
575,518.3552709185233
576,518.3722129728774
577,518.3926673901993
578,518.4137608219195
579,518.4330265255544
580,518.4486296480214
581,518.4595248751192
582,518.4655111640817
583,518.4671757332401
584,518.4657449270504
585,518.4628727527656
586,518.4604047906981
587,518.4601555549503
588,518.4637238530064
589,518.4723463878282
590,518.4867738514529
591,518.5071622909181
592,518.5329960039702
593,518.5630687799037
594,518.5955364487214
595,518.6280354930718
596,518.6578654805562
597,518.6822519747723
598,518.6987042836678
599,518.705435791591
600,518.7017526803107
601,518.6882944749666
602,518.6670500347873
603,518.6411469031332
604,518.6144704532747
605,518.5911852762327
606,518.5752198735847
607,518.5697691468724
608,518.5768798442873
609,518.5971962714235
610,518.6299318078674
611,518.6730836835503
612,518.7238375292377
613,518.7790501893097
614,518.8356899879186
615,518.8911586186899
616,518.9434826798902
617,518.9914000598706
618,519.0343666325784
619,519.0724995706963
620,519.106476992796
621,519.1374193367585
622,519.1667662859207
623,519.1961382480712
624,519.2271577367356
625,519.261220432893
626,519.2992416064343
627,519.3414368523484
628,519.3872021139931
629,519.4351305851932
630,519.4831622859615
631,519.5288324403881
632,519.5695781982258
633,519.6030720080817
634,519.6275583790599
635,519.642164544363
636,519.647132363782
637,519.6438971441518
638,519.63494718841
639,519.6234463052219
640,519.6126723117817
641,519.6053883545957
642,519.6032960645839
643,519.6067065305901
644,519.614510391927
645,519.6244519144619
646,519.6336405543763
647,519.6391892677299
648,519.6388561002162
649,519.6315743288635
650,519.6177802991768
651,519.599484561759
652,519.5800713049716
653,519.5638467088313
654,519.5553945780928
655,519.5588384180437
656,519.5771375137301
657,519.6115464019596
658,519.6613422205353
659,519.7238770869959
660,519.7949479012472
661,519.8694080459851
662,519.9418967214881
663,520.0075491369412
664,520.0625771153786
665,520.1046618444238
666,520.1331512827414
667,520.149076728726
668,520.1549945468158
669,520.1546466641889
670,520.1524437835911
671,520.1528135702576
672,520.1595065106713
673,520.1749857689545
674,520.2000204399943
675,520.2335567003008
676,520.2728832026829
677,520.3140579097415
678,520.3525299147054
679,520.3838661925587
680,520.4044735374738
681,520.4121952355673
682,520.4066743435806
683,520.3894168728029
684,520.3635481377629
685,520.3333159079389
686,520.3034405908581
687,520.2784370237918
688,520.2620294927876
689,520.2567515673759
690,520.2637743692852
691,520.282956166406
692,520.3130645703992
693,520.3520951865736
694,520.3976055749669
695,520.4470132524161
696,520.4978607479266
697,520.5480834843892
698,520.5962919356308
699,520.6420217436402
700,520.6858698537279
701,520.7294468673929
702,520.775123804219
703,520.8256140939109
704,520.8834850320488
705,520.9507128324731
706,521.0283759781119
707,521.1165415320847
708,521.2143599626891
709,521.3203482954627
710,521.4327998850891
711,521.5502176777885
712,521.6716501425126
713,521.7968287818283
714,521.9260544301
715,522.0598420079526
716,522.1983992802337
717,522.3410682257318
718,522.4858769221026
719,522.6293237122317
720,522.7664505765665
721,522.891185706606
722,522.9968821459214
723,523.0769674338383
724,523.1256299925274
725,523.1384705497508
726,523.1130367138923
727,523.0491594761423
728,522.9490380407965
729,522.8170632894714
730,522.6594100455767
731,522.4834553621802
732,522.297098749285
733,522.1080784054896
734,521.923393176206
735,521.748932435315
736,521.5893630781586
737,521.4482370768475
738,521.3282133592629
739,521.2312705040932
740,521.15881601461
741,521.11164952622
742,521.0897940193569
743,521.0922563847707
744,521.1168033635836
745,521.159838234417
746,521.2164415263427
747,521.2806012299627
748,521.3456162498654
749,521.4046233558726
750,521.4511770854205
751,521.4798063406066
752,521.4864831093753
753,521.4689608023604
754,521.4269576972772
755,521.3621698108931
756,521.2781072620836
757,521.1797679411645
758,521.0731857310454
759,520.9649042599924
760,520.861426766318
761,520.7686814510122
762,520.6915229436868
763,520.6332751221308
764,520.5953289944227
765,520.5768460157036
766,520.574655007195
767,520.5834353223136
768,520.5962366492424
769,520.6053088812789
770,520.603132443658
771,520.5834805144578
772,520.5423259491096
773,520.4784294322354
774,520.3935067651881
775,520.2919579036319
776,520.180223053146
777,520.0658890918085
778,519.9566950441308
779,519.8595828369547
780,519.7799160317393
781,519.7209502444915
782,519.6835937505286
783,519.6664586572598
784,519.6661800059019
785,519.6779669470071
786,519.6963316359696
787,519.7159083508432
788,519.7322378546032
789,519.7423753039208
790,519.7452056796155
791,519.741418349149
792,519.7331708790624
793,519.7235221363327
794,519.7157287601523
795,519.7125041571708
796,519.7153537922487
797,519.7241105208043
798,519.736774713082
799,519.7497111014396
800,519.758183837738
801,519.757144068658
802,519.7421329388909
803,519.710132911126
804,519.6602032755138
805,519.593784067759
806,519.5146315152637
807,519.4284189251787
808,519.3420792534373
809,519.2629902563364
810,519.1981213124267
811,519.1532666948016
812,519.132473278669
813,519.1377313591978
814,519.1689460766421
815,519.2241574346369
816,519.299938203203
817,519.3918783934901
818,519.4950693452699
819,519.6045251725916
820,519.7155067552644
821,519.8237335761662
822,519.925487729921
823,520.0176344889263
824,520.0975933032698
825,520.1632891773211
826,520.2131117132157
827,520.2459116362323
828,520.2610536934652
829,520.2585131927896
830,520.2389757409628
831,520.2039003533495
832,520.1555277408402
833,520.0968350332132
834,520.031445028765
835,519.9634948630649
836,519.8974586480957
837,519.8379072529948
838,519.7891932588641
839,519.7550815557382
840,519.7383855140874
841,519.7406781481595
842,519.7621188941979
843,519.8013990141308
844,519.8557921557016
845,519.9213038158157
846,519.9929286440871
847,520.0650302592693
848,520.1318407147777
849,520.1880359281579
850,520.2293022749462
851,520.2527967186546
852,520.2574256586337
853,520.2439122297177
854,520.2146690896838
855,520.1735243486589
856,520.1253466690097
857,520.07558898082
858,520.0297533678141
859,519.992800799633
860,519.9685761196755
861,519.9593487683181
862,519.965553992104
863,519.9857680490692
864,520.0168990417191
865,520.0545494137407
866,520.0935097583996
867,520.128357032285
868,520.1541243823176
869,520.1669741714619
870,520.1647682847298
871,520.1474293829524
872,520.1170280861805
873,520.0775844038624
874,520.034613025096
875,519.9944710443137
876,519.9635890040219
877,519.9476802773038
878,519.9510273698921
879,519.975938123136
880,520.0224494591646
881,520.0883244117949
882,520.1693355747935
883,520.2597674476226
884,520.3530294532019
885,520.442272311828
886,520.5209391384802
887,520.5832332118594
888,520.6245186782762
889,520.6416749151783
890,520.6334028623655
891,520.6004446671737
892,520.5456470853075
893,520.4737989681477
894,520.391212606983
895,520.3050811310026
896,520.2227040832549
897,520.1507099403167
898,520.0944033002454
899,520.0573241224512
900,520.0410438875282
901,520.0451680125402
902,520.0674915602016
903,520.1042705978207
904,520.1505973206731
905,520.2008689598944
906,520.2493156838348
907,520.290528328522
908,520.3199237985021
909,520.3341027489861
910,520.331079158402
911,520.3103836021334
912,520.2730540093833
913,520.2215292382981
914,520.1594569438338
915,520.091423729197
916,520.0226191687002
917,519.9584590765353
