frame_number,force
0,602.1576500000494
1,601.8239175061717
2,601.5035291870269
3,601.2086684577345
4,600.9493788914698
5,600.7328772648605
6,600.5631823757427
7,600.4410305385901
8,600.3640336305631
9,600.3270370794544
10,600.3226413053845
11,600.3418573261002
12,600.3748639845588
13,600.4118099643098
14,600.443571326963
15,600.4623639923476
16,600.4621352987665
17,600.4387088234841
18,600.38970979526
19,600.3143354439061
20,600.2130460274794
21,600.0872417187195
22,599.9389701413148
23,599.7706891109887
24,599.5850948781667
25,599.3850214469361
26,599.173416126705
27,598.9533884375816
28,598.7283114407791
29,598.501934726525
30,598.278454410531
31,598.0624861286026
32,597.8589086991537
33,597.6725793099699
34,597.507948214621
35,597.3686193954566
36,597.2569201881178
37,597.1735525516052
38,597.1173922758835
39,597.0854833674399
40,597.0732497008768
41,597.0749137358098
42,597.0840772298757
43,597.0943970989074
44,597.1002852379951
45,597.0975548206618
46,597.0839155159591
47,597.0592136862695
48,597.0253561173568
49,596.9859350853183
50,596.9456396652342
51,596.9095641781086
52,596.882518753053
53,596.8684267832665
54,596.8698641846041
55,596.8877596607377
56,596.9212503060456
57,596.9676865417523
58,597.0227950768062
59,597.0810153261283
60,597.1360085483695
61,597.1812991792925
62,597.2109588977692
63,597.2202147758272
64,597.2058777217085
65,597.166540659753
66,597.1025550183489
67,597.0158310921248
68,596.9095206666075
69,596.7876425691161
70,596.6547099626483
71,596.5154064610218
72,596.3743336259791
73,596.2358256011198
74,596.1038124637159
75,595.9817168378355
76,595.8723797229441
77,595.7780170479451
78,595.7001979392402
79,595.639815681494
80,595.5970201609447
81,595.5711155592551
82,595.5604764658334
83,595.562554579106
84,595.5740218920249
85,595.5910486421732
86,595.609674388199
87,595.6262094907986
88,595.6375984952793
89,595.6416827920322
90,595.6373233097089
91,595.6243874488824
92,595.6036462357182
93,595.5766364198336
94,595.5455153203683
95,595.5129005815011
96,595.48166740207
97,595.4546820450083
98,595.4344816454774
99,595.4229518814603
100,595.4210807127201
101,595.4288612344327
102,595.4453825377948
103,595.469099826327
104,595.4982306469566
105,595.5311951832078
106,595.5670129226121
107,595.6055868174852
108,595.6478356628193
109,595.6956537286112
110,595.7516790409613
111,595.8188562349694
112,595.8998028667836
113,595.996033102499
114,596.1071566429702
115,596.2302328153977
116,596.3594783682901
117,596.4864757430088
118,596.6009205745011
119,596.6918208075078
120,596.7489556993525
121,596.764352046324
122,596.7335413063612
123,596.6564066556617
124,596.5374958735713
125,596.3857512693902
126,596.2136826745179
127,596.0360861797228
128,595.8684880000209
129,595.7255435474812
130,595.6196160983325
131,595.5596995202689
132,595.5507713786759
133,595.5935992839951
134,595.6849770369967
135,595.8183253486886
136,595.9845548165139
137,596.1730693888906
138,596.3727943949218
139,596.5731363164009
140,596.7648058351441
141,596.9404552979252
142,597.0951020787342
143,597.2263308916655
144,597.3342836014538
145,597.4214513244835
146,597.492285250693
147,597.5526488769098
148,597.6091536777827
149,597.6684489072313
150,597.7365561343199
151,597.8183333023427
152,597.9171190882266
153,598.0345608187229
154,598.1705945717674
155,598.3235437525233
156,598.4903254495147
157,598.6667742968867
158,598.8480887710315
159,599.02937592652
160,599.206234422978
161,599.3752842594633
162,599.5345309550385
163,599.6834601728048
164,599.8228183915962
165,599.954135476727
166,600.0791351470951
167,600.199209578292
168,600.3150944003089
169,600.426800584298
170,600.5337818379326
171,600.6352620619763
172,600.7306188403792
173,600.8197172147783
174,600.9031147316198
175,600.9820995841843
176,601.058554594534
177,601.1346561688433
178,601.2124399503145
179,601.2933070462938
180,601.3775856100339
181,601.4642653325748
182,601.5509755654072
183,601.6342071237573
184,601.70971724143
185,601.7730238277578
186,601.8198915685044
187,601.8467319863817
188,601.850870918431
189,601.8306729057055
190,601.7855499815611
191,601.7159134457045
192,601.623134940011
193,601.509556371226
194,601.3785366661896
195,601.2344765856644
196,601.0827480224293
197,600.929477016233
198,600.7811748461073
199,600.6442523537053
200,600.5244694099549
201,600.4263722254279
202,600.3527793236052
203,600.3043933631452
204,600.2796174256886
205,600.274628990923
206,600.2837240511358
207,600.2999005227233
208,600.3156069979348
209,600.3235458697286
210,600.317405108506
211,600.2924112600218
212,600.2456404066484
213,600.1760772918783
214,600.0844602414105
215,599.9729788087467
216,599.844900270731
217,599.7042011617102
218,599.5552738350285
219,599.402748960323
220,599.2514177423391
221,599.1061827327761
222,598.9719507205539
223,598.8534131242816
224,598.7547181695975
225,598.6790960363348
226,598.6285276573311
227,598.6035366944988
228,598.6031413170172
229,598.624957548987
230,598.6654276226205
231,598.7201534402622
232,598.7843164602203
233,598.8531415734875
234,598.922332431755
235,598.9884018302697
236,599.0488515539829
237,599.1022012813592
238,599.1479006904322
239,599.1861722468014
240,599.2178265656311
241,599.2440745012468
242,599.2663402437394
243,599.2860689409915
244,599.3045264131376
245,599.3226053716222
246,599.3406736534912
247,599.3585094048608
248,599.3753498402215
249,599.3900376532437
250,599.4012115099182
251,599.4074819283811
252,599.4075584147723
253,599.4003231417879
254,599.3848621476067
255,599.3604656258955
256,599.326603863049
257,599.2828850004531
258,599.2290069332045
259,599.1647239515838
260,599.0898571599412
261,599.0043804564557
262,598.9085963334777
263,598.8033767324118
264,598.6904098434625
265,598.5723873937335
266,598.4530803093276
267,598.3372648060947
268,598.2304768905447
269,598.1386002672397
270,598.0673247552646
271,598.0215362776036
272,598.0047136103238
273,598.018415387697
274,598.0619395839406
275,598.132221537353
276,598.2240079442398
277,598.3303065234406
278,598.443065533411
279,598.5539935227591
280,598.6554047888928
281,598.74097687251
282,598.8063238155946
283,598.8493150640821
284,598.8701082860009
285,598.8709153022905
286,598.8555666042755
287,598.8289577199997
288,598.7964493078665
289,598.7632808854135
290,598.7340621019852
291,598.7124026333246
292,598.7007082504311
293,598.7001220133255
294,598.7105607318498
295,598.7308030472145
296,598.7586162914575
297,598.7909412328451
298,598.8241602489763
299,598.8544419624292
300,598.8781033828898
301,598.8919016945651
302,598.8931866492585
303,598.8798959668396
304,598.8504291234037
305,598.8034722498702
306,598.7378641135778
307,598.6525831560398
308,598.5468908740315
309,598.4205986833774
310,598.2743697179276
311,598.1099595501289
312,597.9303412820594
313,597.7397137183326
314,597.5434185552377
315,597.3477876813555
316,597.1599250329631
317,596.9874207483583
318,596.8380043627019
319,596.7191545298953
320,596.6376787240174
321,596.5992637284468
322,596.6079994737137
323,596.6659030170872
324,596.7725013325546
325,596.9245509120766
326,597.1159657069817
327,597.3379958932208
328,597.579669306036
329,597.8284874515157
330,598.0713445364985
331,598.2955987921753
332,598.4901870208461
333,598.6466570589637
334,598.7599955068955
335,598.8291380461172
336,598.8570740131519
337,598.8505111274214
338,598.819143144619
339,598.7746277687705
340,598.7294072109236
341,598.6954986932462
342,598.6833707166604
343,598.7010089974852
344,598.7532576831912
345,598.841493224658
346,598.9636479303637
347,599.1145528726611
348,599.2865333306496
349,599.470175580188
350,599.6551810791541
351,599.8312226527196
352,599.9887277694605
353,600.1195461994446
354,600.2174958158995
355,600.2787932618996
356,600.3023596984146
357,600.2899630435631
358,600.246140525552
359,600.1778574108821
360,600.0939003233814
361,600.0040570811557
362,599.9181798908503
363,599.8452596205491
364,599.7926497630755
365,599.7655531161305
366,599.7668180252546
367,599.7970134353612
368,599.8547026054163
369,599.9368253132614
370,600.0391100294738
371,600.1564557618088
372,600.2832481826146
373,600.4136034378635
374,600.5415521753284
375,600.661183944042
376,600.7667857326445
377,600.8530316502407
378,600.915283634988
379,600.9500186073914
380,600.9553229027053
381,600.9313355195444
382,600.880506598538
383,600.8075666778018
384,600.7191617833431
385,600.6231810509221
386,600.5278704778011
387,600.4408778936037
388,600.3684023878911
389,600.3146153977738
390,600.2814678965891
391,600.2688989961656
392,600.2753479302525
393,600.2983957659308
394,600.3353547463371
395,600.3836708015823
396,600.4410785536196
397,600.5055207376367
398,600.5748975979313
399,600.6467421393238
400,600.7179281496407
401,600.7845117121864
402,600.841782535797
403,600.8845570910493
404,600.9076823320185
405,600.9066539396913
406,600.8782225564536
407,600.8208892381936
408,600.7352540543156
409,600.6242229426732
410,600.4930674726536
411,600.349298860432
412,600.2023105813555
413,600.0627789538248
414,599.9418663755966
415,599.850316463744
416,599.7975441713521
417,599.7908070968707
418,599.8345150459364
419,599.9297157765092
420,600.0737970765238
421,600.2604587348818
422,600.4800042130555
423,600.7199638925736
424,600.9660055388259
425,601.203041998277
426,601.4164278465807
427,601.5931471132294
428,601.7229173066238
429,601.799140662793
430,601.8196060030119
431,601.7868094814734
432,601.7077698123828
433,601.5932849435313
434,601.4566835391267
435,601.3122226685405
436,601.1733522013981
437,601.0511017779207
438,600.9528391503526
439,600.8815890966198
440,600.8359945331512
441,600.8108732865347
442,600.7982167987775
443,600.7884260234705
444,600.7715922470419
445,600.7386778642153
446,600.6824918039267
447,600.5983706088323
448,600.4844907906052
449,600.3417775268177
450,600.1734399894332
451,599.9842336202126
452,599.7796015490019
453,599.5648656221643
454,599.3446136581072
455,599.1223681925934
456,598.9005474030098
457,598.6806695958751
458,598.4637190125403
459,598.2505797436694
460,598.0424544794557
461,597.8412082465976
462,597.6495961868409
463,597.4713400303451
464,597.3110213195246
465,597.1737727747937
466,597.0647730596944
467,596.9885855411798
468,596.9484300844598
469,596.9455201415573
470,596.9786033443472
471,597.0438041712608
472,597.1348062572434
473,597.2433564255292
474,597.3600311170393
475,597.4751736219356
476,597.579882201222
477,597.6669092138037
478,597.7313356989708
479,597.7709305767953
480,597.7861796451722
481,597.7800358478027
482,597.757465060908
483,597.7248516958151
484,597.6893201565321
485,597.658034518544
486,597.6375448119339
487,597.6332388635748
488,597.6489347414845
489,597.686620125157
490,597.7463205676268
491,597.826069021147
492,597.9219656280889
493,598.0283558535148
494,598.1381840885219
495,598.2435604062158
496,598.3365085583625
497,598.4097878228692
498,598.4576512257422
499,598.4764312437528
500,598.4649009752965
501,598.4244027961762
502,598.3587483396262
503,598.2738850003125
504,598.1773264096739
505,598.0773800453488
506,597.9822634544972
507,597.8992473475754
508,597.8339729472981
509,597.7900558530519
510,597.769017383634
511,597.770500469612
512,597.7926621409895
513,597.8326073762883
514,597.8867421335865
515,597.950974895282
516,598.0207745510064
517,598.0911637960317
518,598.156752713083
519,598.2118913745638
520,598.25097341246
521,598.2688813637592
522,598.2615283589935
523,598.2264095342982
524,598.1630395726725
525,598.0731489309698
526,597.9605610030907
527,597.8307594719621
528,597.6902339202604
529,597.5457278211119
530,597.403508580954
531,597.2687581704075
532,597.1451611104322
533,597.0347421733521
534,596.9379700210461
535,596.8540958758434
536,596.7816527935191
537,596.7190157478537
538,596.6649187781252
539,596.6188407931836
540,596.581204933266
541,596.5533787398887
542,596.5374934231892
543,596.536106806623
544,596.5517295905895
545,596.586247658657
546,596.6403125394069
547,596.7128107794545
548,596.800529841027
549,596.8981107187659
550,596.9983319186897
551,597.0927169144692
552,597.1724047112024
553,597.2291794983014
554,597.2565260694354
555,597.2505665456396
556,597.2107446895378
557,597.1401511813156
558,597.045415380746
559,596.9361274261545
560,596.8238141137225
561,596.7205805606968
562,596.6376237595564
563,596.5838734174648
564,596.5649867951427
565,596.5828373794922
566,596.635540789104
567,596.7179831212604
568,596.8227528516207
569,596.9413187249703
570,597.0652524013863
571,597.1872881390875
572,597.3020541065343
573,597.4063892685698
574,597.4992510037293
575,597.5812985818299
576,597.6542915308556
577,597.7204626608195
578,597.7820091164192
579,597.8407904673402
580,597.8982456602685
581,597.9554726103247
582,598.0133782621749
583,598.0728054824524
584,598.1345735208791
585,598.199422452396
586,598.2679031073452
587,598.3402754165903
588,598.4164626486141
589,598.4960702122135
590,598.5784427946702
591,598.66272335707
592,598.7478840280409
593,598.8327051955409
594,598.9156935000362
595,598.9949676598444
596,599.0681840320831
597,599.13258010556
598,599.1851716033793
599,599.223077233121
600,599.2438988080191
601,599.246067069673
602,599.2290766788919
603,599.1935738715762
604,599.1413111253522
605,599.0750210665398
606,598.9982711525395
607,598.9153383407355
608,598.8310979085276
609,598.7508781679538
610,598.6802219490424
611,598.6245206970422
612,598.5885278501077
613,598.5757986152304
614,598.5881394911708
615,598.6251758891457
616,598.6841442717682
617,598.7599786700657
618,598.84570551252
619,598.9331081373717
620,599.0135791092745
621,599.0790427520803
622,599.1228115857095
623,599.1402509884958
624,599.1291672172706
625,599.0898928116528
626,599.0250991237026
627,598.9393976999046
628,598.8387945343001
629,598.7300462275755
630,598.6199557962757
631,598.5146535253709
632,598.4189331235234
633,598.3357344920333
634,598.2658571838508
635,598.207950396087
636,598.1587779927205
637,598.1137222745751
638,598.0674696110366
639,598.0148005808072
640,597.9513782204313
641,597.8744054337641
642,597.783035872924
643,597.6784808747345
644,597.563832346987
645,597.4436791428298
646,597.3236099154957
647,597.2096731185483
648,597.1078302943005
649,597.0234216926524
650,596.9606762335898
651,596.9223256919123
652,596.9093940471793
653,596.9212091182712
654,596.9556395509823
655,597.0095216464538
656,597.0792079439492
657,597.1611291513217
658,597.2522291091832
659,597.3501499636138
660,597.4531233631335
661,597.5596268337748
662,597.6679412135859
663,597.7757648933162
664,597.880007786257
665,597.9768282259172
666,598.0619097251712
667,598.1309113753935
668,598.179983653264
669,598.206244142286
670,598.2081505445925
671,598.1857513667094
672,598.1408059111744
673,598.0767537271443
674,597.9985096153996
675,597.9120815610986
676,597.8240501077796
677,597.7409851262997
678,597.6688874410321
679,597.6127277450206
680,597.5761275401026
681,597.5611952723388
682,597.5684993647445
683,597.5971356486743
684,597.6448398431528
685,597.7081157051589
686,597.7823929294367
687,597.8622675895655
688,597.9418783758663
689,598.0154313089887
690,598.0778308671607
691,598.1253303222092
692,598.1560883024853
693,598.1705210867609
694,598.1713752052624
695,598.1634966455601
696,598.1533172916908
697,598.148112264479
698,598.155115272413
699,598.1806120558155
700,598.2291483865929
701,598.3029776685356
702,598.4018357660921
703,598.5230753080998
704,598.662128284936
705,598.813207886031
706,598.9701228892699
707,599.1270682357398
708,599.2792736130203
709,599.4234314351173
710,599.5578712852196
711,599.682486783236
712,599.7984562410956
713,599.9078337865284
714,600.0131050266469
715,600.1167810228472
716,600.221058953671
717,600.3275439096439
718,600.437024339297
719,600.5493130858546
720,600.6631843078726
721,600.7764403151907
722,600.8861299430642
723,600.9889150475284
724,601.081548638999
725,601.1613942406998
726,601.2268915320334
727,601.2778694778908
728,601.3156330879434
729,601.3428006989975
730,601.3629258428078
731,601.3799760275697
732,601.3977478838832
733,601.4192808251937
734,601.4463089217452
735,601.4787874926899
736,601.5145601918372
737,601.5492744774909
738,601.5766613069567
739,601.5892344483326
740,601.579347953204
741,601.5404279877093
742,601.4681240893665
743,601.3611391856041
744,601.2215921273263
745,601.0548924780331
746,600.8692006050094
747,600.674578568047
748,600.481935552614
749,600.3018783485503
750,600.143604974365
751,600.0139996170775
752,599.9170577883139
753,599.8536849738474
754,599.8218190586887
755,599.8167873471485
756,599.8318319200006
757,599.8587727312738
758,599.8887755851031
759,599.9131542232769
760,599.9241069852372
761,599.9152993233134
762,599.8822413171375
763,599.8224472873078
764,599.7353935850614
765,599.6223126775499
766,599.4858769437395
767,599.3298376138185
768,599.1586931207056
769,598.977450505843
770,598.7915000808999
771,598.6065646493921
772,598.4286462360039
773,598.2638945639127
774,598.1183532884736
775,597.997583413087
776,597.9062052304708
777,597.847429551898
778,597.8226571967988
779,597.8312182094694
780,597.870314100677
781,597.9352168851921
782,598.0197459432321
783,598.1169765060698
784,598.2200575517801
785,598.322974619883
786,598.4211048775911
787,598.5114687735999
788,598.5926615258885
789,598.6645180025597
790,598.727601780134
791,598.7826164444864
792,598.8298381244045
793,598.8686721630262
794,598.8974277549487
795,598.9133666448541
796,598.9130202060386
797,598.8927042297502
798,598.8491189511643
799,598.779918288645
800,598.6841570422476
801,598.5625583490643
802,598.4175791947816
803,598.2532889647489
804,598.0751062849554
805,597.8894502595734
806,597.7033532158154
807,597.5240695512134
808,597.3587131747619
809,597.2139547642599
810,597.0957908323932
811,597.0093638871584
812,596.9587912439415
813,596.9469636786861
814,596.9753024425445
815,597.0435066873611
816,597.1493656000017
817,597.2887232438993
818,597.455653648063
819,597.6428424582894
820,597.8421129123843
821,598.045005882685
822,598.2433318436423
823,598.4296466187463
824,598.5976472749828
825,598.7425153771429
826,598.8612266746064
827,598.9528025796728
828,599.0184356119943
829,599.0614128611943
830,599.0867980881852
831,599.1009002826739
832,599.1106207410973
833,599.1227946611137
834,599.1436178827878
835,599.1782023913374
836,599.2302660060853
837,599.3019390588183
838,599.3936599986739
839,599.5041351709899
840,599.6303571445492
841,599.7677022614571
842,599.910146487757
843,600.0506360583785
844,600.1816209281637
845,600.2957113556316
846,600.3863690893729
847,600.4485180312929
848,600.4789702333837
849,600.4766077549419
850,600.4423212153498
851,600.3787605682655
852,600.2899822677397
853,600.18106892677
854,600.0577630947836
855,599.9261184683994
856,599.7921468599204
857,599.6614363509816
858,599.5387372868329
859,599.4275498844999
860,599.3297835536948
861,599.2455751614599
862,599.173337246059
863,599.1100576044358
864,599.0518099152702
865,598.9943912245742
866,598.9339910039904
867,598.8678067346566
868,598.7945299633896
869,598.7146285016712
870,598.6303631179228
871,598.5455163101265
872,598.4648669268171
873,598.3934971841038
874,598.336056688728
875,598.2961221002265
876,598.2757673512829
877,598.2753981224263
878,598.2938299350855
879,598.3285315837205
880,598.375934963817
881,598.4317372460106
882,598.4911751041421
883,598.5492915995216
884,598.6012184183702
885,598.642475483213
886,598.6692736337841
887,598.6787995692828
888,598.6694608102671
889,598.6410738746628
890,598.5949892270232
891,598.5341473884882
892,598.4630405801213
893,598.3875264131549
894,598.3144392148806
895,598.2509934078874
896,598.2040504880177
897,598.1793750293633
898,598.1810057941841
899,598.2108324673259
900,598.2684274644826
901,598.351141813881
902,598.4544321524629
903,598.5723606578193
904,598.6982153750424
905,598.8252096509717
906,598.947200144017
907,599.0593236273145
908,599.1584421600289
909,599.2433232019023
910,599.3145365032516
911,599.3740963433161
912,599.4249159106171
913,599.4701708779628
914,599.5126832084162
915,599.5544304012565
916,599.5962622505498
917,599.6378701767017
