frame_number,force
0,503.6760600000356
1,504.07258233799536
2,504.4538145588633
3,504.8057280039181
4,505.1166331468193
5,505.3779350292329
6,505.58450301985346
7,505.73466916460796
8,505.82992779697804
9,505.8744406426141
10,505.8744558870597
11,505.8377289560475
12,505.7729942254512
13,505.68949051168676
14,505.5965047753092
15,505.50288996694616
16,505.41654256706124
17,505.3438737147064
18,505.28934608833845
19,505.25516161596056
20,505.24117236688426
21,505.24505354250465
22,505.26272871445855
23,505.2889832976424
24,505.3181607804
25,505.3448270859315
26,505.3643189704586
27,505.37314496397755
28,505.36924390359167
29,505.3521034789024
30,505.3227226432859
31,505.2834093101775
32,505.23744422601266
33,505.18868039066405
34,505.1411540320459
35,505.09875218791086
36,505.06493624086175
37,505.04250002610684
38,505.03336164373104
39,505.03841988339974
40,505.05751056558205
41,505.0894717728523
42,505.13229542186787
43,505.18332721436457
44,505.239479489102
45,505.29743403655937
46,505.3538286538914
47,505.4054357386265
48,505.44934440201547
49,505.48314620677365
50,505.50510656991975
51,505.5142907395203
52,505.51061164308373
53,505.49477813006627
54,505.46814627166356
55,505.43251018276106
56,505.3898986114757
57,505.34244811113405
58,505.29239168992984
59,505.2421457714934
60,505.1944263699543
61,505.15230040099
62,505.1190882683749
63,505.09808090552417
64,505.09211023762373
65,505.1030830885913
66,505.13161043683994
67,505.1768254912983
68,505.2364185040148
69,505.30686091834815
70,505.38375711863364
71,505.46224777804196
72,505.5373999571406
73,505.6045518056185
74,505.65961058144967
75,505.6993132712387
76,505.7214530265862
77,505.7250639021136
78,505.7105467393317
79,505.679710698322
80,505.63570012305337
81,505.58278146513885
82,505.52598174948884
83,505.470594869654
84,505.4216042779708
85,505.38310546634085
86,505.3578292528364
87,505.3468490435973
88,505.34950743505846
89,505.363547643042
90,505.3854105352781
91,505.41065814469925
92,505.4344838868407
93,505.4522538772165
94,505.4600055765219
95,505.4548268231984
96,505.4350585450593
97,505.4003105348504
98,505.35133725416216
99,505.28985716266334
100,505.21839388747696
101,505.14017941838654
102,505.05910988744733
103,504.9797012527824
104,504.9069687420404
105,504.8461601529643
106,504.8023142551955
107,504.77968444065596
108,504.7811348541732
109,504.80764327115816
110,504.8580209662337
111,504.92890932062886
112,505.0150631038131
113,505.10988704190993
114,505.20615182457
115,505.2967828393177
116,505.37560169647134
117,505.4379144743812
118,505.48087631156915
119,505.50360367957
120,505.5070399256433
121,505.49360824742683
122,505.4667202618004
123,505.4302459106494
124,505.38806855609454
125,505.34382321348943
126,505.3008440299632
127,505.2622565673359
128,505.2310864857721
129,505.2102562148215
130,505.20240579479434
131,505.20956530489184
132,505.2327760213746
133,505.27177548719277
134,505.32482948299094
135,505.3887423736766
136,505.4590414334308
137,505.5303192225405
138,505.5967122100836
139,505.6524752285286
140,505.69258424075736
141,505.7132837620442
142,505.7125007973088
143,505.6900685476755
144,505.647733418168
145,505.58895625717685
146,505.5185517490163
147,505.4422178400386
148,505.3659897136353
149,505.29563998063384
150,505.2360651078646
151,505.1907388005181
152,505.16134010396564
153,505.14764963020525
154,505.147752045166
155,505.1585056231584
156,505.17616654878924
157,505.19701983018655
158,505.2178919960059
159,505.23648636268155
160,505.2515451349176
161,505.26287352586655
162,505.27125929949756
163,505.27830233894946
164,505.2861539404311
165,505.29717124641724
166,505.31351559995124
167,505.33674617067527
168,505.3674697459605
169,505.4051029460934
170,505.44778605369305
171,505.49246459034424
172,505.5351354377718
173,505.5712380352326
174,505.59614844446537
175,505.60570728317873
176,505.5967001067234
177,505.5672213446219
178,505.51687934052535
179,505.44682641992114
180,505.35962243838395
181,505.2589592234948
182,505.149276005354
183,505.0352888571002
184,504.9214670993455
185,504.81152483440246
186,504.7080270713332
187,504.6122045295903
188,504.5240273909704
189,504.4425278698917
190,504.36630524151116
191,504.294106164344
192,504.2253548237602
193,504.16051656086773
194,504.10121491260116
195,504.0500783926926
196,504.01035700827725
197,503.9854006552656
198,503.9781124213834
199,503.99047322586983
200,504.0231968149591
201,504.07554184877904
202,504.1452904820034
203,504.22888981695263
204,504.3217353793583
205,504.41856102780554
206,504.51389310109533
207,504.6025202113355
208,504.6799196629069
209,504.7425820353431
210,504.7882019176002
211,504.81574447609165
212,504.8254267390156
213,504.8186515814367
214,504.79790756537466
215,504.766620950896
216,504.7289348604975
217,504.6893985826407
218,504.65257527368084
219,504.622610939629
220,504.6028315789895
221,504.5954319324366
222,504.6012946641796
223,504.619952468616
224,504.64968667487227
225,504.6877377005347
226,504.7305789090696
227,504.7741911937947
228,504.8142984476472
229,504.8465785996028
230,504.86690000068114
231,504.8716124521316
232,504.85787325129223
233,504.82396045647283
234,504.7695289945749
235,504.6957801971511
236,504.6055276796115
237,504.5031486762907
238,504.3944074086824
239,504.28612988708494
240,504.1857139348953
241,504.1004877818655
242,504.0369780602673
243,504.00018819468795
244,503.9929987251489
245,504.01578043170514
246,504.06627492422245
247,504.1397596067843
248,504.229478328713
249,504.3272902704082
250,504.4244787634447
251,504.51266502574924
252,504.58475892692877
253,504.63583498964994
254,504.6637852771994
255,504.6696194411208
256,504.6573510322663
257,504.6334863096873
258,504.6061905944567
259,504.5842460818767
260,504.5759382827211
261,504.5880169513121
262,504.6248681957221
263,504.6880026244975
264,504.7759122468421
265,504.8842908345687
266,505.00656704254556
267,505.13467240218523
268,505.25994513209406
269,505.37404779554936
270,505.46976739737585
271,505.54158920392183
272,505.58598509041224
273,505.60141247172334
274,505.58806951026486
275,505.54749514364124
276,505.4821302385119
277,505.3949553178188
278,505.2892884333067
279,505.168772704953
280,505.0375168711233
281,504.90029090218593
282,504.7626517970399
283,504.6308995710271
284,504.5118228557057
285,504.41225517984157
286,504.33850770456905
287,504.29576522522154
288,504.2875305047156
289,504.3151888320626
290,504.37775127389045
291,504.4718189801655
292,504.5917841555789
293,504.7302471039453
294,504.8785951758991
295,505.02767283406524
296,505.1684749506586
297,505.29280541550696
298,505.3938512439367
299,505.4666341551889
300,505.5083213294878
301,505.51839552939185
302,505.49868780296157
303,505.4532579396101
304,505.3880828918505
305,505.31051498851036
306,505.22852319357787
307,505.1498121404438
308,505.08097472012787
309,505.02683707286855
310,504.9900986003282
311,504.9712849638604
312,504.9689637065101
313,504.98014510602434
314,505.0007910137222
315,505.02635581571275
316,505.05228569486195
317,505.07442373733113
318,505.08930994716684
319,505.09439719836166
320,505.0882001753933
321,505.07036737219386
322,505.04165385814116
323,505.0037906106307
324,504.9592759479277
325,504.9111334421271
326,504.86268109182953
327,504.81733480294287
328,504.77842978627723
329,504.7490175279385
330,504.73161681393805
331,504.7279512809709
332,504.73874325522024
333,504.76362608559725
334,504.80119854461884
335,504.8492019319368
336,504.90476861245315
337,504.96467921218033
338,505.0255842432639
339,505.0841869868707
340,505.1374162935344
341,505.18261533846055
342,505.217743597638
343,505.2415625925269
344,505.25376875345995
345,505.25504509755194
346,505.24701486829514
347,505.2320890172394
348,505.21320873660517
349,505.19350140004565
350,505.17589510742744
351,505.16275989409843
352,505.1556417665139
353,505.1551271982062
354,505.16084076749013
355,505.1715533369343
356,505.1853648720904
357,505.1999261541871
358,505.2126763717018
359,505.2210853128865
360,505.22288487991585
361,505.2162609430628
362,505.1999782213262
363,505.17344065789746
364,505.13672392109356
365,505.09061675745886
366,505.0366683523515
367,504.97719844317356
368,504.9152251411815
369,504.85429712791273
370,504.79824557786947
371,504.75087891680676
372,504.7156444175027
373,504.69529057317686
374,504.691580583088
375,504.7051123066929
376,504.73527737199583
377,504.7803522968176
378,504.8376909220801
379,504.90399091457516
380,504.9756091368433
381,505.0488809668239
382,505.12038077358557
383,505.18707860443965
384,505.24639640041966
385,505.296208387294
386,505.3348401927079
387,505.3611045983975
388,505.37438420123306
389,505.3747433710805
390,505.36302833576286
391,505.34089983773373
392,505.3107492331259
393,505.27548267820345
394,505.2382031178853
395,505.20184919559836
396,505.1688530055761
397,505.14086636209606
398,505.1185956312187
399,505.10177929226916
400,505.08932097289295
401,505.07954461753843
402,505.0704970713922
403,505.06022614154784
404,505.0470022302831
405,505.02948108213525
406,505.0068017618667
407,504.9786053740612
408,504.9449745486601
409,504.9063217902136
410,504.8632704276671
411,504.8165665388111
412,504.76704380423365
413,504.7156455939846
414,504.66349075668353
415,504.6119509523022
416,504.5626940467004
417,504.5176497474227
418,504.4788729714147
419,504.4483124113981
420,504.42753118060557
421,504.41746111201326
422,504.4182767775336
423,504.4294331715079
424,504.4498383976283
425,504.47807023438696
426,504.51253308687365
427,504.5514999696502
428,504.59305763668965
429,504.63501945419966
430,504.6748706191729
431,504.7097846832584
432,504.7367245494015
433,504.7526220270638
434,504.7546144892153
435,504.7403062266802
436,504.70801988963024
437,504.65700887732294
438,504.587609923434
439,504.5013244680697
440,504.4008279807733
441,504.28991591184354
442,504.1733957678725
443,504.0569228168973
444,503.94676586020637
445,503.84949675683094
446,503.771614712153
447,503.7191217936802
448,503.69705997390764
449,503.709024313132
450,503.7566955647049
451,503.8394748321671
452,503.9543182044997
453,504.0958364674028
454,504.256660728506
455,504.42802254625
456,504.6004802812552
457,504.76472792810097
458,504.9124247378969
459,505.0369728097338
460,505.1341484463339
461,505.2024798142902
462,505.2432855955101
463,505.26035307522903
464,505.2593110699112
465,505.24680740192366
466,505.2296174593139
467,505.21379688103696
468,505.2039660490762
469,505.2027950009365
470,505.2107456179569
471,505.2261048901149
472,505.2452990298345
473,505.2634331103797
474,505.27497987224086
475,505.27454226304167
476,505.2576149939125
477,505.22125944003767
478,505.16459548923507
479,505.0890254742189
480,504.9981502682885
481,504.89740293887513
482,504.793481178627
483,504.69368447682285
484,504.6052534590506
485,504.5347747229144
486,504.4876710940236
487,504.46776984429886
488,504.4769448543152
489,504.51485296619063
490,504.5788088216665
491,504.6638505993
492,504.76303329139597
493,504.8679498658671
494,504.96944073563265
495,505.0584239401713
496,505.1267621764805
497,505.16807081976106
498,505.17836372411875
499,505.15644186517187
500,505.1039655015498
501,505.0252094058472
502,504.92655926621103
503,504.81584367895607
504,504.7016074498148
505,504.5924222166551
506,504.4962962989937
507,504.42019284638945
508,504.36962578076077
509,504.34830957650564
510,504.3578833791118
511,504.39776577902404
512,504.4651901421861
513,504.55543549949067
514,504.66223732051674
515,504.7783432806844
516,504.89616062291293
517,505.0084280622034
518,505.10884703720546
519,505.19261395946904
520,505.2567906021951
521,505.3004470399302
522,505.32454229679865
523,505.3315734069404
524,505.32508101444216
525,505.3091120117256
526,505.2877201107045
527,505.2645660853882
528,505.2426615071568
529,505.22426670628687
530,505.2109148080975
531,505.20351336302707
532,505.2024752615252
533,505.2078380851147
534,505.21934549176564
535,505.2364896207413
536,505.2585367287763
537,505.28456189876044
538,505.3135052299688
539,505.3442483296507
540,505.3757046266877
541,505.406913382573
542,505.43711618503335
543,505.4657811097114
544,505.4925440902372
545,505.5170710868784
546,505.53889005953425
547,505.5572669703611
548,505.57119054258294
549,505.57949332944725
550,505.5810898900856
551,505.57527557124826
552,505.5620106637125
553,505.5421146297772
554,505.51731517516185
555,505.49013596565493
556,505.46364980581245
557,505.44114942510333
558,505.4257852578782
559,505.4201975916002
560,505.42615160333423
561,505.444189548588
562,505.4733465602637
563,505.5110091711917
564,505.5529950626121
565,505.5938907202823
566,505.62762178590924
567,505.6481723704928
568,505.65032934415206
569,505.63032187407134
570,505.5862658872551
571,505.51838948777436
572,505.42906554482744
573,505.32268324451417
574,505.20536447029855
575,505.08451139507326
576,504.96818513075385
577,504.8643567946272
578,504.78011661396783
579,504.72095231345423
580,504.6902054112979
581,504.68878238115144
582,504.7151488765056
583,504.7655896055095
584,504.8346857681912
585,504.9159457781381
586,505.0025173424911
587,505.08790142832845
588,505.16657926340736
589,505.2344637007222
590,505.2891077589719
591,505.32964562589643
592,505.3564950062982
593,505.3708977124705
594,505.37440193707727
595,505.36839278052236
596,505.3537627651237
597,505.3307792461878
598,505.29915294619303
599,505.2582638946755
600,505.20748219035806
601,505.1465280843856
602,505.07582448169154
603,504.9967903907046
604,504.9120168471344
605,504.8252773663263
606,504.7413546143696
607,504.6656972750171
608,504.6039477535945
609,504.56140533773
610,504.5425020911642
611,504.5503535347735
612,504.5864105039656
613,504.6502152576279
614,504.73927239190067
615,504.8490652779045
616,504.97325161165463
617,505.1040502761877
618,505.23280337549215
619,505.35067470735913
620,505.44942379769293
621,505.5221689253018
622,505.5640360864253
623,505.57260120011
624,505.5480699285763
625,505.49318085957907
626,505.41284615621163
627,505.3135715800059
628,505.2027420844791
629,505.08789781329034
630,504.97611151820774
631,504.87350748949046
632,504.7848935899454
633,504.7134711264876
634,504.6606351139339
635,504.6259234940884
636,504.60717585663497
637,504.60092034132555
638,504.60294637011947
639,504.6089677205185
640,504.6152531803843
641,504.6191058683976
642,504.6191057563053
643,504.615087965683
644,504.60789689355823
645,504.5990084249351
646,504.59012943102385
647,504.5828642520098
648,504.5784999848579
649,504.57792667312214
650,504.58168154338034
651,504.59008508673116
652,504.60341950571495
653,504.6220892132444
654,504.64670469115185
655,504.6780511138087
656,504.7169394762719
657,504.7639783238729
658,504.81933122812353
659,504.8825247898797
660,504.9523465752969
661,505.0268443428737
662,505.103428873697
663,505.1790882853595
664,505.2507165364203
665,505.3155292468744
666,505.37150081395095
667,505.4177346429885
668,505.4546860876695
669,505.48418612591604
670,505.5092472279215
671,505.53367028993586
672,505.56151850743845
673,505.5965664316087
674,505.64183966698954
675,505.6993201904046
676,505.76982779431705
677,505.8530403789405
678,505.9476059175594
679,506.0513121669205
680,506.16129015465884
681,506.2742283118219
682,506.3865777131431
683,506.4947402681368
684,506.5952411096515
685,506.68488458944415
686,506.7608869655723
687,506.8209814700917
688,506.86350027132517
689,506.88743703754
690,506.8924804941911
691,506.8790007988826
692,506.847980977246
693,506.8009055133126
694,506.73962686773206
695,506.66622559041946
696,506.5828758989821
697,506.4917330970791
698,506.39486264198865
699,506.2942217842458
700,506.1916829967915
701,506.08906659797896
702,505.9881465238959
703,505.89061561091097
704,505.7980294861007
705,505.7117636134176
706,505.6330036669295
707,505.5627594631563
708,505.50187128481156
709,505.45097814237107
710,505.4104398784478
711,505.38023705945574
712,505.35989411502663
713,505.3484671683415
714,505.3446120782627
715,505.3467178093361
716,505.3530704627367
717,505.3620079809602
718,505.3720320035512
719,505.3818605775689
720,505.3904298606036
721,505.39687187141675
722,505.40049849201125
723,505.40081231944947
724,505.39754861615285
725,505.39073460234556
726,505.38074512245913
727,505.36834347088325
728,505.3547042897085
729,505.3414017729453
730,505.3303259255713
731,505.32349835254735
732,505.32280331268373
733,505.3296948262518
734,505.344953877342
735,505.36855260662605
736,505.39965460093873
737,505.43675282196534
738,505.47791675619754
739,505.52108575832904
740,505.564319494947
741,505.605925812649
742,505.6444445650887
743,505.67854316405754
744,505.7069165749636
745,505.72825158913423
746,505.74124823206176
747,505.7446510225314
748,505.73725284392657
749,505.7178721500286
750,505.6853369249047
751,505.63851886576856
752,505.5764509314467
753,505.4985389988268
754,505.4048460516804
755,505.29638926825356
756,505.1753628876699
757,505.04520232409055
758,504.9104450041922
759,504.77640696936453
760,504.6487490734895
761,504.5330238563148
762,504.4342715820542
763,504.3566928157016
764,504.30339277497393
765,504.27618626525043
766,504.27546223697306
767,504.3001127464838
768,504.34753449834864
769,504.4137268704735
770,504.4935226798684
771,504.5809663012798
772,504.6698025112054
773,504.75399443966364
774,504.8281805455259
775,504.8880157255652
776,504.930397701033
777,504.95361206289533
778,504.9574117176458
779,504.9430034464731
780,504.9128958296403
781,504.8705890851837
782,504.8201329486887
783,504.76561121611377
784,504.71062753189784
785,504.65787891149466
786,504.6089065549311
787,504.56408553257205
788,504.522849415888
789,504.48407202394975
790,504.4464887889659
791,504.4090512732557
792,504.3711519288338
793,504.3327065970661
794,504.29412448972596
795,504.2562201289082
796,504.22012335166875
797,504.1872244180457
798,504.15916019093726
799,504.13781698876073
800,504.1253093540902
801,504.123895587228
802,504.13580388872725
803,504.1629635278
804,504.20666632011955
805,504.26722030275573
806,504.3436804953129
807,504.43373117087305
808,504.5337528516701
809,504.63906342323133
810,504.744300211308
811,504.8439015986515
812,504.93263092263703
813,505.0060612657586
814,505.06093323272114
815,505.09533091863125
816,505.10868329557235
817,505.1016521698463
818,505.07598441694444
819,505.0343846441776
820,504.9804231917567
821,504.91845469468274
822,504.8534994103671
823,504.79103759961316
824,504.7366833681176
825,504.69573389243294
826,504.67262562079526
827,504.67036271006003
828,504.6900108524126
829,504.73036675163854
830,504.78790752013396
831,504.85708472973755
832,504.9309583971479
833,505.00208595604516
834,505.06351568791314
835,505.1097030738135
836,505.1371819708956
837,505.14487833060855
838,505.1340354558385
839,505.10780182315483
840,505.0705943997893
841,505.0273796706388
842,504.9830090614658
843,504.94171106499215
844,504.90678848183796
845,504.8805129169265
846,504.8641736115622
847,504.85823125242
848,504.8625319716402
849,504.876537266685
850,504.8995273781849
851,504.93074685297904
852,504.9694807959279
853,505.0150754530234
854,505.0669367896744
855,505.12453758370003
856,505.1874357067332
857,505.25527760407425
858,505.32775414849806
859,505.4044925861128
860,505.48489862571176
861,505.5679957846412
862,505.65232562082014
863,505.7359512986468
864,505.816553937357
865,505.89156596065857
866,505.9582852984587
867,506.0139569231312
868,506.0558552061247
869,506.0814150116094
870,506.08844182218127
871,506.07540669011723
872,506.04180862188304
873,505.9885522178823
874,505.9182430848476
875,505.83527752757095
876,505.74562761955923
877,505.6562981778177
878,505.57452546394273
879,505.5068577742851
880,505.4582820777148
881,505.4315405039921
882,505.42673645827335
883,505.44128645747116
884,505.4702394889867
885,505.5069488555014
886,505.54402677024234
887,505.5744453144084
888,505.5925962972992
889,505.5951114225313
890,505.58127946808503
891,505.55297375099036
892,505.5141063459072
893,505.4697302689025
894,505.42498958831294
895,505.3841465163046
896,505.34988074553485
897,505.3229702752696
