frame_number,force
0,655.8084700000446
1,656.3108634631311
2,656.793593598117
3,657.2390204230742
4,657.6332327146506
5,657.96720496419
6,658.237298425488
7,658.4451110625084
8,658.5967683518893
9,658.7018095382249
10,658.771860679779
11,658.8192882238532
12,658.8559882731295
13,658.8924027846458
14,658.9367998624014
15,658.9948303756114
16,659.0693654127683
17,659.1606120046685
18,659.2664944323628
19,659.383269922834
20,659.506310673197
21,659.6309370529858
22,659.7531575448625
23,659.8701778640395
24,659.9805827895173
25,660.0841646202408
26,660.1814640952733
27,660.2731745365537
28,660.3595945675565
29,660.4402763280619
30,660.5139280605341
31,660.5785442865634
32,660.6316893622305
33,660.6708504437509
34,660.6937879738725
35,660.6988368408201
36,660.6851420219484
37,660.6528340017562
38,660.6031503253122
39,660.5384939492436
40,660.4623993613152
41,660.3793691684897
42,660.2945614453048
43,660.2133496174339
44,660.1408155276766
45,660.0812475755054
46,660.0377041808215
47,660.0116903167012
48,660.002989231324
49,660.009680352056
50,660.0283460137375
51,660.0544305218386
52,660.0826845696228
53,660.1076198802523
54,660.1239126978511
55,660.126722602098
56,660.1119253079219
57,660.0762822293201
58,660.0175752889965
59,659.9347234271379
60,659.8278788589238
61,659.6984876528838
62,659.5492948100125
63,659.3842788440357
64,659.2085120932755
65,659.0279503556037
66,658.8491492950494
67,658.6788936471911
68,658.523729873986
69,658.3894227280246
70,658.2803974634708
71,658.1992597503043
72,658.1464897988203
73,658.1203820644902
74,658.1172545846483
75,658.1319017143873
76,658.1582313217656
77,658.1900144629099
78,658.2216635365124
79,658.2489309214037
80,658.26940040058
81,658.2826607032823
82,658.2901161490129
83,658.2944784583302
84,658.2990555771098
85,658.3069832824052
86,658.3205343745446
87,658.3406026051691
88,658.3664092712163
89,658.3954379802558
90,658.4235882099481
91,658.4455473225048
92,658.4553748612213
93,658.4472481549508
94,658.4162651990778
95,658.3591809348053
96,658.2749639656334
97,658.1650785719008
98,658.0334240536004
99,657.8859199358967
100,657.7298058610189
101,657.5727914375541
102,657.4222114792689
103,657.2843151494527
104,657.1637652549065
105,657.0633721651159
106,656.9840535633713
107,656.9249972644626
108,656.8839957400461
109,656.857907006368
110,656.8431813362486
111,656.8363868857768
112,656.834670221825
113,656.8360919005377
114,656.8397835238941
115,656.8458956385726
116,656.8553519812464
117,656.8694771416158
118,656.8895941459042
119,656.9166819843717
120,656.951148701069
121,656.9927339785118
122,657.040522281899
123,657.0930276053366
124,657.1483040635743
125,657.2040446358719
126,657.2576505683619
127,657.3062798442055
128,657.3469078983444
129,657.376443503527
130,657.3919213405514
131,657.390747400282
132,657.3709404971892
133,657.3313224179998
134,657.2716474432947
135,657.1926874856608
136,657.0962811088548
137,656.9853318893674
138,656.8637303088437
139,656.7361801522685
140,656.6079288902916
141,656.4844244738437
142,656.3709409907518
143,656.2722265092117
144,656.192223440862
145,656.1338889879611
146,656.0991016250047
147,656.0886015685937
148,656.1019142180435
149,656.1372576422071
150,656.1915039133066
151,656.2602927785321
152,656.3383574524217
153,656.4200430767728
154,656.49993198329
155,656.5734663575028
156,656.6374669563446
157,656.6904643681586
158,656.7327877089671
159,656.7664036249145
160,656.7945503173219
161,656.821237235905
162,656.8506765070036
163,656.8867015732849
164,656.9322311848205
165,656.9888464292279
166,657.0565464556408
167,657.1337261719606
168,657.2173833174387
169,657.3035250543535
170,657.3877140097895
171,657.465677087804
172,657.533898844291
173,657.5901243514327
174,657.6336967622696
175,657.6656643944868
176,657.6886258128478
177,657.706332231683
178,657.7231129786793
179,657.7432185350162
180,657.7701894254661
181,657.8063608950964
182,657.8525918521325
183,657.9082516586792
184,657.97142619463
185,658.0392522921311
186,658.108281425484
187,658.1748031300524
188,658.2351029205237
189,658.2856668834401
190,658.3233603704763
191,658.3455968840718
192,658.3504898876895
193,658.3369704957518
194,658.304868005057
195,658.2549696195886
196,658.1890738793236
197,658.1100226357213
198,658.0216571322877
199,657.9286250133615
200,657.8359920561469
201,657.7486841918525
202,657.6708649048376
203,657.6053907606358
204,657.5534634152667
205,657.5145327232179
206,657.4864401772961
207,657.4657494472694
208,657.4481978465628
209,657.429207445302
210,657.4043965238162
211,657.3700289870013
212,657.3233514393278
213,657.2628020397773
214,657.1881083856816
215,657.1002971334543
216,657.0016188802025
217,656.8953770598249
218,656.785660689852
219,656.6770064285752
220,656.574028020488
221,656.4810429804579
222,656.4017154267532
223,656.3387391921225
224,656.2936041259911
225,656.2665011891457
226,656.2564151727199
227,656.2614256905933
228,656.2791836962865
229,656.3074604452954
230,656.3446183263122
231,656.3898675626747
232,656.4432465556548
233,656.505360430178
234,656.5769894950098
235,656.6587023230182
236,656.7505719291022
237,656.852032849308
238,656.9618753533913
239,657.0783631254247
240,657.1994602092259
241,657.3231350396335
242,657.4476772688959
243,657.5719489483953
244,657.695514840293
245,657.8186398926989
246,657.9421781769041
247,658.0673993162225
248,658.1958054102669
249,658.3289749511317
250,658.4684327867631
251,658.6155143831343
252,658.7711935298067
253,658.9358725532661
254,659.109171380609
255,659.289773786408
256,659.4753849534986
257,659.6628316110771
258,659.8483092536675
259,660.0277540673528
260,660.1972866116821
261,660.3536471684299
262,660.4945354695983
263,660.6187857258616
264,660.726340829364
265,660.8180260628596
266,660.8951589973558
267,660.9590671199885
268,661.010612208073
269,661.0498285587537
270,661.0757641296094
271,661.0865771114453
272,661.0798924656657
273,661.0533622860029
274,661.0053132456968
275,660.9353328630667
276,660.8446582473765
277,660.7362783410653
278,660.6147314580612
279,660.485660095466
280,660.3552503877925
281,660.2297068134326
282,660.1148789516836
283,660.0160764326749
284,659.9380179298581
285,659.8848062334908
286,659.8598287785802
287,659.8655379271538
288,659.9031318857119
289,659.9722091468651
290,660.0704974843992
291,660.1937545058379
292,660.3358979009138
293,660.4893689048181
294,660.64568796225
295,660.7961365639895
296,660.932491034378
297,661.0477364259904
298,661.1366926659077
299,661.1964862442669
300,661.2268021167519
301,661.229859660254
302,661.2100852386149
303,661.1735051068356
304,661.1269375917138
305,661.0771035850433
306,661.0297966486942
307,660.989251066347
308,660.9578009310401
309,660.935844588734
310,660.9220569987526
311,660.9137584883666
312,660.9073527716326
313,660.8987756516145
314,660.8839271170616
315,660.8590740490613
316,660.8212095976896
317,660.7683553738956
318,660.6998004579702
319,660.616275886078
320,660.5200534448227
321,660.414935516243
322,660.3060827834825
323,660.1996288752281
324,660.1020711171078
325,660.0194981325449
326,659.956783595634
327,659.916903427064
328,659.900511736849
329,659.9058539337154
330,659.9290200000225
331,659.9644634086985
332,660.0056564848646
333,660.0457424131804
334,660.0780773216896
335,660.096612041097
336,660.0961151748894
337,660.0722691934686
338,660.021679236867
339,659.9418337022356
340,659.8310592292399
341,659.6885179248987
342,659.5142853171999
343,659.3095134932844
344,659.0766375901738
345,658.8195528430206
346,658.5436921079657
347,658.2559628235748
348,657.9645333480605
349,657.6784725526447
350,657.4072447605356
351,657.1600642736563
352,656.9451405737565
353,656.7688977950203
354,656.6353031945301
355,656.5454497474306
356,656.497491016588
357,656.4869440441828
358,656.5072942398667
359,656.5507807608421
360,656.6092247313273
361,656.6747826116947
362,656.7405446318462
363,656.80093812909
364,656.8519350809462
365,656.8911003407901
366,656.9175403097761
367,656.931806001429
368,656.9357722848516
369,656.932482488831
370,656.9259365215382
371,656.920804705163
372,656.9220509500033
373,656.9344506289699
374,656.9620086969073
375,657.0073253093966
376,657.0710021002162
377,657.1512119814331
378,657.2435529239777
379,657.3412628264473
380,657.4357975565681
381,657.5176960116329
382,657.5776021359397
383,657.6072942535535
384,657.6005839323285
385,657.5539818650441
386,657.4670721571913
387,657.34257295649
388,657.1860876002798
389,657.0055747405172
390,656.8105909804865
391,656.6113812042285
392,656.4179114844763
393,656.2389582745625
394,656.0813702249852
395,655.9495877306429
396,655.845449899196
397,655.7682721604718
398,655.7151610223327
399,655.6815337382525
400,655.6618036323815
401,655.6501659353946
402,655.6413852261265
403,655.6314620191698
404,655.6180588478586
405,655.6006060674638
406,655.5800807173007
407,655.5585339907469
408,655.5384990050209
409,655.5224174236769
410,655.5121884696471
411,655.5088938185519
412,655.5127040687252
413,655.5229319425539
414,655.5381746429238
415,655.5564933383462
416,655.5756020943492
417,655.5930575665923
418,655.6064390668561
419,655.613492468529
420,655.6122040014292
421,655.6007908860221
422,655.5776386089576
423,655.5412510899548
424,655.4902852547223
425,655.4237093144254
426,655.3410667169875
427,655.2427706815934
428,655.1303244731021
429,655.0063784425797
430,654.8745954840947
431,654.7393712377559
432,654.605498719403
433,654.4778580545866
434,654.3611697967856
435,654.2598115030903
436,654.1776843728784
437,654.1181225329897
438,654.0838374700276
439,654.0768758817741
440,654.0985609857315
441,654.1494047876581
442,654.2290121951253
443,654.3360179160013
444,654.4680871126304
445,654.6219797257712
446,654.7936493886364
447,654.97834527887
448,655.1707193668067
449,655.3649897456198
450,655.5552295674967
451,655.7358177479825
452,655.9020179459925
453,656.0505823342486
454,656.1802390152131
455,656.2919316666332
456,656.3887303933424
457,656.4754046424873
458,656.5577222193052
459,656.6415954351929
460,656.7322250805831
461,656.8333916782991
462,656.9470094716985
463,657.0729961222632
464,657.209441663354
465,657.3530097701305
466,657.4994800791256
467,657.6443355302969
468,657.7833100397156
469,657.912835815158
470,658.0303559773175
471,658.1344894658895
472,658.2250547007897
473,658.3029785914227
474,658.3701278142167
475,658.4290867232303
476,658.4828785214529
477,658.5346144878346
478,658.587082656363
479,658.6423339302501
480,658.7013461288434
481,658.7638282638283
482,658.8281946745966
483,658.8917156296978
484,658.9508323852616
485,659.001603274008
486,659.0402325097991
487,659.0636305551897
488,659.0699505444799
489,659.0590253035496
490,659.0326087177148
491,658.994339936698
492,658.9494094777443
493,658.9039769577045
494,658.8644323150567
495,658.8366051539512
496,658.825029387577
497,658.8323649568536
498,658.8590522793241
499,658.9032309127299
500,658.9609171640635
501,659.0264228114708
502,659.0929928221552
503,659.153616963183
504,659.2019257443146
505,659.2330379999416
506,659.2442102264927
507,659.2351585976155
508,659.2079827078412
509,659.1667027229328
510,659.1165052619087
511,659.062855644434
512,659.0106642307651
513,658.9636834651019
514,658.9242469484514
515,658.8933495493495
516,658.8709537293963
517,658.8563493717063
518,658.8484168952767
519,658.8457241747906
520,658.8464827324722
521,658.8484608576887
522,658.8489820796572
523,658.845122615314
524,658.8341597203837
525,658.8142179588366
526,658.7849459391831
527,658.7479972591544
528,658.7071313836233
529,658.6678713582053
530,658.6367870054314
531,658.6205578938464
532,658.6249972317124
533,658.6542020017895
534,658.709952893262
535,658.7914306998013
536,658.8952551437621
537,659.015800928342
538,659.1457186762077
539,659.2765908248292
540,659.399666672271
541,659.5066219928008
542,659.5902784404786
543,659.6452151847673
544,659.6682146328998
545,659.6584992971832
546,659.6177372475489
547,659.549818399494
548,659.4604282871123
549,659.3564703045089
550,659.2454107306785
551,659.1346269407666
552,659.0308123447859
553,658.9394503719118
554,658.8643596354513
555,658.8073496870738
556,658.7680724376877
557,658.7441545692809
558,658.7316330881138
559,658.7256213175906
560,658.7210657554476
561,658.7134559017817
562,658.6994041115063
563,658.6770656048079
564,658.646381577297
565,658.6091136149739
566,658.5686341168868
567,658.5294644398101
568,658.4966003881282
569,658.4747152988597
570,658.4673695938857
571,658.4763691060202
572,658.501393678077
573,658.5399662790426
574,658.5877644396419
575,658.6392045463934
576,658.6881782574641
577,658.728814960311
578,658.7561792655323
579,658.7668464473312
580,658.7593019922605
581,658.7341006067328
582,658.6937359496337
583,658.6422334250782
584,658.5845573775304
585,658.5259691678903
586,658.4714536565873
587,658.4252679992439
588,658.3906099117346
589,658.3693886747842
590,658.3621019313895
591,658.3678387211023
592,658.3844211048627
593,658.4086693915074
594,658.4367498428309
595,658.464552948315
596,658.4880576157768
597,658.503656117519
598,658.5084337305017
599,658.5004057950932
600,658.4787134100364
601,658.4437663674448
602,658.3972974363195
603,658.3422753024703
604,658.28264131988
605,658.2228828473484
606,658.1675034187115
607,658.1204802938238
608,658.0848087669517
609,658.062212209199
610,658.0530496809552
611,658.0564019797713
612,658.0702859550894
613,658.0919427390559
614,658.1181579218857
615,658.1455824164914
616,658.171024359025
617,658.1916866955551
618,658.2053392442406
619,658.2104200548778
620,658.2060447684468
621,658.19189054436
622,658.1679524656662
623,658.1342391550618
624,658.090525309665
625,658.0362637242351
626,657.970683295005
627,657.8930136622907
628,657.8027333271427
629,657.6997501499001
630,657.5844691259792
631,657.4577534918529
632,657.3208217828021
633,657.175133148473
634,657.022296285875
635,656.8640099429742
636,656.7020235068454
637,656.5381039080347
638,656.3740081071653
639,656.2114731667604
640,656.0522310465925
641,655.8980379622087
642,655.7506976531312
643,655.6120558510913
644,655.4839401104579
645,655.3680237633853
646,655.2656197912088
647,655.1774490880019
648,655.1034525724409
649,655.0427184627066
650,654.9935807149362
651,654.9539146743148
652,654.9216099799522
653,654.8951470793943
654,654.8741614367531
655,654.8598645547606
656,654.8552073553436
657,654.8647144617922
658,654.8939784834303
659,654.9488690764724
660,655.0345683428403
661,655.1545833043895
662,655.3099061155509
663,655.4984887657674
664,655.715158119591
665,655.9520137809599
666,656.199249215459
667,656.4462578788762
668,656.6828504854046
669,656.9004015498988
670,657.0927504088714
671,657.2567195966365
672,657.3921925748228
673,657.50178710202
674,657.5902294703529
675,657.6635598881694
676,657.7282866171774
677,657.79057587093
678,657.8555405269038
679,657.9266846307177
680,658.0055605767841
681,658.0916866236679
682,658.182752752663
683,658.2751117969717
684,658.3645016520289
685,658.4468797612849
686,658.5192073651154
687,658.5800312834582
688,658.6297699963087
689,658.6706793763416
690,658.7065212068086
691,658.7419907023718
692,658.7819969112528
693,658.8309237047625
694,658.8919977691896
695,658.966843734506
696,659.0552435266022
697,659.1550736157806
698,659.2623853891802
699,659.3716143563956
700,659.4759334416578
701,659.5677730644226
702,659.6394945498138
703,659.6841451520423
704,659.696192855991
705,659.6721560439241
706,659.6110788902504
707,659.5148270790319
708,659.3881835500746
709,659.2387184971534
710,659.0764045827358
711,658.9129593830567
712,658.7609260254783
713,658.6325458741028
714,658.5385288267177
715,658.4868751583285
716,658.4819225507892
717,658.523764626669
718,658.6081258451532
719,658.7267116110331
720,658.8679948799313
721,659.0183471577462
722,659.163374619699
723,659.289291818153
724,659.3841674258844
725,659.4389141848121
726,659.4479614433428
727,659.409611599387
728,659.3261028692124
729,659.2033779739589
730,659.0505353370488
731,658.8789602946724
732,658.7011950757545
733,658.5296653969629
734,658.3754108860892
735,658.2469762824271
736,658.1496207773338
737,658.0849754342024
738,658.0512038136978
739,658.0436137941392
740,658.0555704488609
741,658.079509615251
742,658.107868865548
743,658.1338230739208
744,658.1517886657101
745,658.1577030763434
746,658.1490979527105
747,658.124996696712
748,658.0856897926016
749,658.0324558027031
750,657.9672815192633
751,657.8925984465336
752,657.8110278239832
753,657.7251379479171
754,657.6372500515383
755,657.5493396466608
756,657.4630476938156
757,657.3797641683207
758,657.3007152634005
759,657.2269906152223
760,657.1594787888076
761,657.0987229230399
762,657.0447489073456
763,656.9969362088154
764,656.9539843261177
765,656.9139889678129
766,656.874614366669
767,656.8333514849945
768,656.7878657608121
769,656.7364226550475
770,656.6783290890332
771,656.6142857360759
772,656.5465493629708
773,656.4788507227768
774,656.4160659275362
775,656.3636759623001
776,656.3270763686444
777,656.3108291187777
778,656.3179776662547
779,656.3495542239269
780,656.4043769503129
781,656.4791671712595
782,656.5689403089089
783,656.667573496651
784,656.7684483961617
785,656.8650992014725
786,656.9518273374092
787,657.0242487809277
788,657.0797261617471
789,657.1176341247092
790,657.1394237099693
791,657.1484745102305
792,657.1497351309016
793,657.1491569204028
794,657.15294270712
795,657.1666730554364
796,657.1944248978471
797,657.2380304453187
798,657.2966135986845
799,657.3664909987375
800,657.4414612015189
801,657.5134491976095
802,657.5734307547043
803,657.6125304187909
804,657.6231633170008
805,657.6000716995687
806,657.5411027657914
807,657.4475990371237
808,657.3243267055483
809,657.1789421477808
810,657.0210839927396
811,656.8612577382318
812,656.7097169303065
813,656.5755194256393
814,656.465864418162
815,656.3857292251917
816,656.3377559495697
817,656.3223092724123
818,656.3376400438012
819,656.3801240402405
820,656.4445764889308
821,656.5246614102562
822,656.6134197116638
823,656.7039240929373
824,656.7900260861842
825,656.8671038754243
826,656.9326795774583
827,656.9867777552319
828,657.0319416943662
829,657.0728832800849
830,657.1157950997673
831,657.1674034714001
832,657.2338961420108
833,657.3199039367489
834,657.4277201298064
835,657.5568867434662
836,657.7041851040518
837,657.8639886951868
838,658.0288999193608
839,658.1905827202185
840,658.3406896430791
841,658.4717628085473
842,658.5779852457738
843,658.6556860149811
844,658.7035549728291
845,658.7225837498949
846,658.7157927745819
847,658.6878123961795
848,658.6443726996156
849,658.5917510178215
850,658.5362326143199
851,658.4836365831194
852,658.4389374463807
853,658.4059888443774
854,658.3873407780509
855,658.3841337434833
856,658.3960510588996
857,658.4213181139851
858,658.4567500407511
859,658.4978598800177
860,658.5390491056233
861,658.5739129987497
862,658.5956912035784
863,658.5978620828913
864,658.5748246228513
865,658.5225637004372
866,658.4391817477971
867,658.3252089825548
868,658.183660249199
869,658.0198611843432
870,657.8410940694235
871,657.6561091588615
872,657.4745309608518
873,657.3061860652143
874,657.16039180438
875,657.0452543134264
876,656.96702161955
877,656.9295366756296
878,656.9338469342272
879,656.9780358904894
880,657.0573284083733
881,657.1644875280293
882,657.2904814680466
883,657.4253642111053
884,657.5592808900886
885,657.683482388314
886,657.7912191697983
887,657.8783849328781
888,657.9437957528827
889,657.9890308747716
890,658.0178432886303
891,658.0352580599839
892,658.0465617141809
893,658.0564017089112
894,658.0681643220141
895,658.0837157019943
896,658.1035010685276
897,658.1269152801144
898,658.1527989439579
899,658.1798970579392
900,658.2071537303684
901,658.2337933065719
902,658.2592185926959
903,658.2828092997189
904,658.3037198014505
905,658.3207617606612
906,658.332424510217
907,658.3370417854426
908,658.333065328744
909,658.3193714253728
910,658.2955229900823
911,658.2619311087287
912,658.2198826117783
913,658.1714178302932
914,658.1190694682753
915,658.06551282932
916,658.013210035811
917,657.9641368677086
918,657.9196565983781
