frame_number,force
0,656.7521400000658
1,657.2262506290939
2,657.6790554423794
3,658.0910406649677
4,658.4459994473475
5,658.7320782801652
6,658.9422854376379
7,659.074499267771
8,659.1310847298037
9,659.1182513110695
10,659.0452617018741
11,658.9235508979044
12,658.7657801470101
13,658.5848509616712
14,658.3929325212607
15,658.2005885420768
16,658.0161053350388
17,657.8451112945869
18,657.6905407074509
19,657.5529336728505
20,657.4309898339575
21,657.3222383666562
22,657.223681376548
23,657.1323093244162
24,657.0454431521586
25,656.9609010844406
26,656.8770119598997
27,656.7925082464286
28,656.7063425033997
29,656.6174875485074
30,656.5247919314671
31,656.4269464312215
32,656.3225694633186
33,656.2103677286544
34,656.0893104995856
35,655.9587789088354
36,655.8186858999829
37,655.6695773759832
38,655.5127201224876
39,655.3501734823392
40,655.1848322123885
41,655.0204089387825
42,654.8613017338461
43,654.712291733842
44,654.5780595516761
45,654.4625851595687
46,654.3685571953671
47,654.2969236173435
48,654.2466703325438
49,654.2148554161167
50,654.196881658249
51,654.1869619029122
52,654.1787159470357
53,654.1658308999271
54,654.1427091143297
55,654.1050175264696
56,654.0500568183236
57,653.9769017573726
58,653.8863158612656
59,653.7804939420237
60,653.6627189392354
61,653.5370215648184
62,653.407896475857
63,653.2800718335368
64,653.1582830351375
65,653.0469930426874
66,652.9500351288802
67,652.8702113540539
68,652.8089330432917
69,652.7660124836721
70,652.7396946416703
71,652.7269547495931
72,652.7240041978786
73,652.7268860376857
74,652.7320353150311
75,652.7367205072885
76,652.7393333075465
77,652.7395254033097
78,652.7382015196573
79,652.7373844824866
80,652.7399812793907
81,652.7494944760862
82,652.7697282309928
83,652.8045216867927
84,652.8575072618029
85,652.9318619544587
86,653.0300246617227
87,653.1533899246077
88,653.3020263796984
89,653.4744803110164
90,653.6677121730396
91,653.8771902130665
92,654.0971364166676
93,654.320891078111
94,654.5413503987953
95,654.7514478622827
96,654.9446737935716
97,655.1156238573813
98,655.2605329006267
99,655.3777167701843
100,655.4678389531144
101,655.5339423619262
102,655.5812261007911
103,655.6165905453342
104,655.6480121267928
105,655.6838332400866
106,655.7320592979203
107,655.7997466950605
108,655.8925434024115
109,656.014407520982
110,656.1674889517321
111,656.352138525075
112,656.5670193462729
113,656.8093196885781
114,657.0750775491523
115,657.3596126497857
116,657.6580306329081
117,657.9657347652249
118,658.2788716250271
119,658.5946548894465
120,658.9115436803735
121,659.2292841501346
122,659.5488456983048
123,659.8722871693461
124,660.2025696750159
125,660.5433052176473
126,660.8984191903453
127,661.2717223441233
128,661.666418783436
129,662.0845956060308
130,662.5267445996533
131,662.991376490006
132,663.4748071895751
133,663.9712000488789
134,664.472919474261
135,664.9711940095299
136,665.4570180891302
137,665.92215970354
138,666.3601023093167
139,666.7667452504816
140,667.1407283452521
141,667.4833360428885
142,667.7980491061501
143,668.0898951891022
144,668.3647631613624
145,668.6287904825593
146,668.8878499834075
147,669.1471093114271
148,669.4106435883997
149,669.6811262144977
150,669.9596521561924
151,670.24573249179
152,670.5374512134414
153,670.8317309741058
154,671.1246431457583
155,671.4117251805189
156,671.6883112700176
157,671.9499002045737
158,672.1925548853833
159,672.4132740320467
160,672.6102487094545
161,672.7829431971838
162,672.9320022918669
163,673.0590405487228
164,673.1663820821947
165,673.2567950964069
166,673.3332330596178
167,673.3985840573798
168,673.4554452839226
169,673.5059590123881
170,673.5517450041623
171,673.5939368737218
172,673.6332936951673
173,673.670336144418
174,673.7054587587801
175,673.738990667721
176,673.7712045919105
177,673.8022975501278
178,673.8323771376353
179,673.8614777615386
180,673.8896053577266
181,673.9167820952074
182,673.943052559096
183,673.9684294888317
184,673.9927919800883
185,674.0157789273261
186,674.036727810452
187,674.0546955463734
188,674.0685745030684
189,674.0772880862334
190,674.0800205770735
191,674.0764177193457
192,674.0667026522849
193,674.0516836994364
194,674.0326622101469
195,674.0112589627774
196,673.9891729421173
197,673.9678901919672
198,673.9483837007633
199,673.9308743215961
200,673.914729962567
201,673.8985474266262
202,673.8804041551964
203,673.8582246148997
204,673.8301970380661
205,673.7951850758052
206,673.7530798718425
207,673.705022655315
208,673.6534185479453
209,673.6016922883254
210,673.5538077857864
211,673.513649957007
212,673.4844116489388
213,673.4681261502468
214,673.4654447108976
215,673.4756979868422
216,673.4972169888189
217,673.5278329789231
218,673.5654380127176
219,673.6084790555409
220,673.6562799801009
221,673.7091307578656
222,673.7681411782778
223,673.8349101448588
224,673.9110929007497
225,673.9979520561334
226,674.0959643202544
227,674.2045393664006
228,674.3218978540864
229,674.4451453852496
230,674.5705571034014
231,674.6940510366587
232,674.8117827811218
233,674.9207525135878
234,675.0192962532308
235,675.107348270567
236,675.1864057377976
237,675.25918786687
238,675.3290467884473
239,675.399240803942
240,675.4722113905508
241,675.5490113757224
242,675.6290112681363
243,675.7099599558343
244,675.7883974133807
245,675.8603265228352
246,675.9219791495846
247,675.9704923685819
248,676.0043564724045
249,676.023581380422
250,676.0296054033145
251,676.0250103601547
252,676.0131145324049
253,675.9975064810302
254,675.9815658744052
255,675.9679992122318
256,675.9584110304273
257,675.9529394709998
258,675.9500008302776
259,675.9461977533501
260,675.9364386594041
261,675.914287930364
262,675.8725248220322
263,675.8038481898095
264,675.7016377072117
265,675.560677597417
266,675.3777622997167
267,675.152122599193
268,674.8856258565784
269,674.5827178318011
270,674.2500967545676
271,673.8961469039041
272,673.5302001440103
273,673.1617232914086
274,672.799535101169
275,672.4511412738497
276,672.1222497340217
277,671.8164969167268
278,671.5353797008688
279,671.2783554321177
280,671.0430621757138
281,670.8256312527326
282,670.621092779505
283,670.423876287321
284,670.2283747635896
285,670.0295026098576
286,669.8231656701342
287,669.6065735077133
288,669.3783499082571
289,669.1384410136392
290,668.887879532699
291,668.6285069596634
292,668.3627503126899
293,668.0935013839916
294,667.8240907076065
295,667.5583094022852
296,667.3004102282426
297,667.0550136760214
298,666.8268651892057
299,666.6204401912474
300,666.439455049613
301,666.2863809794434
302,666.1620584984665
303,666.0654841388563
304,665.9938051803603
305,665.942517318486
306,665.9058176282671
307,665.8770362974686
308,665.8490756609099
309,665.8148230633346
310,665.767544794578
311,665.7012807475642
312,665.6112405243075
313,665.4941730636032
314,665.3486660552923
315,665.1753339013397
316,664.9768636186247
317,664.7578972836656
318,664.5247387229165
319,664.28488939168
320,664.0464496609958
321,663.8174595701532
322,663.605274224772
323,663.4160549505273
324,663.2544163760462
325,663.1232299112207
326,663.0235670770628
327,662.9547680821083
328,662.9146199248571
329,662.89961269983
330,662.9052273397215
331,662.926213478376
332,662.9568434592387
333,662.9911595147338
334,663.0232442830592
335,663.0475276999582
336,663.0591037102417
337,663.053998349977
338,663.0293355209288
339,662.9833849595084
340,662.9155127993286
341,662.8260572152818
342,662.7161292939785
343,662.5873326828381
344,662.4414233534987
345,662.2799656931176
346,662.1040494910466
347,661.914115166275
348,661.7099129204748
349,661.490604733887
350,661.255002500897
351,661.0019181990247
352,660.7305838435741
353,660.441081669894
354,660.1347113077718
355,659.8142195664818
356,659.4838407494607
357,659.1491368835699
358,658.8166647198966
359,658.4935112545062
360,658.1867360581252
361,657.9027552668756
362,657.6467125047475
363,657.421903227362
364,657.2293334753747
365,657.0674870160843
366,656.9323454034488
367,656.8176615898226
368,656.7154424934356
369,656.6165684425782
370,656.5114799224116
371,656.390882026922
372,656.2464295884976
373,656.0713565125137
374,655.8610157794359
375,655.6133027594077
376,655.3289286649082
377,655.011493981712
378,654.6673075656524
379,654.3049225993534
380,653.9344085220765
381,653.5664319494263
382,653.2112675445273
383,652.8778888934099
384,652.5732813856423
385,652.3020653907206
386,652.0664359461367
387,651.8663490351538
388,651.6998450247576
389,651.5634092198859
390,651.4523103724036
391,651.3608931391155
392,651.2828135279694
393,651.2112205603596
394,651.1389230966117
395,651.058615356955
396,650.9632317156493
397,650.8464570429811
398,650.7033550598795
399,650.5310155162651
400,650.3290844294419
401,650.1000511469517
402,649.8492155264547
403,649.5843170474471
404,649.3148552487273
405,649.0511696242999
406,648.8033829816958
407,648.5803457159072
408,648.3887384984265
409,648.2324743258775
410,648.1124785143065
411,648.0268417796633
412,647.9712729159999
413,647.9397416985967
414,647.9251975343395
415,647.9202629111763
416,647.917821867304
417,647.9114506738721
418,647.8956696419704
419,647.8660248375912
420,647.819036284996
421,647.752078184675
422,647.6632729207139
423,647.5514640508277
424,647.4162898921835
425,647.2583356777903
426,647.0793139273461
427,646.8822068888132
428,646.6712999569321
429,646.4520471866458
430,646.2307436546109
431,646.01402987333
432,645.8083059807723
433,645.6191643352512
434,645.4509421431418
435,645.3064628784826
436,645.1870034210264
437,645.0924962085212
438,645.021930947925
439,644.9738580764941
440,644.9468542161075
441,644.93982138125
442,644.9520483794145
443,644.9830357239999
444,645.0321535470415
445,645.098246468196
446,645.1793003036421
447,645.2722465243243
448,645.3729345609286
449,645.4762780627668
450,645.5765742495687
451,645.6679800393351
452,645.7450971363388
453,645.8035918334774
454,645.840766736354
455,645.8559962374289
456,645.8509294319422
457,645.829377173
458,645.7968524420253
459,645.759809194093
460,645.7246927973213
461,645.6969559988444
462,645.6802062342709
463,645.6756389013882
464,645.681877499059
465,645.6952767032402
466,645.7106473961886
467,645.7222571377007
468,645.7248869136984
469,645.7147187849164
470,645.6898909661131
471,645.6506537928337
472,645.5991514824821
473,645.5389219420802
474,645.4742501466043
475,645.4095249000421
476,645.3487211210092
477,645.2950642098972
478,645.2508645487529
479,645.2174785243058
480,645.1953624177852
481,645.1842041708916
482,645.1831138887466
483,645.1908286706405
484,645.2058699130364
485,645.2266074947786
486,645.2512299328355
487,645.2776597478828
488,645.3034651195688
489,645.3258108199063
490,645.3414830515266
491,645.3470145699832
492,645.3389137573611
493,645.3139650773845
494,645.2695442264067
495,645.2038987238946
496,645.1163682533077
497,645.007527647681
498,644.8792232158443
499,644.7344640520893
500,644.5771460716832
501,644.4116261478006
502,644.2422071054699
503,644.0726208634545
504,643.9055987749559
505,643.7425999196382
506,643.5837374081173
507,643.4279065016292
508,643.2730871268844
509,643.1167786076571
510,642.9565226072991
511,642.790459491673
512,642.6178317759378
513,642.4393208749277
514,642.257120707465
515,642.0747223472611
516,641.896471834086
517,641.7270225365437
518,641.5708100893354
519,641.4316345125653
520,641.3123693482268
521,641.2147747215887
522,641.1393891636632
523,641.0854895206135
524,641.0511106231514
525,641.0331124819255
526,641.0272913097227
527,641.0285447057331
528,641.0311021900274
529,641.0288240144033
530,641.0155669646178
531,640.9856078863886
532,640.9340934177561
533,640.857463982393
534,640.753803427366
535,640.6230858828565
536,640.4673045419166
537,640.2904683102167
538,640.098456212464
539,639.8987300759688
540,639.6999152592397
541,639.5112715550483
542,639.3421004489909
543,639.2011547711277
544,639.0961107935981
545,639.0331400996241
546,639.0166003007395
547,639.0488498579055
548,639.1301764097642
549,639.2588191062455
550,639.431074830192
551,639.6415008391622
552,639.8832416631708
553,640.1484953081733
554,640.4290909369288
555,640.7171015052957
556,641.0053956110015
557,641.2880570981865
558,641.5606456672023
559,641.82030348604
560,642.065723331005
561,642.2969969646388
562,642.5153692541387
563,642.7229322672881
564,642.9222960614358
565,643.1162650803335
566,643.3075383957621
567,643.4984496857568
568,643.6907687509981
569,643.8855897499039
570,644.0833238058481
571,644.2837930936289
572,644.4863935969669
573,644.6902701130207
574,644.8944495714426
575,645.0979057067794
576,645.2995561729607
577,645.4982086625419
578,645.6924813956514
579,645.8807291596728
580,646.0610056456194
581,646.2310896504131
582,646.3886018588938
583,646.5312353685483
584,646.6571080334107
585,646.7652122135765
586,646.8558877210654
587,646.9311948829616
588,646.9950517971339
589,647.053044771942
590,647.1119085245016
591,647.178760706637
592,647.2602232410588
593,647.3615605469583
594,647.4859383533006
595,647.6338892939198
596,647.8030646356804
597,647.9883292287537
598,648.18220657256
599,648.3756231230136
600,648.5588595404771
601,648.7225946471947
602,648.8589217559824
603,648.9622276966721
604,649.0298475409492
605,649.0624309796433
606,649.0639745235401
607,649.0414951822095
608,649.0043595646692
609,648.9633399949302
610,648.9295251409901
611,648.9132371670472
612,648.9230929891897
613,648.9653083493787
614,649.043293201815
615,649.1575350923291
616,649.3057296290572
617,649.4831065788901
618,649.6829134222687
619,649.897035717802
620,650.1167303633342
621,650.3334188442775
622,650.5394605411541
623,650.7288270818062
624,650.8976136686723
625,651.0443229960309
626,651.1698494487065
627,651.2771151433179
628,651.3703805483254
629,651.4543412953778
630,651.5331897406242
631,651.6098426073448
632,651.6855016220875
633,651.7596213601705
634,651.8302420147445
635,651.8945616260016
636,651.9496009271616
637,651.9928364257659
638,652.0227122783897
639,652.0389752035633
640,652.0428100396464
641,652.0367831492385
642,652.0246188753625
643,652.0108432246257
644,652.0003366651204
645,651.9978442067892
646,652.0074943295563
647,652.0323798504126
648,652.074248654146
649,652.133336977726
650,652.2083611837822
651,652.2966732454817
652,652.3945738290764
653,652.4977545046274
654,652.6018090080781
655,652.7027275993408
656,652.7972865576712
657,652.8832752047787
658,652.9595550331281
659,653.0259946580435
660,653.0833489993266
661,653.133145665608
662,653.1776126495097
663,653.2196400312731
664,653.2627271115985
665,653.3108414035978
666,653.3681239978782
667,653.4384211937257
668,653.5246878766113
669,653.6283693667798
670,653.7489082736907
671,653.8835253820764
672,654.0273755254491
673,654.174091200959
674,654.3166332414597
675,654.4483027108438
676,654.563745095466
677,654.6597896921684
678,654.7359984961207
679,654.7948450999871
680,654.8415081181499
681,654.8833331924601
682,654.9290653583619
683,654.9879648448242
684,655.0689037320032
685,655.179515300385
686,655.3254449731779
687,655.5097436924492
688,655.7324587568224
689,655.9904984330057
690,656.2778413325568
691,656.5861115869715
692,656.9054625819116
693,657.2256380941044
694,657.5370375791524
695,657.8316176665976
696,658.1035134740507
697,658.3493388284343
698,658.568189760039
699,658.7614094111599
700,658.9321815477552
701,659.0850221867374
702,659.2252375686437
703,659.3584026739018
704,659.4898886384365
705,659.6244455143701
706,659.765841776605
707,659.9165727208372
708,660.0776661489656
709,660.2486212510973
710,660.4275042281498
711,660.6111968139656
712,660.7957709292792
713,660.9769574496256
714,661.1506817970878
715,661.3136335430063
716,661.4638113284755
717,661.6009516465745
718,661.726734702642
719,661.8446761675993
720,661.9596610929706
721,662.0771526801251
722,662.2022017460009
723,662.3384601247795
724,662.4874211026183
725,662.648054982536
726,662.8169035177017
727,662.9885866612807
728,663.1565880224356
729,663.3141377253507
730,663.4550168593427
731,663.574166823624
732,663.6680700961386
733,663.7349276353028
734,663.7746667588127
735,663.7887952247457
736,663.7801127878517
737,663.752311610665
738,663.709521057577
739,663.655861334452
740,663.5950651730628
741,663.5302145566052
742,663.4636165760375
743,663.3968048028325
744,663.3306143489933
745,663.2652651388054
746,663.2004092793361
747,663.1351405088163
748,663.0679998983056
749,662.997020284009
750,662.9198299908733
751,662.8338075642523
752,662.7362705094969
753,662.6246920242958
754,662.496947218708
755,662.351581152984
756,662.1880740304432
757,662.0070685409131
758,661.8105248764903
759,661.6017740985136
760,661.3854443529069
761,661.1672381963606
762,660.9535485628307
763,660.7509222859318
764,660.5654159697928
765,660.4019276724348
766,660.2636095722625
767,660.1514621992752
768,660.06418125279
769,659.9982776053108
770,659.9484367623296
771,659.9080552436336
772,659.8698963675675
773,659.8268196315964
774,659.7725315603337
775,659.7022875407756
776,659.6134608433553
777,659.5058958716488
778,659.3819829900978
779,659.2464309767554
780,659.1057581233234
781,658.9675640392832
782,658.8396823912989
783,658.7293472045377
784,658.6425109154416
785,658.583410924455
786,658.5544048996722
787,658.5560260555858
788,658.5871853877305
789,658.6454687450323
790,658.7275080831879
791,658.8294125839259
792,658.9472231192955
793,659.0773280301944
794,659.2167720194715
795,659.3634080829402
796,659.5158777096882
797,659.6734420069037
798,659.835711762109
799,660.0023346795828
800,660.1726954949528
801,660.3456726231617
802,660.5194801339863
803,660.6916097651559
804,660.8588753183806
805,661.0175584050709
806,661.1636613966226
807,661.2932730879863
808,661.403027755513
809,661.4905941883255
810,661.5550933354441
811,661.5973377547894
812,661.6198173054206
813,661.6264044727044
814,661.6218028814211
815,661.6108132512946
816,661.5975408575644
817,661.5846986645987
818,661.5731441731738
819,661.5617220376017
820,661.5474021172566
821,661.5256476462542
822,661.4909390394138
823,661.4373997282635
824,661.3594869143708
825,661.2526969461428
826,661.1141986178545
827,660.9432815813934
828,660.7415233104729
829,660.5126399185381
830,660.2620647134631
831,659.9963566954498
832,659.7225594747455
833,659.447610303599
834,659.1778556101787
835,658.9186916277833
836,658.6743371393367
837,658.4477496166708
838,658.2406864823838
839,658.053881327935
840,657.8872730724111
841,657.7402144815484
842,657.6115943108393
843,657.4998316402352
844,657.4027474498517
845,657.3173822687959
846,657.2398826220272
847,657.1655873219197
848,657.0893868771789
849,657.006325398397
850,656.9123241614311
851,656.8048762762919
852,656.6835820886012
853,656.5504281287384
854,656.4097467033008
855,656.2678361378152
856,656.1322719657261
857,656.0109892004326
858,655.9112605770531
859,655.838725257905
860,655.796618744633
861,655.7853093125602
862,655.8021754966455
863,655.8417942382638
864,655.8963738124522
865,655.956363778621
866,656.0111937432226
867,656.0501132152388
868,656.0631096782761
869,656.0418691935399
870,655.9807199176653
871,655.8774677614894
872,655.7340032879848
873,655.5565488247087
874,655.3554393891453
875,655.144388880062
876,654.9392730229536
877,654.7565502857916
878,654.6115255828641
879,654.5167155061282
880,654.4805722492018
881,654.5067539021925
882,654.5940071009159
883,654.7365998034571
884,654.925159296096
885,655.1477538652598
886,655.3910844040618
887,655.6416877780672
888,655.8870718760879
889,656.1166988262896
890,656.3227241576928
891,656.500409114372
892,656.6481608951923
893,656.7672094696162
894,656.860977192339
895,656.9342271938683
896,656.9920986392133
897,657.0391647155135
898,657.0786725831739
899,657.1121141741608
900,657.1392152260876
901,657.1583319432873
902,657.167146171145
903,657.1634837854266
904,657.1460638279608
905,657.1150167030771
906,657.0720703597862
907,657.0203715408633
908,656.9639773030689
909,656.9071202403649
910,656.8534048793326
911,656.8051096038894
912,656.7627399925436
913,656.7249163761295
914,656.688601740837
915,656.6496095896217
916,656.6032902049554
917,656.545276396317
