frame_number,force
0,692.2934428310184
1,692.2682766380731
2,692.2450739168966
3,692.2242394294726
4,692.2061426523984
5,692.1911041968993
6,692.1793830646224
7,692.1711655834571
8,692.1665568537982
9,692.165575374828
10,692.1681512089999
11,692.174127713553
12,692.183266664752
13,692.1952565558461
14,692.2097238710687
15,692.2262470849115
16,692.2443729361199
17,692.2636342416951
18,692.2835682823384
19,692.3037346891007
20,692.3237317828331
21,692.3432104328936
22,692.3618847050092
23,692.3795388436479
24,692.3960304101006
25,692.4112895905503
26,692.4253147979276
27,692.438164810954
28,692.4499478980412
29,692.4608086210237
30,692.4709131926287
31,692.4804343069463
32,692.489536306053
33,692.498361467385
34,692.5070181264134
35,692.515571248513
36,692.5240359001484
37,692.5323738585286
38,692.5404933744469
39,692.5482519100105
40,692.5554615595286
41,692.5618968178413
42,692.5673043097447
43,692.5714139889404
44,692.5739512011504
45,692.5746489785665
46,692.5732600241621
47,692.5695679591789
48,692.5633974242131
49,692.5546225761948
50,692.5431735699423
51,692.5290408200793
52,692.512277098252
53,692.4929976779147
54,692.4713787176041
55,692.447653919359
56,692.422109359173
57,692.3950763873636
58,692.3669226381159
59,692.3380413784582
60,692.3088395816985
61,692.2797252040879
62,692.2510942129359
63,692.2233180045672
64,692.1967319479811
65,692.1716258085132
66,692.1482366664249
67,692.1267446793622
68,692.107271753058
69,692.0898829451553
70,692.0745902384906
71,692.0613581806864
72,692.0501107747267
73,692.0407388945539
74,692.0331074259063
75,692.0270613625253
76,692.0224302329265
77,692.019030450152
78,692.0166654278123
79,692.0151235770891
80,692.0141745855271
81,692.0135646547599
82,692.0130115759307
83,692.012200571998
84,692.0107817313806
85,692.0083696829585
86,692.0045459875087
87,691.9988645319326
88,691.990859975795
89,691.9800590270116
90,691.9659940788528
91,691.9482186033645
92,691.9263236863299
93,691.8999551292948
94,691.8688305463317
95,691.8327558309155
96,691.7916402827725
97,691.7455095766345
98,691.694515659169
99,691.6389426591359
100,691.5792080500245
101,691.5158585815275
102,691.4495608160972
103,691.3810864428128
104,691.3112929104415
105,691.2411002930206
106,691.1714655899048
107,691.1033558207542
108,691.0377213129799
109,690.9754704959071
110,690.9174473021966
111,690.8644119610868
112,690.8170256227361
113,690.7758389663584
114,690.7412847751515
115,690.7136743824091
116,690.6931978078984
117,690.6799272411965
118,690.6738233196932
119,690.6747434834763
120,690.6824516219087
121,690.6966282435411
122,690.716880468443
123,690.7427512667128
124,690.7737275925878
125,690.8092473915605
126,690.8487057937334
127,690.8914610200719
128,690.9368405422794
129,690.9841478591408
130,691.0326699842359
131,691.0816855418553
132,691.1304733274056
133,691.178321245644
134,691.2245355858009
135,691.2684505768974
136,691.3094380815694
137,691.3469171388568
138,691.3803629076918
139,691.4093144933905
140,691.4333812322272
141,691.4522472275145
142,691.465674152785
143,691.4735024900333
144,691.4756514852115
145,691.4721182007399
146,691.4629760636329
147,691.4483732126624
148,691.4285307926667
149,691.4037411702087
150,691.374365857133
151,691.3408327914664
152,691.3036326359291
153,691.2633139108814
154,691.2204769718227
155,691.1757669745024
156,691.1298660275727
157,691.083484744796
158,691.0373534005151
159,690.9922128690902
160,690.9488054845323
161,690.9078658778557
162,690.8701117400382
163,690.8362343562825
164,690.8068887182908
165,690.7826830769175
166,690.7641679375853
167,690.7518246896847
168,690.7460542436116
169,690.7471661614699
170,690.7553688002317
171,690.770761008046
172,690.793325974176
173,690.822927868352
174,690.8593118018548
175,690.9021073736827
176,690.9508357305568
177,691.0049197815706
178,691.0636969915616
179,691.1264340253397
180,691.1923424735486
181,691.2605950031858
182,691.3303414840035
183,691.4007248244478
184,691.4708963485317
185,691.5400305898861
186,691.6073394116338
187,691.6720853917486
188,691.7335944322449
189,691.7912675049186
190,691.8445912916178
191,691.893147288508
192,691.9366188680066
193,691.9747958530799
194,692.0075762432303
195,692.0349647861375
196,692.057068197884
197,692.0740870729758
198,692.0863048382619
199,692.0940743701243
200,692.0978030389766
201,692.097936972829
202,692.0949452803703
203,692.0893048858844
204,692.081486542901
205,692.0719425325292
206,692.0610965030412
207,692.0493358306288
208,692.0370067454045
209,692.0244122637337
210,692.0118127027064
211,691.9994282600509
212,691.987442922163
213,691.9760089300845
214,691.9652512211823
215,691.9552715894413
216,691.9461526188999
217,691.9379616022665
218,691.9307545962619
219,691.9245805381538
220,691.9194851075788
221,691.9155139159786
222,691.9127146666681
223,691.9111380558411
224,691.9108372913103
225,691.9118661803549
226,691.9142758092466
227,691.9181099224795
228,691.9233992030538
229,691.9301547504982
230,691.9383611618673
231,691.9479697472873
232,691.9588925402398
233,691.9709978664418
234,691.9841082596434
235,691.9980013809902
236,692.0124142842599
237,692.0270509486428
238,692.0415926027479
239,692.0557100810294
240,692.0690773008712
241,692.0813848854233
242,692.0923529590945
243,692.1017422279912
244,692.1093626403983
245,692.1150791716655
246,692.1188145394816
247,692.1205488883514
248,692.1203166659091
249,692.1182010333562
250,692.1143261971722
251,692.1088480510963
252,692.1019435579677
253,692.0937994292275
254,692.0846008178466
255,692.0745208180227
256,692.0637115098754
257,692.0522971334879
258,692.0403697905538
259,692.0279878850776
260,692.0151773017026
261,692.0019350596285
262,691.9882349225311
263,691.9740342859488
264,691.9592816519748
265,691.9439240904109
266,691.9279141764234
267,691.9112159345201
268,691.8938093590259
269,691.8756932134787
270,691.8568860508876
271,691.8374256647942
272,691.8173673952439
273,691.7967818436655
274,691.7757525701533
275,691.7543742240657
276,691.732751339389
277,691.7109978252363
278,691.6892370593615
279,691.6676024144097
280,691.6462379754093
281,691.6252991678654
282,691.6049530453936
283,691.5853780535776
284,691.5667631294449
285,691.5493060168004
286,691.53321073856
287,691.5186842983529
288,691.5059328537604
289,691.4951577345186
290,691.4865516627369
291,691.4802953237659
292,691.4765541491012
293,691.4754749939034
294,691.4771824119446
295,691.4817744028007
296,691.4893177293714
297,691.4998431065471
298,691.5133407009499
299,691.5297564129669
300,691.5489893334933
301,691.5708906474647
302,691.5952641431503
303,691.6218683486277
304,691.6504201270949
305,691.6805993815269
306,691.7120544472314
307,691.7444078202386
308,691.7772620201645
309,691.8102055328015
310,691.8428188724172
311,691.874680851117
312,691.9053751601707
313,691.9344973383576
314,691.9616621022508
315,691.9865108743736
316,692.008719228429
317,692.0280039063018
318,692.0441290511943
319,692.0569113432184
320,692.0662238020407
321,692.0719981084652
322,692.074225381708
323,692.0729554349526
324,692.0682946177842
325,692.0604024289431
326,692.0494871241904
327,692.0358005355791
328,692.019632278843
329,692.0013035042559
330,691.981160382327
331,691.9595675987972
332,691.9369022002103
333,691.9135481058868
334,691.889891454897
335,691.8663167514187
336,691.8432036442027
337,691.8209242005776
338,691.7998406226933
339,691.7803033499022
340,691.7626493658317
341,691.7472003938149
342,691.7342606357042
343,691.7241138138315
344,691.7170194701914
345,691.7132086809015
346,691.712879460435
347,691.7161920986483
348,691.7232645347048
349,691.734167749848
350,691.7489211597432
351,691.7674881010367
352,691.7897716408772
353,691.8156110171008
354,691.8447790552773
355,691.8769809639716
356,691.9118549726127
357,691.9489752459915
358,691.9878573113091
359,692.0279659224873
360,692.0687249767232
361,692.1095288725141
362,692.1497546244134
363,692.1887741676524
364,692.2259665208957
365,692.260729662348
366,692.292492029633
367,692.3207235673763
368,692.3449463370458
369,692.3647448349021
370,692.379776188186
371,692.3897802419984
372,692.3945892790838
373,692.394136863004
374,692.3884651420042
375,692.3777298972027
376,692.3622026555782
377,692.342269334127
378,692.3184251147086
379,692.2912654740727
380,692.2614734433655
381,692.2298032982471
382,692.1970610843733
383,692.1640826688705
384,692.1317102710382
385,692.1007685603972
386,692.0720413864407
387,692.0462500521608
388,692.0240338300284
389,692.0059332153413
390,691.9923762551282
391,691.9836681842575
392,691.9799845193186
393,691.9813676710303
394,691.9877270477097
395,691.9988425915375
396,692.0143717287121
397,692.033859742749
398,692.0567534908379
399,692.0824181512601
400,692.1101563964856
401,692.139229151533
402,692.1688769978755
403,692.1983413272139
404,692.2268844988611
405,692.2538084447335
406,692.2784713125016
407,692.30030178861
408,692.3188107409254
409,692.3335998687083
410,692.3443672127443
411,692.3509096361847
412,692.3531226321511
413,692.350997936971
414,692.3446193989683
415,692.3341574203413
416,692.3198621147105
417,692.3020551743178
418,692.281120397134
419,692.2574929029664
420,692.2316472108981
421,692.2040845124976
422,692.1753196455833
423,692.1458684038064
424,692.1162358240449
425,692.0869059590538
426,692.0583334544759
427,692.0309370971405
428,692.0050953768025
429,691.9811439490798
430,691.9593747099792
431,691.9400360637685
432,691.9233339413149
433,691.9094331985906
434,691.8984591310431
435,691.890498904745
436,691.8856027207794
437,691.8837845551045
438,691.8850223831646
439,691.889257868841
440,691.8963955463394
441,691.9063015837986
442,691.9188023081747
443,691.9336827466002
444,691.9506854498136
445,691.9695098438823
446,691.989812409557
447,692.0112081583679
448,692.0332740718259
449,692.0555552340628
450,692.0775742157932
451,692.098843881139
452,692.1188832758546
453,692.1372356918349
454,692.1534874963899
455,692.1672860461016
456,692.1783551095506
457,692.186506636869
458,692.1916482033521
459,692.1937858290107
460,692.1930221454866
461,692.189550171487
462,692.1836433047068
463,692.1756424300485
464,692.1659411626839
465,692.1549702034902
466,692.1431816850804
467,692.1310342878917
468,692.1189797949623
469,692.1074516120345
470,692.0968556028785
471,692.0875633727192
472,692.0799078948828
473,692.0741811782835
474,692.0706335588079
475,692.0694741470176
476,692.070871947832
477,692.0749572032096
478,692.0818226345316
479,692.0915244659288
480,692.1040833134116
481,692.1194851237495
482,692.1376822885692
483,692.1585948946044
484,692.182111922438
485,692.2080921607584
486,692.2363646641638
487,692.2667287104084
488,692.2989533509847
489,692.332776736049
490,692.3679054462849
491,692.4040141748212
492,692.4407462811746
493,692.4777158530687
494,692.5145118428276
495,692.5507046004999
496,692.5858548059343
497,692.6195245273337
498,692.651289970715
499,692.6807554055192
500,692.7075676685434
501,692.7314304989752
502,692.7521177878691
503,692.7694847658772
504,692.7834762773143
505,692.7941315500661
506,692.8015851928592
507,692.806064492474
508,692.8078833829928
509,692.8074336206997
510,692.8051736856796
511,692.8016158106568
512,692.7973113900955
513,692.7928349020181
514,692.7887664570179
515,692.7856732277717
516,692.7840902470101
517,692.7845012806658
518,692.7873206417756
519,692.7928769028346
520,692.8013994577914
521,692.8130087727552
522,692.8277109978999
523,692.845397424863
524,692.8658490373127
525,692.8887461005594
526,692.9136824035928
527,692.940183448459
528,692.9677276146252
529,692.9957691454152
530,693.0237617118893
531,693.0511812615657
532,693.0775468206693
533,693.1024379385067
534,693.1255076625575
535,693.1464903865149
536,693.1652045494361
537,693.1815508123227
538,693.195506839984
539,693.2071200790745
540,693.2164999281014
541,693.2238104676884
542,693.2292644915669
543,693.2331190134717
544,693.2356718839177
545,693.2372588421077
546,693.2382503208216
547,693.2390474749535
548,693.240077041407
549,693.2417847306368
550,693.2446269612424
551,693.2490608832737
552,693.2555327595326
553,693.2644649094009
554,693.2762416089117
555,693.2911945891693
556,693.3095890547831
557,693.3316113523673
558,693.3573593921387
559,693.3868366018097
560,693.4199497021629
561,693.4565101359352
562,693.4962386726581
563,693.5387725749792
564,693.5836747374641
565,693.6304443731547
566,693.6785290578988
567,693.7273381317572
568,693.7762574761533
569,693.8246654718816
570,693.8719495835388
571,693.9175227264182
572,693.9608385145953
573,694.0014046414661
574,694.0387938661391
575,694.0726522452055
576,694.1027043282131
577,694.1287551016916
578,694.1506886083477
579,694.1684633673185
580,694.1821049018771
581,694.1916958483339
582,694.1973643386613
583,694.1992715890299
584,694.1975997515084
585,694.1925410167611
586,694.1842887420376
587,694.1730311137932
588,694.1589475954501
589,694.1422081725277
590,694.1229751611689
591,694.1014070631703
592,694.0776636833469
593,694.051911593733
594,694.024329103283
595,693.9951101202831
596,693.9644665521637
597,693.9326290660873
598,693.8998460947494
599,693.8663809448565
600,693.8325068479907
601,693.7984999128356
602,693.7646302270027
603,693.731151694432
604,693.6982914290286
605,693.6662396005486
606,693.6351405645516
607,693.6050859538992
608,693.5761102389941
609,693.5481891318534
610,693.5212411017951
611,693.495132153724
612,693.4696838835081
613,693.4446846461283
614,693.4199034179765
615,693.3951056223212
616,693.3700698809463
617,693.3446044219611
618,693.3185617832722
619,693.2918505581398
620,693.2644432108212
621,693.2363793611627
622,693.2077643504539
623,693.1787633644985
624,693.1495918597473
625,693.1205033722595
626,693.091775865724
627,693.0636976304961
628,693.0365535349465
629,693.0106122645082
630,692.9861150582964
631,692.9632663104993
632,692.9422262215394
633,692.9231054976118
634,692.9059619513899
635,692.8907987659084
636,692.8775641503229
637,692.8661521551766
638,692.856404528487
639,692.848113628665
640,692.8410264762041
641,692.8348499898651
642,692.8292573772802
643,692.8238956085743
644,692.818393891793
645,692.8123730375553
646,692.8054555223645
647,692.7972759522643
648,692.7874915184775
649,692.7757919562657
650,692.7619085028309
651,692.7456214146508
652,692.7267657313495
653,692.7052351142062
654,692.6809836757145
655,692.6540257247714
656,692.6244333543777
657,692.5923319100003
658,692.5578936193302
659,692.521329954014
660,692.4828835356456
661,692.4428205251916
662,692.4014243880408
663,692.3589916746665
664,692.3158300483179
665,692.2722583586853
666,692.2286082435149
667,692.1852265901927
668,692.1424781610397
669,692.1007477044191
670,692.0604408912145
671,692.0219834508503
672,691.9858180001402
673,691.9523982816477
674,691.9221807920677
675,691.8956140204571
676,691.8731257191544
677,691.8551088088302
678,691.8419066629228
679,691.8337985805956
680,691.8309862088946
681,691.8335815525446
682,691.8415971038713
683,691.8549385893521
684,691.8734008135717
685,691.8966669684571
686,691.9243115142804
687,691.9558064347327
688,691.9905304917166
689,692.0277811025201
690,692.0667885190697
691,692.1067319934151
692,692.1467575746922
693,692.1859971767758
694,692.2235886032312
695,692.2586962402395
696,692.290532037416
697,692.3183761781871
698,692.3415965593321
699,692.3596659602213
700,692.3721757094701
701,692.378844815888
702,692.3795238781996
703,692.3741935266025
704,692.3629576087757
705,692.3460317804402
706,692.3237285522067
707,692.2964401047851
708,692.2646202600195
709,692.2287668946739
710,692.1894058369845
711,692.1470769178452
712,692.1023224315902
713,692.055677921722
714,692.007665016669
715,691.9587859393324
716,691.9095192068578
717,691.8603159506469
718,691.8115963438597
719,691.7637458753082
720,691.7171115598617
721,691.6719984634799
722,691.6286670379353
723,691.5873317073068
724,691.5481609834699
725,691.5112791757158
726,691.4767695832411
727,691.4446789849812
728,691.4150232372746
729,691.3877937506104
730,691.3629644835335
731,691.3404989120711
732,691.3203563156029
733,691.302496746403
734,691.2868842114189
735,691.2734878174381
736,691.2622808610793
737,691.2532380842142
738,691.2463315698732
739,691.2415259838907
740,691.2387740004071
741,691.2380127312797
742,691.2391618075679
743,691.2421234705763
744,691.2467846873334
745,691.2530210086677
746,691.2607017081815
747,691.2696956727331
748,691.2798775180256
749,691.2911334444663
750,691.3033664099946
751,691.3165002653469
752,691.330482544422
753,691.3452855925741
754,691.3609056779019
755,691.377359770624
756,691.3946798628826
757,691.4129049884339
758,691.4320713986971
759,691.4522016148087
760,691.4732932593507
761,691.4953085861791
762,691.5181654430015
763,691.5417301236705
764,691.5658123343179
765,691.5901623782709
766,691.6144706564778
767,691.638369623466
768,691.6614383401462
769,691.6832096738331
770,691.7031800473115
771,691.720821479219
772,691.7355954957869
773,691.7469683690682
774,691.7544271332175
775,691.7574959457315
776,691.7557524612491
777,691.748843854576
778,691.7365019818187
779,691.718556993622
780,691.6949485882961
781,691.6657340692441
782,691.6310924927022
783,691.5913244510793
784,691.5468473576418
785,691.4981864121021
786,691.445961748125
787,691.3908726148738
788,691.3336797407095
789,691.2751871217303
790,691.2162243163276
791,691.1576299990845
792,691.100237174469
793,691.04486016017
794,690.9922832272334
795,690.9432506001507
796,690.8984573798612
797,690.8585408893898
798,690.8240719534854
799,690.7955457026113
800,690.7733716975655
801,690.7578635451711
802,690.7492285996076
803,690.7475586222697
804,690.7528223351962
805,690.7648607038964
806,690.7833855664834
807,690.8079819187417
808,690.8381138699663
809,690.873134114819
810,690.9122967187126
811,690.9547729705795
812,690.9996699245771
813,691.046051070201
814,691.0929584522137
815,691.1394355415314
816,691.1845501400204
817,691.2274165066596
818,691.2672157997691
819,691.3032139908328
820,691.3347766377445
821,691.3613801749382
822,691.3826195800217
823,691.3982124494263
824,691.4079997515868
825,691.411943828547
826,691.410124466802
827,691.4027339011767
828,691.390071385852
829,691.3725375435107
830,691.3506282502568
831,691.3249274816733
832,691.296098424574
833,691.2648722555545
834,691.2320342270993
835,691.1984069989073
836,691.1648314673555
837,691.1321456610094
838,691.1011625356085
839,691.0726476396745
840,691.0472975889677
841,691.0257201507441
842,691.0084166333256
843,690.9957672668138
844,690.9880202840776
845,690.985285353831
846,690.9875317966547
847,690.9945916432671
848,691.0061672072458
849,691.0218425937792
850,691.0410984865379
851,691.0633295763175
852,691.0878640374672
853,691.1139844734213
854,691.1409497329527
855,691.1680169745973
856,691.1944633658585
857,691.2196068542191
858,691.2428255091701
859,691.2635749611748
860,691.2814034316732
861,691.2959637990016
862,691.307022159624
863,691.3144624616971
864,691.3182869717871
865,691.3186125230789
866,691.315662661698
867,691.3097559876056
868,691.3012912121734
869,691.2907297096722
870,691.2785765746212
871,691.2653613660797
872,691.2516197624572
873,691.2378771838362
874,691.2246350565974
875,691.2123599451609
876,691.2014754577591
877,691.1923567129556
878,691.1853271359867
879,691.1806573295296
880,691.1785657027657
881,691.1792204499804
882,691.1827423486394
883,691.1892077523667
884,691.1986512022992
885,691.2110673258534
886,691.2264120322144
887,691.2446032811324
888,691.2655218274274
889,691.2890123558296
890,691.3148853261453
891,691.3429196445796
892,691.3728660553246
893,691.4044510416954
894,691.4373810505928
895,691.4713468933512
896,691.5060281407744
897,691.5410972384162
898,691.5762230143484
899,691.6110733423733
900,691.6453169822883
901,691.6786249241355
902,691.7106717466529
903,691.7411374996
904,691.7697104836312
905,691.7960910954502
906,691.8199966885311
907,691.8411672240164
908,691.8593713571361
909,691.8744124909807
910,691.8861342670673
911,691.894425052043
912,691.8992212333651
913,691.9005094209948
914,691.8983278363044
915,691.8927672162739
916,691.8839714638441
