frame_number,force
0,692.2934428313821
1,692.2682766384473
2,692.2450739172818
3,692.2242394298685
4,692.2061426528035
5,692.1911041973118
6,692.1793830650402
7,692.1711655838778
8,692.1665568542197
9,692.1655753752486
10,692.1681512094184
11,692.1741277139681
12,692.1832666651621
13,692.19525655625
14,692.2097238714654
15,692.2262470853002
16,692.2443729364999
17,692.2636342420655
18,692.2835682826986
19,692.3037346894503
20,692.3237317831713
21,692.3432104332198
22,692.3618847053228
23,692.3795388439487
24,692.3960304103887
25,692.4112895908258
26,692.4253147981914
27,692.4381648112068
28,692.4499478982835
29,692.460808621256
30,692.4709131928505
31,692.4804343071569
32,692.4895363062514
33,692.4983614675702
34,692.5070181265844
35,692.5155712486682
36,692.5240359002861
37,692.5323738586474
38,692.5404933745459
39,692.5482519100898
40,692.5554615595886
41,692.5618968178833
42,692.5673043097702
43,692.5714139889515
44,692.5739512011496
45,692.5746489785571
46,692.5732600241474
47,692.5695679591626
48,692.5633974241983
49,692.5546225761846
50,692.5431735699391
51,692.5290408200851
52,692.5122770982682
53,692.4929976779429
54,692.4713787176461
55,692.4476539194166
56,692.4221093592483
57,692.3950763874595
58,692.3669226382351
59,692.3380413786032
60,692.3088395818711
61,692.2797252042899
62,692.2510942131688
63,692.223318004832
64,692.1967319482777
65,692.1716258088409
66,692.1482366667817
67,692.1267446797461
68,692.1072717534661
69,692.0898829455843
70,692.074590238937
71,692.0613581811466
72,692.0501107751973
73,692.0407388950315
74,692.0331074263878
75,692.0270613630078
76,692.0224302334077
77,692.0190304506301
78,692.0166654282862
79,692.0151235775578
80,692.0141745859902
81,692.0135646552167
82,692.013011576381
83,692.012200572442
84,692.0107817318187
85,692.0083696833915
86,692.0045459879376
87,691.9988645323584
88,691.9908599762186
89,691.9800590274338
90,691.9659940792742
91,691.9482186037856
92,691.9263236867507
93,691.8999551297153
94,691.8688305467517
95,691.8327558313348
96,691.7916402831903
97,691.7455095770503
98,691.6945156595821
99,691.6389426595454
100,691.5792080504295
101,691.5158585819271
102,691.4495608164904
103,691.3810864431988
104,691.3112929108198
105,691.241100293391
106,691.1714655902668
107,691.1033558211078
108,691.0377213133246
109,690.9754704962427
110,690.9174473025228
111,690.8644119614033
112,690.8170256230432
113,690.7758389666567
114,690.741284775442
115,690.7136743826932
116,690.6931978081777
117,690.6799272414726
118,690.6738233199671
119,690.6747434837491
120,690.682451622181
121,690.6966282438133
122,690.7168804687154
123,690.7427512669856
124,690.7737275928605
125,690.8092473918327
126,690.8487057940046
127,690.891461020341
128,690.9368405425457
129,690.9841478594037
130,691.0326699844951
131,691.0816855421108
132,691.1304733276576
133,691.1783212458926
134,691.2245355860465
135,691.2684505771409
136,691.3094380818123
137,691.3469171391009
138,691.3803629079393
139,691.4093144936443
140,691.4333812324902
141,691.4522472277893
142,691.4656741530735
143,691.4735024903365
144,691.4756514855299
145,691.4721182010728
146,691.4629760639791
147,691.4483732130196
148,691.4285307930317
149,691.4037411705776
150,691.3743658575014
151,691.3408327918294
152,691.3036326362817
153,691.2633139112187
154,691.2204769721408
155,691.1757669747984
156,691.129866027845
157,691.083484745044
158,691.0373534007393
159,690.9922128692925
160,690.9488054847156
161,690.9078658780234
162,690.8701117401936
163,690.8362343564289
164,690.8068887184313
165,690.782683077055
166,690.764167937723
167,690.751824689825
168,690.7460542437567
169,690.7471661616214
170,690.755368800391
171,690.7707610082142
172,690.7933259743547
173,690.8229278685429
174,690.8593118020594
175,690.9021073739023
176,690.9508357307919
177,691.0049197818211
178,691.063696991827
179,691.1264340256188
180,691.1923424738404
181,691.2605950034895
182,691.3303414843183
183,691.4007248247735
184,691.4708963488687
185,691.5400305902351
186,691.6073394119959
187,691.6720853921247
188,691.7335944326355
189,691.791267505324
190,691.8445912920374
191,691.8931472889406
192,691.9366188684501
193,691.9747958535314
194,692.0075762436859
195,692.0349647865927
196,692.0570681983347
197,692.0740870734184
198,692.0863048386931
199,692.0940743705413
200,692.0978030393767
201,692.0979369732095
202,692.094945280729
203,692.0893048862195
204,692.0814865432114
205,692.0719425328147
206,692.0610965033019
207,692.0493358308656
208,692.0370067456184
209,692.0244122639259
210,692.011812702879
211,691.9994282602062
212,691.9874429223032
213,691.9760089302116
214,691.9652512212983
215,691.9552715895484
216,691.9461526190003
217,691.9379616023624
218,691.9307545963561
219,691.9245805382498
220,691.9194851076801
221,691.915513916089
222,691.9127146667911
223,691.9111380559801
224,691.9108372914684
225,691.9118661805351
226,691.9142758094515
227,691.918109922711
228,691.9233992033127
229,691.9301547507843
230,691.9383611621797
231,691.9479697476245
232,691.9588925405998
233,691.9709978668218
234,691.9841082600403
235,691.9980013814005
236,692.0124142846797
237,692.0270509490678
238,692.0415926031733
239,692.0557100814507
240,692.0690773012838
241,692.0813848858222
242,692.0923529594754
243,692.1017422283511
244,692.1093626407354
245,692.1150791719786
246,692.1188145397703
247,692.120548888616
248,692.1203166661502
249,692.1182010335746
250,692.1143261973685
251,692.1088480512717
252,692.101943558124
253,692.0937994293674
254,692.0846008179736
255,692.0745208181404
256,692.0637115099876
257,692.0522971335986
258,692.0403697906671
259,692.0279878851977
260,692.0151773018335
261,692.0019350597742
262,691.9882349226949
263,691.9740342861337
264,691.9592816521828
265,691.9439240906429
266,691.9279141766796
267,691.9112159347994
268,691.8938093593265
269,691.875693213798
270,691.856886051223
271,691.837425665143
272,691.8173673956031
273,691.796781844032
274,691.7757525705237
275,691.7543742244367
276,691.732751339757
277,691.7109978255982
278,691.6892370597145
279,691.6676024147516
280,691.6462379757388
281,691.6252991681814
282,691.6049530456961
283,691.5853780538674
284,691.5667631297232
285,691.5493060170688
286,691.5332107388206
287,691.5186842986086
288,691.5059328540148
289,691.4951577347754
290,691.4865516630001
291,691.4802953240394
292,691.4765541493894
293,691.4754749942106
294,691.4771824122749
295,691.4817744031587
296,691.4893177297615
297,691.4998431069738
298,691.5133407014171
299,691.5297564134775
300,691.5489893340493
301,691.5708906480671
302,691.5952641437979
303,691.6218683493172
304,691.6504201278215
305,691.6805993822843
306,691.7120544480124
307,691.7444078210359
308,691.7772620209706
309,691.8102055336093
310,691.8428188732197
311,691.8746808519077
312,691.9053751609438
313,691.934497339108
314,691.9616621029744
315,691.986510875067
316,692.0087192290895
317,692.0280039069276
318,692.0441290517844
319,692.0569113437723
320,692.0662238025585
321,692.0719981089482
322,692.0742253821579
323,692.072955435372
324,692.0682946181755
325,692.0604024293089
326,692.049487124533
327,692.0358005359013
328,692.0196322791473
329,692.0013035045449
330,691.981160382603
331,691.9595675990628
332,691.9369022004676
333,691.9135481061376
334,691.8898914551427
335,691.8663167516605
336,691.8432036444424
337,691.8209242008165
338,691.7998406229334
339,691.7803033501455
340,691.7626493660805
341,691.7472003940712
342,691.7342606359703
343,691.7241138141089
344,691.7170194704814
345,691.7132086812054
346,691.7128794607538
347,691.7161920989829
348,691.7232645350562
349,691.7341677502176
350,691.7489211601326
351,691.7674881014472
352,691.7897716413094
353,691.8156110175543
354,691.8447790557511
355,691.8769809644645
356,691.911854973123
357,691.9489752465178
358,691.9878573118497
359,692.0279659230406
360,692.0687249772876
361,692.1095288730877
362,692.1497546249936
363,692.1887741682367
364,692.2259665214814
365,692.2607296629326
366,692.292492030214
367,692.320723567952
368,692.3449463376145
369,692.3647448354625
370,692.3797761887371
371,692.3897802425397
372,692.3945892796152
373,692.3941368635257
374,692.3884651425163
375,692.3777298977054
376,692.3622026560718
377,692.3422693346115
378,692.3184251151845
379,692.2912654745403
380,692.2614734438249
381,692.2298032986981
382,692.1970610848152
383,692.1640826693022
384,692.1317102714577
385,692.1007685608024
386,692.0720413868291
387,692.0462500525301
388,692.0240338303762
389,692.0059332156648
390,691.9923762554247
391,691.9836681845246
392,691.9799845195544
393,691.9813676712333
394,691.9877270478796
395,691.9988425916748
396,692.0143717288182
397,692.0338597428263
398,692.0567534908894
399,692.0824181512894
400,692.1101563964969
401,692.1392291515305
402,692.1688769978637
403,692.1983413271967
404,692.2268844988422
405,692.2538084447172
406,692.2784713124917
407,692.30030178861
408,692.3188107409379
409,692.333599868735
410,692.344367212786
411,692.3509096362421
412,692.3531226322248
413,692.3509979370613
414,692.3446193990758
415,692.3341574204665
416,692.3198621148535
417,692.3020551744787
418,692.2811203973124
419,692.257492903162
420,692.2316472111104
421,692.2040845127258
422,692.1753196458262
423,692.1458684040626
424,692.116235824313
425,692.0869059593325
426,692.0583334547648
427,692.0309370974394
428,692.0050953771116
429,691.9811439493998
430,691.9593747103107
431,691.9400360641118
432,691.92333394167
433,691.9094331989567
434,691.8984591314186
435,691.8904989051277
436,691.885602721167
437,691.8837845554943
438,691.8850223835542
439,691.8892578692282
440,691.8963955467223
441,691.9063015841753
442,691.9188023085438
443,691.9336827469614
444,691.9506854501672
445,691.969509844229
446,691.9898124098977
447,692.0112081587035
448,692.0332740721575
449,692.0555552343922
450,692.0775742161227
451,692.0988438814716
452,692.1188832761936
453,692.1372356921838
454,692.1534874967518
455,692.1672860464791
456,692.1783551099456
457,692.186506637283
458,692.1916482037856
459,692.1937858294635
460,692.1930221459576
461,692.1895501719742
462,692.1836433052075
463,692.1756424305594
464,692.1659411632013
465,692.1549702040098
466,692.1431816855978
467,692.1310342884022
468,692.1189797954615
469,692.107451612518
470,692.0968556033422
471,692.0875633731597
472,692.0799078952978
473,692.0741811786714
474,692.070633559168
475,692.0694741473496
476,692.0708719481366
477,692.0749572034882
478,692.0818226347864
479,692.0915244661621
480,692.104083313626
481,692.1194851239482
482,692.137682288755
483,692.1585948947804
484,692.1821119226073
485,692.2080921609241
486,692.2363646643292
487,692.2667287105769
488,692.2989533511598
489,692.3327767362346
490,692.3679054464845
491,692.4040141750378
492,692.4407462814098
493,692.4777158533237
494,692.5145118431029
495,692.5507046007959
496,692.5858548062513
497,692.6195245276716
498,692.6512899710741
499,692.6807554059003
500,692.7075676689471
501,692.7314304994018
502,692.7521177883175
503,692.7694847663457
504,692.7834762778008
505,692.7941315505678
506,692.801585193373
507,692.8060644929958
508,692.807883383518
509,692.807433621223
510,692.8051736861961
511,692.801615811162
512,692.7973113905855
513,692.7928349024895
514,692.7887664574688
515,692.7856732282006
516,692.7840902474162
517,692.7845012810485
518,692.7873206421349
519,692.7928769031713
520,692.8013994581067
521,692.8130087730505
522,692.8277109981764
523,692.8453974251219
524,692.8658490375557
525,692.8887461007889
526,692.9136824038119
527,692.9401834486707
528,692.967727614833
529,692.9957691456231
530,693.0237617121014
531,693.0511812617862
532,693.0775468209011
533,693.1024379387522
534,693.1255076628184
535,693.1464903867922
536,693.16520454973
537,693.181550812633
538,693.19550684031
539,693.2071200794154
540,693.2164999284558
541,693.2238104680545
542,693.2292644919421
543,693.2331190138532
544,693.235671884303
545,693.2372588424944
546,693.2382503212077
547,693.2390474753374
548,693.2400770417872
549,693.241784731012
550,693.2446269616111
551,693.2490608836348
552,693.255532759885
553,693.2644649097438
554,693.2762416092439
555,693.2911945894901
556,693.3095890550926
557,693.3316113526665
558,693.3573593924298
559,693.3868366020953
560,693.4199497024462
561,693.4565101362194
562,693.4962386729462
563,693.538772575274
564,693.5836747377676
565,693.6304443734681
566,693.6785290582226
567,693.7273381320911
568,693.7762574764969
569,693.8246654722338
570,693.8719495838983
571,693.9175227267833
572,693.9608385149643
573,694.0014046418376
574,694.0387938665118
575,694.0726522455784
576,694.1027043285853
577,694.1287551020623
578,694.1506886087166
579,694.1684633676856
580,694.1821049022426
581,694.191695848698
582,694.1973643390241
583,694.199271589391
584,694.1975997518668
585,694.1925410171161
586,694.1842887423885
587,694.1730311141395
588,694.158947595791
589,694.1422081728623
590,694.1229751614961
591,694.1014070634885
592,694.0776636836548
593,694.0519115940288
594,694.0243291035648
595,693.9951101205497
596,693.9644665524141
597,693.9326290663213
598,693.8998460949675
599,693.8663809450605
600,693.8325068481829
601,693.7984999130184
602,693.7646302271786
603,693.7311516946039
604,693.6982914291996
605,693.666239600722
606,693.6351405647305
607,693.6050859540863
608,693.5761102391921
609,693.548189132064
610,693.5212411020194
611,693.4951321539628
612,693.469683883762
613,693.4446846463975
614,693.4199034182609
615,693.3951056226203
616,693.370069881259
617,693.344604422286
618,693.3185617836078
619,693.2918505584845
620,693.264443211173
621,693.2363793615191
622,693.2077643508126
623,693.178763364857
624,693.1495918601026
625,693.1205033726089
626,693.0917758660647
627,693.0636976308258
628,693.0365535352631
629,693.0106122648097
630,692.9861150585808
631,692.9632663107654
632,692.942226221787
633,692.9231054978414
634,692.9059619516023
635,692.8907987661044
636,692.8775641505034
637,692.8661521553427
638,692.8564045286394
639,692.8481136288044
640,692.8410264763319
641,692.8348499899826
642,692.8292573773879
643,692.8238956086725
644,692.8183938918818
645,692.812373037634
646,692.805455522432
647,692.7972759523198
648,692.7874915185205
649,692.7757919562962
650,692.7619085028489
651,692.7456214146561
652,692.7267657313421
653,692.7052351141866
654,692.6809836756836
655,692.6540257247303
656,692.6244333543282
657,692.5923319099438
658,692.5578936192688
659,692.5213299539504
660,692.4828835355825
661,692.4428205251322
662,692.4014243879888
663,692.3589916746254
664,692.3158300482916
665,692.2722583586775
666,692.2286082435294
667,692.1852265902329
668,692.1424781611089
669,692.1007477045201
670,692.0604408913496
671,692.0219834510203
672,691.9858180003457
673,691.9523982818882
674,691.9221807923418
675,691.895614020763
676,691.8731257194903
677,691.8551088091943
678,691.8419066633131
679,691.8337985810099
680,691.8309862093304
681,691.8335815529992
682,691.8415971043423
683,691.8549385898368
684,691.8734008140674
685,691.8966669689612
686,691.9243115147904
687,691.9558064352458
688,691.9905304922295
689,692.027781103029
690,692.0667885195712
691,692.1067319939053
692,692.1467575751672
693,692.1859971772318
694,692.2235886036647
695,692.2586962406479
696,692.2905320377971
697,692.3183761785396
698,692.3415965596547
699,692.3596659605126
700,692.3721757097284
701,692.3788448161116
702,692.3795238783872
703,692.3741935267535
704,692.3629576088902
705,692.3460317805192
706,692.3237285522526
707,692.296440104801
708,692.2646202600091
709,692.2287668946414
710,692.189405836934
711,692.1470769177807
712,692.1023224315157
713,692.0556779216408
714,692.0076650165837
715,691.9587859392453
716,691.9095192067709
717,691.8603159505624
718,691.8115963437799
719,691.7637458752355
720,691.7171115597986
721,691.6719984634298
722,691.628667037902
723,691.5873317072948
724,691.5481609834837
725,691.51127917576
726,691.47676958332
727,691.4446789850989
728,691.4150232374349
729,691.3877937508165
730,691.3629644837877
731,691.3404989123748
732,691.3203563159565
733,691.3024967468054
734,691.2868842118681
735,691.2734878179316
736,691.2622808616135
737,691.253238084785
738,691.2463315704762
739,691.2415259845211
740,691.2387740010598
741,691.2380127319492
742,691.2391618082489
743,691.2421234712637
744,691.2467846880222
745,691.2530210093531
746,691.2607017088587
747,691.269695673398
748,691.2798775186751
749,691.2911334450977
750,691.3033664106057
751,691.316500265936
752,691.3304825449881
753,691.345285593116
754,691.3609056784192
755,691.3773597711166
756,691.3946798633508
757,691.4129049888783
758,691.4320713991187
759,691.4522016152084
760,691.4732932597296
761,691.4953085865388
762,691.5181654433438
763,691.5417301239975
764,691.5658123346313
765,691.5901623785724
766,691.6144706567686
767,691.6383696237472
768,691.6614383404185
769,691.683209674097
770,691.7031800475676
771,691.7208214794673
772,691.7355954960276
773,691.7469683693015
774,691.7544271334434
775,691.7574959459498
776,691.7557524614596
777,691.7488438547784
778,691.7365019820132
779,691.7185569938085
780,691.6949485884751
781,691.6657340694162
782,691.6310924928686
783,691.591324451241
784,691.5468473577998
785,691.4981864122575
786,691.445961748279
787,691.3908726150279
788,691.3336797408648
789,691.2751871218884
790,691.2162243164902
791,691.1576299992533
792,691.1002371746459
793,691.0448601603571
794,690.992283227433
795,690.9432506003646
796,690.8984573800911
797,690.8585408896372
798,690.8240719537513
799,690.7955457028962
800,690.7733716978692
801,690.7578635454927
802,690.7492285999458
803,690.7475586226228
804,690.7528223355628
805,690.7648607042751
806,690.7833855668738
807,690.8079819191441
808,690.8381138703813
809,690.8731341152474
810,690.9122967191548
811,690.9547729710359
812,690.999669925048
813,691.0460510706864
814,691.0929584527137
815,691.1394355420452
816,691.1845501405472
817,691.2274165071979
818,691.2672158003168
819,691.303213991387
820,691.3347766383022
821,691.3613801754957
822,691.3826195805756
823,691.3982124499732
824,691.407999752124
825,691.4119438290722
826,691.4101244673133
827,691.4027339016727
828,691.3900713863321
829,691.3725375439748
830,691.350628250705
831,691.324927482106
832,691.2960984249921
833,691.2648722559595
834,691.2320342274934
835,691.1984069992924
836,691.1648314677336
837,691.1321456613825
838,691.1011625359786
839,691.0726476400431
840,691.0472975893362
841,691.0257201511135
842,691.0084166336969
843,690.9957672671866
844,690.9880202844505
845,690.9852853542023
846,690.9875317970227
847,690.994591643631
848,691.0061672076058
849,691.0218425941362
850,691.0410984868929
851,691.0633295766719
852,691.0878640378221
853,691.1139844737785
854,691.1409497333144
855,691.1680169749662
856,691.1944633662372
857,691.21960685461
858,691.2428255095751
859,691.2635749615955
860,691.2814034321107
861,691.2959637994562
862,691.3070221600963
863,691.3144624621871
864,691.3182869722941
865,691.3186125236016
866,691.3156626622343
867,691.3097559881527
868,691.3012912127273
869,691.2907297102287
870,691.2785765751763
871,691.2653613666298
872,691.2516197629991
873,691.2378771843669
874,691.2246350571141
875,691.2123599456618
876,691.201475458243
877,691.192356713422
878,691.1853271364361
879,691.1806573299631
880,691.1785657031847
881,691.1792204503869
882,691.1827423490342
883,691.1892077527502
884,691.1986512026715
885,691.2110673262142
886,691.2264120325634
887,691.2446032814695
888,691.2655218277525
889,691.2890123561428
890,691.314885326447
891,691.3429196448706
892,691.3728660556053
893,691.4044510419667
894,691.4373810508557
895,691.4713468936073
896,691.5060281410252
897,691.5410972386633
898,691.5762230145932
899,691.6110733426169
900,691.645316982531
901,691.6786249243772
902,691.7106717468936
903,691.7411374998397
904,691.7697104838704
905,691.7960910956893
906,691.819996688771
907,691.8411672242576
908,691.8593713573788
909,691.8744124912253
910,691.8861342673139
911,691.894425052292
912,691.8992212336173
913,691.9005094212504
914,691.8983278365641
915,691.8927672165389
916,691.8839714641156
917,691.8721380460419
