frame_number,force
0,692.3848289640807
1,692.3750581119915
2,692.3657577519352
3,692.3570060216772
4,692.3488750059121
5,692.3414299937235
6,692.3347288118437
7,692.3288212512481
8,692.3237486035737
9,692.319543320433
10,692.3162288028881
11,692.3138193222394
12,692.3123200691684
13,692.3117273266719
14,692.3120287616929
15,692.3132038287068
16,692.3152242746149
17,692.3180547291425
18,692.3216533606528
19,692.3259725751745
20,692.3309597363676
21,692.3365578856359
22,692.3427064445726
23,692.3493418861254
24,692.356398365168
25,692.3638083022312
26,692.3715029159814
27,692.3794127020892
28,692.387467859572
29,692.3955986698643
30,692.4037358369994
31,692.4118107983412
32,692.4197560147862
33,692.4275052485049
34,692.4349938355765
35,692.4421589596986
36,692.4489399309797
37,692.4552784709255
38,692.4611190016227
39,692.4664089345191
40,692.4710989528598
41,692.4751432816064
42,692.4784999383397
43,692.4811309574758
44,692.4830025788309
45,692.4840853916547
46,692.4843544272094
47,692.483789195315
48,692.482373661082
49,692.4800961578262
50,692.4769492334106
51,692.4729294310183
52,692.4680370099169
53,692.4622756146828
54,692.4556519014014
55,692.4481751272508
56,692.4398567079271
57,692.4307097475629
58,692.4207485480981
59,692.4099881080651
60,692.3984436230787
61,692.3861300015857
62,692.3730614102029
63,692.3592508639672
64,692.3447098778331
65,692.3294481954168
66,692.3134736080763
67,692.2967918724315
68,692.279406729082
69,692.2613200205809
70,692.2425319027948
71,692.2230411405791
72,692.2028454759356
73,692.1819420540681
74,692.1603278906123
75,692.1380003628437
76,692.1149577090588
77,692.0911995229227
78,692.0667272327927
79,692.041544559648
80,692.015657951231
81,691.9890769939408
82,691.9618148069032
83,691.9338884232908
84,691.9053191623111
85,691.8761329926867
86,691.8463608859961
87,691.816039155741
88,691.7852097748944
89,691.7539206611734
90,691.7222259163538
91,691.6901860048572
92,691.6578678578976
93,691.6253448914281
94,691.592696927596
95,691.5600100100947
96,691.5273761040258
97,691.4948926707837
98,691.462662108582
99,691.4307910508081
100,691.3993895183592
101,691.3685699279387
102,691.3384459646757
103,691.3091313339293
104,691.2807384140111
105,691.2533768382585
106,691.227152040081
107,691.2021637975137
108,691.1785048145687
109,691.1562593752864
110,691.1355021026939
111,691.1162968493189
112,691.0986957396475
113,691.0827383793396
114,691.0684512420714
115,691.0558472421608
116,691.044925498146
117,691.0356712881371
118,691.0280561925547
119,691.0220384152653
120,691.0175632710092
121,691.0145638251962
122,691.0129616711433
123,691.0126678297563
124,691.0135837582565
125,691.0156024578598
126,691.0186096738726
127,691.0224851834511
128,691.0271041650929
129,691.0323386399159
130,691.0380589695666
131,691.0441353917118
132,691.0504395729048
133,691.0568461592283
134,691.06323430581
135,691.0694891662777
136,691.0755033223481
137,691.0811781321313
138,691.0864249741712
139,691.0911663643183
140,691.0953369253582
141,691.0988841943212
142,691.101769257611
143,691.1039672083608
144,691.1054674241994
145,691.1062736672195
146,691.106404010365
147,691.1058905951224
148,691.1047792251171
149,691.103128799626
150,691.1010105901424
151,691.0985073629787
152,691.0957123529581
153,691.0927280974732
154,691.0896651448321
155,691.0866406543272
156,691.0837769075756
157,691.0811997518663
158,691.0790369968835
159,691.0774167863375
160,691.0764659655983
161,691.0763084652045
162,691.0770637181445
163,691.0788451267
164,691.0817585932784
165,691.0859011295518
166,691.0913595592164
167,691.0982093312365
168,691.1065134617053
169,691.1163216224514
170,691.1276693931226
171,691.1405776917929
172,691.1550523979805
173,691.1710841803558
174,691.1886485376147
175,691.2077060545912
176,691.2282028683035
177,691.2500713320478
178,691.2732308603219
179,691.2975889331742
180,691.3230422363034
181,691.3494779135632
182,691.3767749105832
183,691.4048053900825
184,691.4334362002284
185,691.4625303775738
186,691.4919486663404
187,691.5215510362752
188,691.5511981818164
189,691.5807529850312
190,691.6100819230221
191,691.6390563983999
192,691.6675539712911
193,691.695459473531
194,691.7226659883951
195,691.7490756815642
196,691.7746004723006
197,691.7991625391999
198,691.8226946614758
199,691.8451404025824
200,691.8664541469127
201,691.8866010023555
202,691.9055565822333
203,691.9233066802121
204,691.9398468517894
205,691.9551819162476
206,691.9693253933006
207,691.9822988884298
208,691.9941314396082
209,692.0048588355992
210,692.0145229123922
211,692.0231708301222
212,692.0308543296109
213,692.0376289672678
214,692.0435533300441
215,692.0486882371187
216,692.0530959396573
217,692.0568393321099
218,692.0599811871025
219,692.0625834218563
220,692.0647063996576
221,692.0664082676014
222,692.0677443320294
223,692.0687664742782
224,692.0695226101808
225,692.0700561970501
226,692.0704057920834
227,692.0706046665495
228,692.0706804806532
229,692.0706550245484
230,692.070544031759
231,692.0703570723671
232,692.0700975344828
233,692.0697627033228
234,692.069343946831
235,692.0688270139854
236,692.0681924463271
237,692.067416096046
238,692.0664697371815
239,692.0653217516348
240,692.063937868952
241,692.0622819375969
242,692.060316705317
243,692.058004587491
244,692.0553084052511
245,692.0521920792041
246,692.0486212688867
247,692.0445639520024
248,692.0399909406997
249,692.0348763343969
250,692.0291979097775
251,692.0229374490492
252,692.0160810086675
253,692.0086191332315
254,692.0005470222525
255,691.9918646592156
256,691.9825769119975
257,691.9726936117797
258,691.9622296151648
259,691.9512048517468
260,691.9396443565189
261,691.9275782828666
262,691.9150418883007
263,691.902075483041
264,691.8887243318237
265,691.8750385011542
266,691.8610726460945
267,691.8468857317256
268,691.8325406854794
269,691.8181039790221
270,691.8036451425405
271,691.7892362188835
272,691.7749511687415
273,691.7608652404341
274,691.747054318493
275,691.7335942635804
276,691.7205602530689
277,691.7080261286569
278,691.6960637556222
279,691.6847423972131
280,691.6741281066165
281,691.6642831383434
282,691.655265381294
283,691.6471278167269
284,691.6399180048622
285,691.6336776039457
286,691.6284419262572
287,691.6242395372511
288,691.6210919062592
289,691.619013118752
290,691.618009659338
291,691.6180802707676
292,691.6192158890162
293,691.6213996509671
294,691.6246069707643
295,691.6288056828067
296,691.6339562520315
297,691.6400120544737
298,691.6469197324194
299,691.6546196280973
300,691.6630462977699
301,691.6721291053673
302,691.6817928922461
303,691.6919587167612
304,691.7025446536798
305,691.7134666400292
306,691.7246393523292
307,691.7359771008458
308,691.747394728578
309,691.7588085048055
310,691.7701370044531
311,691.7813019653198
312,691.7922291156807
313,691.8028489645973
314,691.8130975461279
315,691.8229171069853
316,691.8322567260154
317,691.8410728536286
318,691.8493297600191
319,691.8569998826309
320,691.864064065592
321,691.870511686311
322,691.8763406669063
323,691.8815573706559
324,691.8861763861986
325,691.8902202045749
326,691.8937187959984
327,691.8967090942434
328,691.8992343969694
329,691.901343690965
330,691.9030909127721
331,691.9045341572742
332,691.905734848586
333,691.9067568877723
334,691.9076657900532
335,691.908527821249
336,691.9094091413857
337,691.91037496381
338,691.9114887394327
339,691.9128113754144
340,691.9144004952421
341,691.9163097444939
342,691.9185881454866
343,691.921279504872
344,691.9244218804198
345,691.9280471154462
346,691.9321804501026
347,691.9368402170867
348,691.942037625938
349,691.9477766368941
350,691.9540539239854
351,691.9608589275476
352,691.9681739971646
353,691.9759746260502
354,691.9842297772865
355,691.9929023020748
356,692.0019494501084
357,692.0113234707621
358,692.020972299861
359,692.0308403212152
360,692.040869186704
361,692.0509986747718
362,692.0611675658492
363,692.0713145150489
364,692.0813789063589
365,692.0913016758428
366,692.1010260927458
367,692.1104984883025
368,692.1196689243192
369,692.1284917966566
370,692.136926370242
371,692.1449372409787
372,692.1524947169787
373,692.1595751089549
374,692.1661609186116
375,692.1722409144501
376,692.1778100863972
377,692.182869474326
378,692.1874258705029
379,692.1914914007367
380,692.1950829924323
381,692.1982217406804
382,692.2009321874798
383,692.2032415342727
384,692.2051788124977
385,692.2067740391692
386,692.2080573841008
387,692.209058372761
388,692.2098051449638
389,692.210323785773
390,692.2106377417417
391,692.2107673329849
392,692.2107293692294
393,692.2105368753868
394,692.2101989295364
395,692.2097206144068
396,692.2091030827206
397,692.2083437358859
398,692.2074365128137
399,692.2063722807654
400,692.2051393143819
401,692.203723844325
402,692.2021106545258
403,692.2002837069992
404,692.19822677499
405,692.1959240678277
406,692.1933608329856
407,692.1905239216226
408,692.187402304025
409,692.1839875224487
410,692.1802740719521
411,692.1762597045087
412,692.1719456563072
413,692.167336800959
414,692.1624417318188
415,692.1572727755554
416,692.1518459374033
417,692.1461807772555
418,692.1403002161229
419,692.13423027476
420,692.1279997494893
421,692.1216398337223
422,692.1151836971715
423,692.1086660375313
424,692.1021226201115
425,692.095589819273
426,692.0891041729036
427,692.0827019589885
428,692.0764188014566
429,692.0702893099996
430,692.0643467555931
431,692.0586227811216
432,692.05314714571
433,692.0479475019906
434,692.0430492065914
435,692.0384751644721
436,692.0342457072217
437,692.0303785050319
438,692.0268885122726
439,692.0237879468441
440,692.0210863033827
441,692.0187904004938
442,692.0169044627869
443,692.0154302388968
444,692.0143671561119
445,692.0137125112715
446,692.013461697856
447,692.0136084713997
448,692.0141452580887
449,692.0150635121597
450,692.0163541248633
451,692.018007881653
452,692.0200159562988
453,692.0223704219745
454,692.0250647517544
455,692.0280942771883
456,692.0314565758466
457,692.03515176591
458,692.0391826943346
459,692.0435550118273
460,692.0482771329704
461,692.0533600852759
462,692.0588172572972
463,692.0646640613961
464,692.0709175294782
465,692.0775958601478
466,692.0847179349038
467,692.0923028200825
468,692.1003692700649
469,692.1089352454801
470,692.1180174576931
471,692.1276309476757
472,692.1377887037241
473,692.1485013193692
474,692.1597766908991
475,692.1716197528864
476,692.1840322495101
477,692.1970125395906
478,692.2105554347149
479,692.2246520724602
480,692.2392898292658
481,692.25445227836
482,692.2701191964748
483,692.2862666197094
484,692.3028669457786
485,692.3198890783771
486,692.3372986095799
487,692.3550580374709
488,692.373127017656
489,692.3914626480403
490,692.4100197864734
491,692.4287514020889
492,692.4476089635525
493,692.4665428688853
494,692.4855029201921
495,692.504438842629
496,692.5233008418662
497,692.5420401900377
498,692.5606098277718
499,692.5789649689159
500,692.5970636936228
501,692.6148675135655
502,692.6323418909014
503,692.6494566922589
504,692.6661865616204
505,692.6825112007656
506,692.6984155517064
507,692.7138898816132
508,692.7289297761286
509,692.743536050154
510,692.7577145855977
511,692.7714761042041
512,692.7848358817216
513,692.7978134081349
514,692.8104319986854
515,692.8227183627642
516,692.834702141534
517,692.8464154285573
518,692.8578922900917
519,692.8691683029517
520,692.8802801274497
521,692.8912651308111
522,692.9021610734278
523,692.9130058669215
524,692.9238374088072
525,692.9346934933496
526,692.9456117925421
527,692.9566298957355
528,692.9677853919065
529,692.979115975446
530,692.9906595547262
531,693.002454341855
532,693.0145389014174
533,693.0269521364164
534,693.0397331929671
535,693.0529212727247
536,693.0665553524083
537,693.0806738204291
538,693.0953140490265
539,693.1105119249955
540,693.1263013627395
541,693.142713820376
542,693.1597778334655
543,693.1775185725811
544,693.1959574229354
545,693.2151115798785
546,693.2349936543695
547,693.2556112852474
548,693.2769667575084
549,693.2990566273847
550,693.3218713567787
551,693.3453949616232
552,693.3696046804665
553,693.3944706713727
554,693.4199557477546
555,693.4460151671071
556,693.4725964903456
557,693.4996395319756
558,693.5270764200612
559,693.5548317789534
560,693.5828230390737
561,693.6109608698645
562,693.6391497261578
563,693.6672884950806
564,693.6952712300648
565,693.7229879602254
566,693.7503255662295
567,693.7771687160201
568,693.8034008534057
569,693.8289052286308
570,693.8535659539548
571,693.8772690624169
572,693.8999035469
573,693.9213623589844
574,693.9415433506873
575,693.960350145027
576,693.9776929229522
577,693.9934891156839
578,694.0076639943162
579,694.0201511523143
580,694.0308928801212
581,694.0398404345048
582,694.0469542095605
583,694.0522038209273
584,694.0555681176274
585,694.0570351357344
586,694.0566020055948
587,694.0542748210166
588,694.0500684755943
589,694.0440064683819
590,694.0361206780024
591,694.0264511005213
592,694.0150455428432
593,694.0019592619017
594,693.9872545415928
595,693.9710002034444
596,693.9532710514393
597,693.9341472545224
598,693.913713671501
599,693.8920591227665
600,693.8692756130536
601,693.8454575113274
602,693.8207006983616
603,693.7951016977485
604,693.7687568095603
605,693.7417612668022
606,693.714208433453
607,693.6861890600928
608,693.6577906100231
609,693.6290966662627
610,693.6001864276541
611,693.5711343
612,693.5420095855266
613,693.5128762706739
614,693.4837929077519
615,693.4548125806261
616,693.425982939359
617,693.3973462846473
618,693.3689396811004
619,693.3407950797257
620,693.3129394340904
621,693.2853948001544
622,693.2581784159753
623,693.2313027644924
624,693.2047756297096
625,693.1786001615585
626,693.1527749656233
627,693.1272942313244
628,693.1021479085082
629,693.077321939432
630,693.052798550797
631,693.0285566078599
632,693.004572029397
633,692.9808182589757
634,692.9572667852954
635,692.9338877025584
636,692.9106503009424
637,692.8875236775281
638,692.8644773595335
639,692.8414819335818
640,692.8185096755831
641,692.7955351751191
642,692.7725359469908
643,692.7494930219822
644,692.7263915088752
645,692.7032211195005
646,692.6799766477095
647,692.6566583919034
648,692.6332725095627
649,692.6098312915976
650,692.5863533448348
651,692.5628636727972
652,692.5393936478353
653,692.5159808708634
654,692.4926689173709
655,692.4695069695769
656,692.4465493357302
657,692.4238548604163
658,692.4014862346535
659,692.3795092202067
660,692.3579918073931
661,692.3370033286361
662,692.3166135502016
663,692.2968917614013
664,692.277905874841
665,692.2597215450979
666,692.2424013087087
667,692.2260037463509
668,692.2105826678686
669,692.1961863211557
670,692.1828566260951
671,692.1706284350591
672,692.1595288229411
673,692.1495764126499
674,692.1407807454287
675,692.1331417082546
676,692.1266490327529
677,692.1212818817165
678,692.1170085403004
679,692.113786228577
680,692.1115610498888
681,692.1102680859517
682,692.1098316463847
683,692.1101656781373
684,692.1111743383998
685,692.1127527311878
686,692.1147878021101
687,692.1171593795459
688,692.1197413462904
689,692.1224029244211
690,692.1250100559255
691,692.1274268607607
692,692.1295171526485
693,692.1311459922683
694,692.1321812579121
695,692.1324952139282
696,692.1319660559496
697,692.1304794087839
698,692.127929748933
699,692.1242217206753
700,692.1192713144251
701,692.1130068796795
702,692.1053699515887
703,692.0963158784627
704,692.0858142462436
705,692.0738491045713
706,692.0604190068416
707,692.0455368823756
708,692.0292297616339
709,692.0115383754123
710,691.9925166466089
711,691.9722310888263
712,691.9507601208867
713,691.9281933022606
714,691.9046304925772
715,691.8801809378118
716,691.8549622849558
717,691.8290995263645
718,691.8027238764926
719,691.7759715881597
720,691.74898272135
721,691.7218998822744
722,691.6948669523309
723,691.6680278256955
724,691.6415251715022
725,691.6154992329431
726,691.5900866724583
727,691.5654194705462
728,691.5416238851215
729,691.5188194771179
730,691.4971182052748
731,691.4766235895083
732,691.4574299396729
733,691.4396216461647
734,691.4232725305717
735,691.4084452572774
736,691.3951908097446
737,691.3835480381656
738,691.3735432883688
739,691.3651901246957
740,691.3584891608765
741,691.3534280118708
742,691.3499813761862
743,691.3481112528707
744,691.3477672912738
745,691.3488872663114
746,691.3513976684824
747,691.3552143961875
748,691.3602435373506
749,691.3663822274284
750,691.3735195713281
751,691.3815376173231
752,691.3903123713292
753,691.3997148392959
754,691.4096120844619
755,691.4198682864641
756,691.4303457918894
757,691.4409061500571
758,691.4514111322147
759,691.4617237362247
760,691.471709181515
761,691.4812358991354
762,691.4901765187595
763,691.4984088500494
764,691.5058168521499
765,691.5122915832935
766,691.5177321225411
767,691.522046456632
768,691.5251523252994
769,691.526978017443
770,691.5274631087885
771,691.5265591298452
772,691.5242301512204
773,691.5204532723138
774,691.5152190003885
775,691.5085315099835
776,691.5004087754584
777,691.4908825703009
778,691.4799983259105
779,691.4678148412648
780,691.4544038343882
781,691.4398493276767
782,691.4242468625469
783,691.4077025444257
784,691.3903319255429
785,691.3722587392505
786,691.3536135058572
787,691.3345320365679
788,691.3151538676841
789,691.2956206594464
790,691.276074591887
791,691.2566567852175
792,691.2375057668268
793,691.2187560022572
794,691.2005365036675
795,691.1829695258107
796,691.1661693565409
797,691.1502412068473
798,691.1352802043785
799,691.1213704942617
800,691.1085844527022
801,691.0969820230358
802,691.086610188767
803,691.0775026006131
804,691.0696793735898
805,691.0631470666359
806,691.0578988518542
807,691.0539148736833
808,691.0511627918177
809,691.0495984972878
810,691.0491669887556
811,691.0498033939579
812,691.0514341179052
813,691.053978095547
814,691.0573481239493
815,691.0614522481627
816,691.0661951743655
817,691.0714796823096
818,691.0772080078481
819,691.0832831677268
820,691.0896102031691
821,691.0960973239364
822,691.1026569388357
823,691.1092065626409
824,691.1156695945467
825,691.1219759695723
826,691.1280626899003
827,691.1338742454966
828,691.1393629314376
829,691.1444890643962
830,691.1492210952377
831,691.1535356110123
832,691.1574172191857
833,691.1608583098043
834,691.1638586962388
835,691.1664251408298
836,691.1685707775376
837,691.1703144492691
838,691.1716799821426
839,691.1726954213095
840,691.1733922524235
841,691.1738046304656
842,691.173968635576
843,691.1739215748132
844,691.1737013484073
845,691.1733458973155
846,691.1728927444542
847,691.172378635104
848,691.1718392748095
849,691.1713091580656
850,691.1708214787552
851,691.1704081126179
852,691.1700996617325
853,691.1699255503745
854,691.169914160546
855,691.1700929944698
856,691.1704888510077
857,691.1711280034268
858,691.172036366744
859,691.1732396432859
860,691.1747634347292
861,691.1766333083901
862,691.1788748061609
863,691.1815133868637
864,691.1845742962967
865,691.1880823628912
866,691.1920617202815
867,691.1965354616892
868,691.2015252353523
869,691.2070507949949
870,691.2131295237502
871,691.2197759532631
872,691.2270013009456
873,691.234813046222
874,691.2432145609531
875,691.2522048024093
876,691.261778072293
877,691.2719238434391
878,691.2826266554322
879,691.2938660797664
880,691.3056167538617
881,691.31784848133
882,691.3305263934069
883,691.3436111643175
884,691.3570592733574
885,691.3708233095331
886,691.3848523191004
887,691.3990921996538
888,691.4134861454712
889,691.4279751480858
890,691.4424985536323
891,691.4569946744044
892,691.4714014476999
893,691.4856571325685
894,691.4997010347205
895,691.5134742498066
896,691.5269204141467
897,691.5399864500733
898,691.5526232918409
899,691.5647865792376
900,691.5764373099945
901,691.5875424469006
902,691.5980754785688
903,691.6080169330552
904,691.6173548418016
905,691.6260851486658
906,691.6342120560374
907,691.641748298055
908,691.6487153297966
909,691.655143420529
910,691.6610716392036
911,691.6665477229774
912,691.6716278247637
913,691.6763761415754
914,691.6808644296483
915,691.6851714144043
916,691.6893821031106
917,691.69358700579
