frame_number,force
0,692.4076171243868
1,692.4016766842566
2,692.3959268905206
3,692.3904179641045
4,692.3851973566824
5,692.380309335747
6,692.3757946022832
7,692.3716899478812
8,692.3680279576995
9,692.364836764468
10,692.3621398566918
11,692.3599559420849
12,692.3582988657942
13,692.357177582347
14,692.3565961799904
15,692.3565539554406
16,692.3570455356667
17,692.3580610415103
18,692.3595862864197
19,692.3616030027821
20,692.3640890882291
21,692.3670188647126
22,692.3703633440679
23,692.3740904951213
24,692.3781655087735
25,692.382551058459
26,692.3872075539444
27,692.3920933870638
28,692.3971651691029
29,692.4023779609062
30,692.4076854977948
31,692.4130404117155
32,692.4183944528468
33,692.4236987125855
34,692.4289038495981
35,692.4339603202136
36,692.4388186137187
37,692.4434294921454
38,692.4477442331146
39,692.4517148734388
40,692.4552944507597
41,692.4584372404413
42,692.4610989848577
43,692.4632371118449
44,692.4648109386912
45,692.465781858095
46,692.4661135032148
47,692.4657718897532
48,692.4647255333219
49,692.4629455402971
50,692.4604056708263
51,692.4570823739462
52,692.4529547963349
53,692.4480047672267
54,692.4422167620701
55,692.435577846831
56,692.4280776042251
57,692.4197080432475
58,692.4104634941771
59,692.4003404922599
60,692.389337654082
61,692.3774555510875
62,692.364696584978
63,692.3510648700836
64,692.3365661281492
65,692.3212076008913
66,692.3049979847151
67,692.2879473903317
68,692.270067328235
69,692.2513707194407
70,692.2318719295911
71,692.2115868234711
72,692.1905328360762
73,692.1687290554672
74,692.1461963119556
75,692.1229572680212
76,692.0990365038621
77,692.0744605943689
78,692.0492581744244
79,692.0234599906721
80,691.997098939265
81,691.9702100904542
82,691.9428307018809
83,691.9150002226895
84,691.8867602900588
85,691.8581547189157
86,691.8292294848139
87,691.8000326991519
88,691.770614574903
89,691.7410273798847
90,691.7113253736477
91,691.6815647237347
92,691.6518033974362
93,691.6221010258565
94,691.592518737614
95,691.5631189597423
96,691.5339651834488
97,691.5051216923588
98,691.4766532509066
99,691.4486247510595
100,691.4211008168704
101,691.3941453682924
102,691.3678211477983
103,691.3421892154961
104,691.3173084206858
105,691.2932348600054
106,691.2700213339901
107,691.247716814783
108,691.226365937917
109,691.2060085305412
110,691.1866791871419
111,691.168406901857
112,691.1512147642873
113,691.1351197237378
114,691.1201324254048
115,691.1062571210068
116,691.0934916552576
117,691.0818275280105
118,691.0712500300643
119,691.0617384489715
120,691.0532663400534
121,691.0458018571244
122,691.0393081370078
123,691.0337437318208
124,691.0290630834766
125,691.0252170358941
126,691.0221533815508
127,691.0198174395688
128,691.0181526620987
129,691.0171012644014
130,691.0166048722729
131,691.0166051791624
132,691.0170446049552
133,691.017866948633
134,691.019018027297
135,691.0204462940825
136,691.0221034272699
137,691.0239448824308
138,691.0259303990124
139,691.028024452886
140,691.0301966474373
141,691.0324220375668
142,691.0346813828377
143,691.0369613275617
144,691.0392545070086
145,691.0415595802668
146,691.0438811912262
147,691.0462298595128
148,691.0486218032377
149,691.051078695353
150,691.0536273552378
151,691.0562993772031
152,691.0591306984097
153,691.0621611102102
154,691.0654337185779
155,691.068994360548
156,691.0728909843759
157,691.0771730015736
158,691.0818906192496
159,691.0870941612641
160,691.0928333865869
161,691.0991568128451
162,691.1061110523751
163,691.1137401673757
164,691.1220850502605
165,691.1311828352345
166,691.141066347391
167,691.151763596079
168,691.1632973196374
169,691.1756845884997
170,691.1889364731096
171,691.2030577824145
172,691.2180468782058
173,691.2338955699176
174,691.2505890931011
175,691.2681061725201
176,691.2864191682153
177,691.3054943005569
178,691.325291948392
179,691.3457670128726
180,691.3668693386757
181,691.388544184323
182,691.4107327338995
183,691.4333726429996
184,691.456398611902
185,691.4797429789601
186,691.5033363272038
187,691.5271080972486
188,691.5509871997306
189,691.5749026203636
190,691.5987840100963
191,691.6225622521349
192,691.6461699975505
193,691.6695421619389
194,691.6926163765224
195,691.7153333879039
196,691.7376374018265
197,691.7594763681483
198,691.7808022065115
199,691.8015709742107
200,691.8217429791592
201,691.8412828416148
202,691.8601595086539
203,691.8783462254972
204,691.8958204678795
205,691.9125638398388
206,691.9285619415056
207,691.9438042114833
208,691.9582837480617
209,691.9719971127495
210,691.9849441184724
211,691.99712760345
212,692.0085531907571
213,692.0192290335057
214,692.0291655466365
215,692.0383751280266
216,692.0468718732309
217,692.0546712889236
218,692.0617900096601
219,692.0682455212185
220,692.0740558923155
221,692.0792395157215
222,692.0838148598647
223,692.0878002324044
224,692.0912135575102
225,692.0940721686562
226,692.0963926187795
227,692.0981905097541
228,692.0994803432703
229,692.1002753953541
230,692.1005876169742
231,692.1004275635003
232,692.0998043561061
233,692.098725678426
234,692.0971978115813
235,692.0952257096981
236,692.0928131161038
237,692.0899627179092
238,692.0866763343665
239,692.0829551327043
240,692.0787998641757
241,692.0742111125973
242,692.069189547577
243,692.0637361750256
244,692.057852578489
245,692.051541146172
246,692.0448052799451
247,692.0376495839324
248,692.0300800313471
249,692.0221041089978
250,692.0137309392705
251,692.0049713795595
252,691.9958380995159
253,691.9863456373464
254,691.9765104374258
255,691.9663508721027
256,691.9558872504963
257,691.9451418164808
258,691.9341387372864
259,691.9229040833717
260,691.9114657993135
261,691.8998536642944
262,691.8880992396213
263,691.876235800077
264,691.8642982460472
265,691.8523229940467
266,691.8403478439403
267,691.8284118215619
268,691.8165549958356
269,691.8048182703819
270,691.7932431510277
271,691.7818714922232
272,691.7707452266476
273,691.7599060831103
274,691.7493952980868
275,691.7392533256863
276,691.7295195497812
277,691.7202320010388
278,691.7114270809966
279,691.7031392949451
280,691.6954009950018
281,691.6882421345433
282,691.6816900352673
283,691.6757691684459
284,691.6705009520601
285,691.6659035654843
286,691.6619917835653
287,691.6587768324523
288,691.6562662702243
289,691.6544638958252
290,691.653369689476
291,691.6529797863546
292,691.6532864835214
293,691.654278278808
294,691.6559399401684
295,691.6582526045557
296,691.6611939062221
297,691.6647381350581
298,691.6688564259699
299,691.673516980114
300,691.6786853180529
301,691.6843245639382
302,691.6903957589211
303,691.6968582009907
304,691.7036698071734
305,691.7107874928566
306,691.7181675624314
307,691.7257661056673
308,691.7335393949284
309,691.7414442790536
310,691.7494385702144
311,691.7574814203526
312,691.7655336839783
313,691.7735582640869
314,691.7815204376105
315,691.7893881563159
316,691.7971323187171
317,691.8047270085513
318,691.8121496956605
319,691.8193813957374
320,691.8264067862148
321,691.8332142764855
322,691.8397960315373
323,691.8461479490098
324,691.852269590606
325,691.8581640696528
326,691.8638378972859
327,691.8693007901329
328,691.8745654425845
329,691.8796472670267
330,691.8845641059628
331,691.8893359207183
332,691.8939844620613
333,691.898532928175
334,691.9030056148287
335,691.9074275616516
336,691.9118241978199
337,691.9162209906283
338,691.920643100856
339,691.9251150487305
340,691.9296603935002
341,691.9343014287234
342,691.9390588949958
343,691.9439517121041
344,691.9489967332946
345,691.9542085250538
346,691.95959917601
347,691.9651781379674
348,691.9709521008965
349,691.9769249025829
350,691.9830974731509
351,691.9894678147858
352,691.9960310172063
353,692.0027793093755
354,692.0097021476874
355,692.016786340719
356,692.0240162105669
357,692.0313737902651
358,692.0388390554078
359,692.0463901861829
360,692.0540038541715
361,692.0616555269104
362,692.0693197827297
363,692.076970628959
364,692.0845818178725
365,692.0921271558209
366,692.0995808014502
367,692.1069175491953
368,692.1141130949919
369,692.1211442821781
370,692.1279893260545
371,692.1346280151655
372,692.1410418863801
373,692.1472143700017
374,692.1531309008168
375,692.1587789912078
376,692.1641482631446
377,692.1692304371207
378,692.1740192777922
379,692.178510497691
380,692.1827016215607
381,692.1865918148741
382,692.1901816814454
383,692.1934730367799
384,692.1964686653457
385,692.1991720707506
386,692.201587227692
387,692.203718343689
388,692.2055696373526
389,692.2071451386827
390,692.2084485158019
391,692.2094829316661
392,692.2102509335118
393,692.2107543769359
394,692.210994385616
395,692.2109713470766
396,692.2106849446694
397,692.2101342256383
398,692.2093177042306
399,692.2082334971808
400,692.2068794869597
401,692.2052535065956
402,692.2033535390561
403,692.2011779241614
404,692.1987255666018
405,692.1959961395087
406,692.1929902787311
407,692.1897097632362
408,692.1861576770921
409,692.1823385488591
410,692.1782584652502
411,692.1739251574982
412,692.1693480604202
413,692.1645383451147
414,692.1595089263908
415,692.1542744456833
416,692.1488512296316
417,692.143257224083
418,692.1375119034111
419,692.131636155807
420,692.1256521462878
421,692.1195831603411
422,692.1134534322949
423,692.1072879634467
424,692.1011123352234
425,692.0949525221008
426,692.0888347081363
427,692.0827851102467
428,692.0768298107272
429,692.070994600683
430,692.0653048350473
431,692.0597852990792
432,692.054460085967
433,692.0493524853705
434,692.0444848830896
435,692.039878672156
436,692.035554175473
437,692.031530579991
438,692.0278258824744
439,692.0244568469953
440,692.0214389742563
441,692.0187864828729
442,692.016512302948
443,692.0146280824033
444,692.0131442063474
445,692.0120698294348
446,692.0114129212635
447,692.011180325594
448,692.0113778350982
449,692.0120102835959
450,692.0130816567881
451,692.014595220455
452,692.0165536624204
453,692.0189592416912
454,692.0218139356314
455,692.0251195747792
456,692.0288779556612
457,692.0330909243768
458,692.0377604265669
459,692.0428885216351
460,692.0484773608035
461,692.0545291304174
462,692.0610459640404
463,692.0680298287195
464,692.075482391709
465,692.0834048739854
466,692.0917978966017
467,692.1006613256172
468,692.1099941209309
469,692.1197941937363
470,692.1300582764817
471,692.1407818081321
472,692.1519588362971
473,692.1635819367126
474,692.1756421499041
475,692.188128934482
476,692.2010301362926
477,692.2143319726612
478,692.2280190314209
479,692.2420742852711
480,692.2564791228278
481,692.2712133979837
482,692.2862554985946
483,692.3015824343505
484,692.3171699426017
485,692.3329926103786
486,692.3490240108712
487,692.3652368530317
488,692.3816031434294
489,692.3980943596994
490,692.4146816349796
491,692.431335953127
492,692.4480283552778
493,692.4647301587979
494,692.481413189209
495,692.498050024334
496,692.5146142481985
497,692.531080710801
498,692.5474257890684
499,692.5636276439964
500,692.5796664686769
501,692.5955247212949
502,692.6111873364863
503,692.6266419083651
504,692.6418788394265
505,692.6568914511856
506,692.6716760543817
507,692.6862319786599
508,692.7005615634986
509,692.7146701132737
510,692.728565819532
511,692.7422596531525
512,692.7557652284946
513,692.7690986411853
514,692.7822782812467
515,692.795324624118
516,692.8082600034501
517,692.8211083707504
518,692.8338950478144
519,692.8466464783471
520,692.8593899851024
521,692.8721535382049
522,692.8849655393543
523,692.8978546255173
524,692.9108494943497
525,692.9239787518873
526,692.9372707811809
527,692.9507536287687
528,692.9644549043817
529,692.9784016882581
530,692.992620439913
531,693.0071369019382
532,693.0219759922096
533,693.0371616780182
534,693.0527168267571
535,693.0686630302796
536,693.0850204035064
537,693.1018073614133
538,693.1190403813155
539,693.1367337589071
540,693.1548993666933
541,693.1735464224026
542,693.1926812728574
543,693.2123071959244
544,693.2324242204301
545,693.2530289623888
546,693.2741144759214
547,693.2956701180851
548,693.3176814275697
549,693.3401300176594
550,693.3629934843854
551,693.386245331383
552,693.4098549134686
553,693.4337874014717
554,693.4580037716217
555,693.4824608238364
556,693.5071112344252
557,693.5319036494966
558,693.5567828248544
559,693.5816898160882
560,693.6065622195839
561,693.6313344623765
562,693.6559381367422
563,693.6803023743225
564,693.7043542543441
565,693.7280192410238
566,693.7512216461768
567,693.773885113769
568,693.7959331230207
569,693.8172895053511
570,693.8378789684116
571,693.8576276188342
572,693.8764634749808
573,693.8943169617987
574,693.911121381127
575,693.9268133517934
576,693.9413332144196
577,693.9546253964166
578,693.9666387336453
579,693.9773267465615
580,693.9866478699281
581,693.9945656364041
582,694.0010488158367
583,694.0060715137241
584,694.0096132333596
585,694.011658906189
586,694.012198894173
587,694.0112289669232
588,694.0087502553881
589,694.0047691829603
590,693.999297373918
591,693.9923515379351
592,693.9839533282819
593,693.9741291709167
594,693.9629100623023
595,693.9503313352058
596,693.9364323932856
597,693.9212564163662
598,693.9048500387468
599,693.8872630028357
600,693.8685477903649
601,693.8487592340916
602,693.8279541144138
603,693.8061907470684
604,693.7835285692539
605,693.7600277318164
606,693.7357487046772
607,693.7107519017179
608,693.685097330273
609,693.6588442694998
610,693.6320509811309
611,693.6047744552918
612,693.5770701931294
613,693.5489920268367
614,693.5205919760992
615,693.4919201381215
616,693.463024606562
617,693.4339514132703
618,693.4047444860399
619,693.3754456159647
620,693.346094429285
621,693.3167283603946
622,693.2873826246871
623,693.258090192204
624,693.2288817653634
625,693.1997857656521
626,693.1708283344076
627,693.1420333518968
628,693.113422477628
629,693.085015213798
630,693.0568289929572
631,693.028879290068
632,693.0011797580165
633,692.9737423845113
634,692.9465776673903
635,692.9196948047535
636,692.893101896045
637,692.866806150322
638,692.8408140984651
639,692.8151318067464
640,692.7897650894886
641,692.7647197183608
642,692.740001625489
643,692.7156170974076
644,692.6915729569298
645,692.6678767299891
646,692.6445367942711
647,692.6215625060989
648,692.5989643017047
649,692.5767537688799
650,692.554943685236
651,692.5335480199864
652,692.5125818972103
653,692.492061519687
654,692.4720040532663
655,692.4524274721987
656,692.43335036628
657,692.4147917116748
658,692.3967706089684
659,692.3793059939283
660,692.3624163281032
661,692.3461192774084
662,692.3304313869106
663,692.3153677589752
664,692.3009417400112
665,692.2871646189578
666,692.2740453391166
667,692.2615902242293
668,692.249802719576
669,692.2386831489345
670,692.2282284882435
671,692.2184321568474
672,692.209283827606
673,692.200769258073
674,692.1928701459957
675,692.1855640132751
676,692.1788241231524
677,692.1726194358433
678,692.1669146080678
679,692.1616700416914
680,692.1568419858369
681,692.1523826955552
682,692.1482406489497
683,692.1443608238116
684,692.1406850341057
685,692.1371523254234
686,692.133699426538
687,692.1302612520252
688,692.1267714494575
689,692.1231629841923
690,692.1193687546686
691,692.1153222308067
692,692.1109581076358
693,692.1062129660572
694,692.1010259327957
695,692.0953393317079
696,692.089099318202
697,692.0822564875292
698,692.0747664464585
699,692.0665903369005
700,692.0576953000583
701,692.0480548709849
702,692.0376492957854
703,692.0264657665936
704,692.0144985724913
705,692.0017491675582
706,691.9882261599699
707,691.9739452281281
708,691.9589289708796
709,691.9432066990356
710,691.9268141747486
711,691.9097933040003
712,691.892191785851
713,691.8740627208712
714,691.8554641806866
715,691.8364587405043
716,691.817112976335
717,691.7974969285277
718,691.7776835338404
719,691.7577480298417
720,691.7377673374776
721,691.7178194292869
722,691.6979826914321
723,691.6783352874518
724,691.658954530729
725,691.6399162714625
726,691.6212943028612
727,691.6031597907123
728,691.5855807302385
729,691.568621433696
730,691.5523420511802
731,691.5367981258452
732,691.522040183787
733,691.5081133586218
734,691.4950570512694
735,691.4829046262419
736,691.4716831465506
737,691.4614131502091
738,691.4521084722337
739,691.4437761168516
740,691.4364161849089
741,691.4300218609676
742,691.4245794632624
743,691.4200685577542
744,691.4164621353148
745,691.41372684913
746,691.4118233080926
747,691.4107064212448
748,691.4103257880093
749,691.4106261288512
750,691.4115477510335
751,691.413027044219
752,691.4149970006563
753,691.4173877544002
754,691.4201271336055
755,691.4231412199491
756,691.4263549100598
757,691.4296924752073
758,691.4330781169557
759,691.4364365177863
760,691.4396933866044
761,691.4427759990917
762,691.4456137318966
763,691.4481385882182
764,691.450285711183
765,691.4519938808864
766,691.4532059910756
767,691.4538695018687
768,691.4539368651419
769,691.4533659190116
770,691.4521202473741
771,691.4501694999921
772,691.4474896681697
773,691.4440633108544
774,691.4398797264806
775,691.4349350670154
776,691.4292323917638
777,691.4227816589255
778,691.4155996527358
779,691.4077098437305
780,691.3991421796505
781,691.389932805017
782,691.3801237086785
783,691.3697623006148
784,691.3589009215466
785,691.347596291105
786,691.3359089024945
787,691.3239023738776
788,691.3116427686372
789,691.2991978974633
790,691.2866366145745
791,691.274028118782
792,691.2614412682813
793,691.2489439164721
794,691.2366022747947
795,691.2244803073663
796,691.2126391611439
797,691.2011366346081
798,691.1900266875405
799,691.179358994333
800,691.1691785437444
801,691.1595252893134
802,691.150433856173
803,691.1419333107157
804,691.1340469991223
805,691.1267924594506
806,691.1201814100392
807,691.1142198145874
808,691.1089080219652
809,691.1042409772078
810,691.1002084992316
811,691.0967956199822
812,691.0939829784949
813,691.0917472619316
814,691.0900616846684
815,691.0888964961184
816,691.0882195076953
817,691.0879966287284
818,691.0881924006513
819,691.0887705192038
820,691.0896943358042
821,691.0909273309423
822,691.0924335538557
823,691.0941780240875
824,691.0961270922456
825,691.0982487594089
826,691.100512956508
827,691.1028917858345
828,691.1053597262216
829,691.1078938018253
830,691.1104737126353
831,691.1130819236852
832,691.115703709844
833,691.1183271541016
834,691.1209430989977
835,691.1235450528254
836,691.1261290542622
837,691.1286935010327
838,691.1312389498288
839,691.1337678955889
840,691.1362845381456
841,691.1387945435343
842,691.141304806643
843,691.1438232217176
844,691.1463584671923
845,691.1489198107914
846,691.1515169394302
847,691.1541598161923
848,691.156858564312
849,691.1596233764492
850,691.1624644468118
851,691.1653919234774
852,691.1684158782073
853,691.1715462908537
854,691.1747930451223
855,691.178165932124
856,691.1816746580457
857,691.185328852418
858,691.1891380737216
859,691.1931118091928
860,691.1972594655439
861,691.2015903471153
862,691.2061136181593
863,691.2108382467078
864,691.215772928607
865,691.220925991476
866,691.2263052794276
867,691.2319180205367
868,691.2377706804309
869,691.2438688069144
870,691.2502168719457
871,691.2568181183344
872,691.2636744188669
873,691.2707861547804
874,691.2781521185425
875,691.2857694435291
876,691.2936335614901
877,691.3017381879931
878,691.3100753358394
879,691.3186353561678
880,691.3274070064657
881,691.3363775440015
882,691.3455328423071
883,691.3548575275718
884,691.3643351317698
885,691.3739482603336
886,691.3836787736642
887,691.3935079828595
888,691.4034168603771
889,691.4133862660979
890,691.4233971884502
891,691.4334309988809
892,691.4434697165223
893,691.4534962791049
894,691.4634948160864
895,691.4734509199943
896,691.4833519116627
897,691.4931870944557
898,691.5029479922426
899,691.5126285663646
900,691.5222254082439
901,691.5317379059953
902,691.5411683845139
903,691.5505222187047
904,691.5598079190447
905,691.569037187868
906,691.5782249439565
907,691.5873893124591
908,691.5965515768991
909,691.6057360898709
910,691.6149701391804
911,691.6242837671523
912,691.6337095426848
913,691.6432822876626
914,691.6530387608431
915,691.6630173031081
916,691.6732574479847
917,691.6837995006276
