frame_number,force
0,692.8798300051972
1,692.8670295268996
2,692.8541626315583
3,692.8411635467551
4,692.8279677878747
5,692.8145127961503
6,692.8007385650584
7,692.7865882465642
8,692.7720087280829
9,692.7569511715723
10,692.7413715075688
11,692.7252308786997
12,692.7084960286153
13,692.6911396330873
14,692.6731405702493
15,692.6544841270139
16,692.6351621390528
17,692.6151730624058
18,692.5945219753947
19,692.5732205099877
20,692.5512867127457
21,692.5287448375188
22,692.5056250748132
23,692.4819632252701
24,692.4578003263842
25,692.4331822425688
26,692.4081592291135
27,692.3827854802024
28,692.3571186698015
29,692.3312194924796
30,692.3051512099312
31,692.2789792082825
32,692.2527705705982
33,692.2265936676695
34,692.2005177680526
35,692.1746126660391
36,692.1489483246671
37,692.1235945305858
38,692.0986205584516
39,692.0740948439052
40,692.0500846655841
41,692.0266558378858
42,692.0038724168688
43,691.981796421185
44,691.960487568435
45,691.9400030258765
46,691.9203971739221
47,691.9017213812746
48,691.8840237910949
49,691.8673491178345
50,691.8517384543909
51,691.8372290894354
52,691.8238543352935
53,691.8116433674687
54,691.8006210773399
55,691.7908079397046
56,691.7822198971841
57,691.7748682643518
58,691.7687596552295
59,691.7638959375864
60,691.7602742159054
61,691.757886842577
62,691.7567214550784
63,691.7567610364791
64,691.757983997478
65,691.7603642792603
66,691.763871476807
67,691.7684709818486
68,691.7741241442247
69,691.7807884506794
70,691.7884177211239
71,691.7969623237354
72,691.8063694114043
73,691.8165831823636
74,691.8275451668229
75,691.8391945392358
76,691.8514684535228
77,691.8643023972941
78,691.8776305612031
79,691.8913862202121
80,691.9055021236834
81,691.9199108905336
82,691.9345454048927
83,691.9493392076186
84,691.9642268797229
85,691.9791444146223
86,691.9940295766003
87,692.0088222430007
88,692.0234647276814
89,692.0379020831383
90,692.0520823787155
91,692.065956952953
92,692.0794806394972
93,692.0926119674211
94,692.1053133376176
95,692.1175511769658
96,692.1292960714894
97,692.1405228791683
98,692.151210822968
99,692.1613435650843
100,692.170909263709
101,692.1799006132939
102,692.188314868494
103,692.1961538511061
104,692.2034239385155
105,692.2101360314945
106,692.2163054989579
107,692.2219520975989
108,692.2270998646741
109,692.23177698195
110,692.2360156081357
111,692.2398516767969
112,692.2433246571454
113,692.2464772761089
114,692.249355201628
115,692.2520066891208
116,692.254482194933
117,692.2568339615322
118,692.259115578983
119,692.2613815267003
120,692.2636866996662
121,692.2660859243789
122,692.2686334709713
123,692.2713825684216
124,692.2743849295879
125,692.2776902922635
126,692.281345981704
127,692.2853964991275
128,692.2898831397417
129,692.294843643203
130,692.3003118790401
131,692.3063175692972
132,692.3128860505038
133,692.3200380771646
134,692.3277896688431
135,692.3361520019611
136,692.3451313456284
137,692.3547290390311
138,692.3649415071494
139,692.3757603123038
140,692.3871722406286
141,692.3991594239832
142,692.4116994983693
143,692.4247657997483
144,692.4383275976056
145,692.4523503659974
146,692.4667960912934
147,692.4816236152842
148,692.4967890114098
149,692.5122459903212
150,692.5279463289505
151,692.5438403153528
152,692.5598772005388
153,692.576005648593
154,692.59217417722
155,692.6083315820142
156,692.6244273388214
157,692.6404119793376
158,692.6562374356143
159,692.6718573498143
160,692.687227346567
161,692.7023052664842
162,692.7170513607223
163,692.7314284477819
164,692.7454020344528
165,692.7589404022685
166,692.7720146592144
167,692.7845987548246
168,692.7966694563601
169,692.8082062848354
170,692.8191914118318
171,692.8296095205109
172,692.8394476363635
173,692.8486949346437
174,692.8573425322413
175,692.865383272285
176,692.8728115101528
177,692.8796229095176
178,692.8858142562511
179,692.8913832962111
180,692.8963286001575
181,692.900649455871
182,692.9043457851649
183,692.9074180827321
184,692.9098673744348
185,692.9116951941161
186,692.912903579643
187,692.9134950899211
188,692.9134728445357
189,692.9128405868876
190,692.9116027709322
191,692.9097646710658
192,692.9073325139307
193,692.9043136296228
194,692.9007166181857
195,692.8965515260916
196,692.8918300274563
197,692.8865656062644
198,692.8807737382488
199,692.8744720731696
200,692.8676806191669
201,692.86042193037
202,692.8527212972267
203,692.8446069366714
204,692.8361101771746
205,692.8272656325504
206,692.818111357861
207,692.8086889801801
208,692.799043796333
209,692.7892248299055
210,692.7792848415498
211,692.769280289383
212,692.7592712385937
213,692.749321220305
214,692.7394970398677
215,692.7298685351724
216,692.7205082864729
217,692.7114912799441
218,692.7028945274475
219,692.6947966450693
220,692.6872773931858
221,692.6804171809598
222,692.6742965382605
223,692.6689955582074
224,692.6645933137962
225,692.6611672520734
226,692.6587925691285
227,692.6575415691465
228,692.6574830110656
229,692.6586814468545
230,692.661196555763
231,692.6650824789782
232,692.670387159098
233,692.6771516892246
234,692.6854096777736
235,692.6951866371464
236,692.706499406505
237,692.7193556203933
238,692.7337532356863
239,692.7496801294379
240,692.7671137798402
241,692.7860210416922
242,692.8063580262649
243,692.8280700930222
244,692.8510919575883
245,692.875347917235
246,692.9007521923919
247,692.927209380416
248,692.9546150162945
249,692.982856234251
250,693.0118125241311
251,693.0413565764401
252,693.0713552095178
253,693.1016703713021
254,693.1321602064909
255,693.1626801780278
256,693.1930842301874
257,693.2232259794105
258,693.2529599186981
259,693.2821426219795
260,693.3106339362138
261,693.3382981502041
262,693.3650051290931
263,693.3906314018612
264,693.4150611867301
265,693.4381873378746
266,693.459912197419
267,693.4801483392934
268,693.4988191953473
269,693.5158595583023
270,693.5312159599273
271,693.544846925625
272,693.5567231082267
273,693.566827304713
274,693.5751543603491
275,693.5817109653167
276,693.5865153491444
277,693.5895968781548
278,693.5909955609897
279,693.590761467283
280,693.588954065157
281,693.5856414847276
282,693.5808997167928
283,693.5748117574134
284,693.5674667096488
285,693.5589588535204
286,693.5493866948464
287,693.5388520030936
288,693.5274588475693
289,693.5153126401251
290,693.5025191915014
291,693.4891837879287
292,693.4754102946927
293,693.4613002940766
294,693.4469522662596
295,693.4324608227656
296,693.417916002261
297,693.4034026376034
298,693.3889998013055
299,693.3747803343339
300,693.360810460837
301,693.3471494894179
302,693.3338496003777
303,693.3209557179513
304,693.3085054663578
305,693.2965292077483
306,693.2850501587571
307,693.2740845810487
308,693.2636420405737
309,693.25372573004
310,693.2443328489722
311,693.2354550357614
312,693.2270788464658
313,693.2191862755128
314,693.2117553133456
315,693.2047605355834
316,693.1981737179077
317,693.1919644706584
318,693.1861008865936
319,693.1805501944876
320,693.1752794109499
321,693.1702559835774
322,693.1654484199835
323,693.1608268987128
324,693.1563638588507
325,693.1520345647352
326,693.1478176407179
327,693.143695569526
328,693.139655147577
329,693.1356878916297
330,693.131790392603
331,693.1279646134785
332,693.1242181287262
333,693.1205643027979
334,693.1170224052105
335,693.1136176595928
336,693.1103812236844
337,693.1073500965665
338,693.1045669485488
339,693.1020798687662
340,693.0999420264509
341,693.0982112440054
342,693.0969494824159
343,693.0962222415005
344,693.0960978792972
345,693.0966468570808
346,693.0979409187839
347,693.1000522152693
348,693.1030523848611
349,693.1070116024235
350,693.1119976105558
351,693.1180747476195
352,693.1253029872848
353,693.1337370027576
354,693.1434252667318
355,693.1544091966882
356,693.1667223549055
357,693.1803897129661
358,693.1954269909985
359,693.2118400822362
360,693.2296245736806
361,693.2487653733887
362,693.2692364536293
363,693.2910007166074
364,693.3140099858956
365,693.338205122758
366,693.3635162629215
367,693.3898631664227
368,693.4171556709556
369,693.4452942376861
370,693.474170578041
371,693.5036683506211
372,693.533663918801
373,693.5640271610566
374,693.5946223269247
375,693.6253089314157
376,693.6559426799213
377,693.6863764150164
378,693.7164610767232
379,693.7460466687087
380,693.774983224087
381,693.8031217654675
382,693.8303152540938
383,693.8564195222394
384,693.8812941819326
385,693.9048035020797
386,693.9268172455616
387,693.9472114585386
388,693.9658692062966
389,693.9826812525495
390,693.9975466807969
391,694.0103734566742
392,694.0210789299296
393,694.0295902744866
394,694.0358448653026
395,694.0397905914127
396,694.0413861055576
397,694.0406010116585
398,694.0374159914608
399,694.0318228707839
400,694.0238246247337
401,694.0134353207233
402,694.0006799983099
403,693.985594485505
404,693.9682251525464
405,693.9486286061493
406,693.9268713291528
407,693.9030292711948
408,693.8771873953572
409,693.8494391845959
410,693.8198861114433
411,693.7886370753351
412,693.7558078131748
413,693.7215202894971
414,693.6859020727583
415,693.649085704414
416,693.611208067569
417,693.5724097614872
418,693.5328344867687
419,693.4926284438096
420,693.4519397446703
421,693.4109178360735
422,693.369712929575
423,693.3284754345013
424,693.2873553897821
425,693.2465018917778
426,693.2060625166343
427,693.1661827377576
428,693.1270053411265
429,693.0886698425445
430,693.0513119114432
431,693.0150628056858
432,692.9800488210308
433,692.9463907577788
434,692.9142034063428
435,692.8835950536654
436,692.8546670134347
437,692.8275131842394
438,692.8022196405279
439,692.7788642610919
440,692.7575163985964
441,692.7382365918876
442,692.721076321439
443,692.7060778080278
444,692.6932738552672
445,692.6826877370619
446,692.6743331306594
447,692.668214094887
448,692.6643250923959
449,692.6626510550713
450,692.6631674927727
451,692.6658406461938
452,692.6706276843029
453,692.6774769455437
454,692.6863282201768
455,692.6971130698835
456,692.7097551812183
457,692.7241707515927
458,692.7402689086817
459,692.7579521651088
460,692.7771169099708
461,692.797653937861
462,692.8194490149443
463,692.8423834805202
464,692.8663348814752
465,692.8911776359828
466,692.9167837217433
467,692.9430233833168
468,692.969765852957
469,692.9968800796222
470,693.0242354611028
471,693.051702574181
472,693.0791538973264
473,693.1064645196616
474,693.1335128292965
475,693.1601811742049
476,693.1863564895516
477,693.2119308859822
478,693.2368021936503
479,693.2608744571826
480,693.2840583776027
481,693.3062716981195
482,693.3274395315935
483,693.3474946288004
484,693.3663775880316
485,693.3840370073879
486,693.4004295811478
487,693.41552014139
488,693.429281646358
489,693.4416951182785
490,693.4527495349432
491,693.4624416800943
492,693.4707759567357
493,693.477764165554
494,693.4834252487602
495,693.4877849984115
496,693.4908757277925
497,693.4927359046401
498,693.4934097455998
499,693.4929467718837
500,693.4914013266492
501,693.4888320554669
502,693.4853013523928
503,693.4808747752417
504,693.4756204344271
505,693.4696083604605
506,693.4629098562026
507,693.4555968412404
508,693.4477411971314
509,693.4394141233313
510,693.4306855137911
511,693.4216233632102
512,693.412293210481
513,693.4027576259807
514,693.3930757491468
515,693.3833028825111
516,693.3734901475975
517,693.3636842069618
518,693.3539270552179
519,693.3442558800607
520,693.334702992301
521,693.325295822098
522,693.3160569768712
523,693.30700435476
524,693.2981513064755
525,693.2895068384838
526,693.2810758515157
527,693.2728594096927
528,693.2648550365703
529,693.2570570349541
530,693.2494568276161
531,693.2420433162315
532,693.2348032559931
533,693.2277216432334
534,693.2207821129956
535,693.2139673432583
536,693.2072594625117
537,693.2006404570407
538,693.1940925731379
539,693.1875987080844
540,693.1811427831701
541,693.1747100927489
542,693.1682876247785
543,693.1618643496115
544,693.1554314743538
545,693.1489826599909
546,693.1425141985849
547,693.1360251490962
548,693.129517432623
549,693.1229958897493
550,693.1164683030872
551,693.1099453870233
552,693.1034407452163
553,693.0969707957489
554,693.0905546645838
555,693.08421404968
556,693.0779730596562
557,693.0718580313069
558,693.0658973297074
559,693.0601211338468
560,693.0545612102273
561,693.049250676746
562,693.0442237593021
563,693.0395155437219
564,693.0351617255131
565,693.0311983596307
566,693.0276616120497
567,693.0245875146206
568,693.0220117243376
569,693.0199692877719
570,693.0184944113045
571,693.017620238128
572,693.0173786335673
573,693.0177999807296
574,693.01891298872
575,693.0207445154755
576,693.0233194062054
577,693.0266603463773
578,693.0307877259912
579,693.0357195107371
580,693.0414711159971
581,693.0480552810016
582,693.0554819420527
583,693.0637581050861
584,693.0728877188268
585,693.082871550472
586,693.0937070662955
587,693.1053883198368
588,693.1179058505097
589,693.1312465957504
590,693.145393820381
591,693.1603270675593
592,693.1760221361175
593,693.192451088795
594,693.2095822948347
595,693.227380508903
596,693.2458069865966
597,693.2648196351678
598,693.2843731968455
599,693.3044194614683
600,693.3249075050518
601,693.3457839513486
602,693.3669932545027
603,693.3884780022308
604,693.4101792395048
605,693.4320368114332
606,693.4539897210458
607,693.4759764942684
608,693.4979355422423
609,693.5198055114355
610,693.5415256144619
611,693.5630359377551
612,693.5842777247358
613,693.6051936343471
614,693.6257279751541
615,693.6458269152548
616,693.6654386685434
617,693.6845136585993
618,693.7030046622393
619,693.7208669347585
620,693.7380583177813
621,693.7545393290079
622,693.7702732317954
623,693.785226081873
624,693.7993667485198
625,693.8126669082126
626,693.8251010101086
627,693.8366462144546
628,693.8472823065396
629,693.8569915897476
630,693.8657587616865
631,693.8735707775367
632,693.8804167049776
633,693.8862875753156
634,693.891176235595
635,693.8950772065056
636,693.8979865509907
637,693.8999017586373
638,693.9008216509162
639,693.9007463120241
640,693.8996770496101
641,693.8976163890233
642,693.8945681032698
643,693.8905372781314
644,693.8855304083235
645,693.8795555174232
646,693.8726222928539
647,693.8647422277318
648,693.8559287629377
649,693.8461974240944
650,693.8355659489303
651,693.8240544011995
652,693.8116852680018
653,693.7984835374585
654,693.7844767531873
655,693.7696950415905
656,693.7541711082955
657,693.7379402010304
658,693.7210400373847
659,693.7035106972709
660,693.6853944817682
661,693.6667357422626
662,693.6475806854681
663,693.6279771599526
664,693.6079744282238
665,693.5876229266174
666,693.5669740145369
667,693.5460797150207
668,693.5249924490174
669,693.5037647652633
670,693.4824490666347
671,693.4610973332931
672,693.439760843389
673,693.4184898931076
674,693.3973335188422
675,693.3763392252529
676,693.3555527241301
677,693.335017690135
678,693.3147755399339
679,693.2948652404344
680,693.2753231499569
681,693.2561828940353
682,693.2374752757717
683,693.2192282192896
684,693.2014667438219
685,693.1842129657019
686,693.1674861263497
687,693.1513026458479
688,693.1356762030389
689,693.1206178438296
690,693.1061361195976
691,693.0922372572269
692,693.07892536132
693,693.0662026477852
694,693.0540697066178
695,693.0425257905426
696,693.0315691253879
697,693.0211972376875
698,693.0114072949622
699,693.0021964540479
700,692.9935622122247
701,692.9855027546029
702,692.9780172896462
703,692.9711063635624
704,692.9647721440484
705,692.9590186645404
706,692.9538520214575
707,692.9492805189029
708,692.9453147578591
709,692.941967669705
710,692.9392544962411
711,692.937192719856
712,692.9358019480458
713,692.9351037567426
714,692.9351214973482
715,692.9358800730583
716,692.9374056905343
717,692.9397255928056
718,692.9428677785096
719,692.9468607115165
720,692.951733024037
721,692.9575132158981
722,692.9642293531767
723,692.9719087708186
724,692.9805777856611
725,692.990261427326
726,693.0009831937405
727,693.0127648358094
728,693.0256261732885
729,693.0395849421631
730,693.0546566727539
731,693.0708545968357
732,693.0881895809753
733,693.1066700821633
734,693.1263021209074
735,693.147089266531
736,693.169032629601
737,693.1921308571831
738,693.2163801278448
739,693.2417741447632
740,693.2683041269438
741,693.2959588003806
742,693.3247243923457
743,693.3545846321446
744,693.385520760856
745,693.41751155156
746,693.4505333404888
747,693.4845600680472
748,693.519563326817
749,693.5555124123607
750,693.5923743726504
751,693.6301140531866
752,693.6686941365786
753,693.7080751768507
754,693.7482156297211
755,693.7890718804823
756,693.8305982711089
757,693.8727471281633
758,693.9154687931435
759,693.9587116569792
760,694.0024222000944
761,694.0465450386828
762,694.0910229769634
763,694.1357970648622
764,694.1808066608854
765,694.2259895004235
766,694.2712817698126
767,694.3166181859503
768,694.3619320803086
769,694.4071554854066
770,694.4522192216784
771,694.4970529831165
772,694.5415854206611
773,694.5857442229553
774,694.6294561950377
775,694.6726473368344
776,694.7152429247103
777,694.757167600751
778,694.7983454758541
779,694.8387002537889
780,694.8781553835839
781,694.9166342466242
782,694.9540603828642
783,694.9903577581831
784,695.0254510728811
785,695.0592661100543
786,695.0917301216716
787,695.1227722488904
788,695.1523239714111
789,695.1803195792894
790,695.2066966603975
791,695.2313965974369
792,695.2543650689693
793,695.275552548466
794,695.2949147942151
795,695.3124133220625
796,695.3280158527566
797,695.3416967257402
798,695.3534372713028
799,695.3632261331551
800,695.3710595340124
801,695.3769414779957
802,695.3808838856
803,695.3829066590488
804,695.3830376774383
805,695.381312722281
806,695.3777753354044
807,695.3724766126793
808,695.3654749382866
809,695.3568356650135
810,695.3466307466459
811,695.3349383290392
812,695.3218423066396
813,695.307431850776
814,695.2918009149632
815,695.2750477210265
816,695.2572742283577
817,695.2385855873856
818,695.2190895777978
819,695.1988960323214
820,695.1781162476524
821,695.1568623851904
822,695.135246865534
823,695.1133817618864
824,695.0913781979409
825,695.0693457552186
826,695.0473918935987
827,695.0256213873912
828,695.0041357779932
829,694.9830328431365
830,694.9624060822304
831,694.9423442175294
832,694.9229307118566
833,694.9042433052197
834,694.8863535745998
835,694.8693265231436
836,694.8532202064165
837,694.8380854036851
838,694.8239653411474
839,694.810895471851
840,694.798903314339
841,694.7880083495388
842,694.7782219737242
843,694.7695475048827
844,694.7619802404096
845,694.7555075651427
846,694.7501091097004
847,694.7457569595483
848,694.7424159151591
849,694.7400438029558
850,694.7385918352884
851,694.7380050156593
852,694.7382225835078
853,694.7391784918404
854,694.7408019110571
855,694.7430177529563
856,694.7457472093872
857,694.7489083000875
858,694.7524164244089
859,694.7561849125477
860,694.7601255737092
861,694.7641492408239
862,694.7681663133633
863,694.772087300996
864,694.7758233709194
865,694.7792869005563
866,694.7823920354082
867,694.7850552500427
868,694.7871959089845
869,694.788736823492
870,694.789604799354
871,694.7897311696968
872,694.7890523055469
873,694.7875100961251
874,694.785052391109
875,694.781633398165
876,694.7772140297069
877,694.7717621922559
878,694.7652530107368
879,694.7576689802596
880,694.7490000400225
881,694.7392435669609
882,694.7284042893533
883,694.7164941224246
884,694.7035319296111
885,694.6895432150598
886,694.6745597548311
887,694.6586191754385
888,694.641764488611
889,694.6240435909823
890,694.6055087371507
891,694.5862159942894
892,694.5662246862992
893,694.5455968351941
894,694.5243966065293
895,694.5026897642529
896,694.4805431392429
897,694.4580241154435
898,694.4352001376326
899,694.4121382452121
900,694.3889046373329
901,694.3655642761455
902,694.3421805361603
903,694.3188149076644
904,694.2955267606652
905,694.2723731733299
906,694.2494088258277
907,694.2266859571893
908,694.2042543798386
909,694.1821615446692
910,694.1604526493877
911,694.1391707837804
912,694.1183571065195
913,694.0980510484205
914,694.0782905366161
915,694.0591122332951
916,694.0405517818637
917,694.022644052862
