acceleration,velocity,displacement
-0.018044299122267248,0.0,0.0
-0.01935108015399166,-9.348844819064727e-06,-2.337211204766182e-09
-0.02065403231769534,-1.935012293698648e-05,-9.511953143778985e-09
-0.021949344550452873,-3.0000967154023535e-05,-2.1849725666531492e-08
-0.023233241263459277,-4.129661360750157e-05,-3.9674120856912766e-08
-0.02450199974266506,-5.323042385903266e-05,-6.330588022354633e-08
-0.0257519671556973,-6.579391558362325e-05,-9.30619650842103e-08
-0.026979577046482777,-7.897680163416828e-05,-1.292546443886582e-07
-0.02818136520381045,-9.276703719674159e-05,-1.7219060409638566e-07
-0.02935398479672105,-0.00010715087469687446,-2.2217008206978965e-07
-0.030494220683031165,-0.00012211292606681252,-2.794860322607114e-07
-0.031599002816658533,-0.00013763623194173495,-3.444233217628483e-07
-0.03266541870028414,-0.0001537023373209706,-4.172579640785247e-07
-0.03369072484843614,-0.00017029137320815068,-4.98256391710805e-07
-0.03467235724176568,-0.00018738214373070113,-5.87674770945518e-07
-0.03560794076689956,-0.00020495221823286743,-6.857583614364101e-07
-0.03649529764975076,-0.00022297802783703002,-7.927409229538845e-07
-0.037332454900789534,-0.0002414349659746651,-9.088441714068083e-07
-0.03811765079165332,-0.0002602974923977758,-1.0342772859999187e-06
-0.038849340370775344,-0.000279539240188383,-1.1692364691464584e-06
-0.0395262000098375,-0.0002991331252835362,-1.313904560514438e-06
-0.04014713096498344,-0.00031905145802724145,-1.4684507063421324e-06
-0.04071126193755688,-0.00033926605625287656,-1.6330300849121619e-06
-0.041217950617065874,-0.0003597483593915322,-1.8077836888232641e-06
-0.04166678417714485,-0.0003804695430900849,-1.9928381644436684e-06
-0.04205757868012818,-0.00040140063380440317,-2.1883057086672903e-06
-0.042390377336895754,-0.00042251262280865913,-2.394284022820556e-06
-0.04266544756504921,-0.0004437765790341454,-2.610856323281257e-06
-0.0428832767871751,-0.00046516376012220145,-2.838091408070344e-06
-0.043044566917185015,-0.00048664572104829145,-3.0760437783629672e-06
-0.04315022750425809,-0.0005081944196536522,-3.3247538135384533e-06
-0.04320136753944026,-0.0005297823184145768,-3.5842479980555105e-06
-0.04319928597093075,-0.0005513824817921696,-3.854539198107197e-06
-0.04314546101090956,-0.0005729686685376297,-4.135626985689647e-06
-0.04304153834198001,-0.0005945154183758522,-4.427498007418018e-06
-0.04288931834333789,-0.0006159981325471817,-4.730126395148776e-06
-0.04269074246063608,-0.0006373931477481751,-5.043474215222616e-06
-0.042447878846345245,-0.0006586778030749205,-5.36749195292839e-06
-0.04216290740166631,-0.0006798304996369234,-5.702119028606351e-06
-0.041838104354417635,-0.0007008307525759444,-6.047284341659568e-06
-0.04147582650711322,-0.0007216592352913271,-6.402906838626386e-06
-0.04107849528474765,-0.0007422978157392924,-6.76889610138404e-06
-0.04064858070344726,-0.0007627295847363411,-7.145152951502949e-06
-0.04018858537235552,-0.0007829388762552918,-7.531570066750857e-06
-0.03970102863465028,-0.0008029112797570433,-7.92803260575394e-06
-0.039188430948587455,-0.0008226336446528527,-8.334418836856414e-06
-0.03865329860336469,-0.0008420940770408408,-8.750600767279837e-06
-0.03809810885811251,-0.0008612819289062101,-9.1764447687666e-06
-0.03752529558655351,-0.0008801877800173766,-9.611812195997496e-06
-0.03693723550145031,-0.0008988034127893775,-1.0056559994199185e-05
-0.036336235018016215,-0.0009171217804192442,-1.051054129250134e-05
-0.035724517798523724,-0.0009351369686233792,-1.0973605979761995e-05
-0.035104213013206806,-0.0009528441513263118,-1.1445601259749418e-05
-0.034477344362426415,-0.0009702395406702201,-1.1926372182748551e-05
-0.033845819927040575,-0.0009873203317425868,-1.2415762150851753e-05
-0.033211422935319986,-0.0010040846424581769,-1.2913613394401944e-05
-0.032575803545199344,-0.0010205314490783067,-1.3419767417286065e-05
-0.03194047173654913,-0.0010366605178987439,-1.3934065409030327e-05
-0.031306791391521496,-0.0010524723336807615,-1.4456348621925202e-05
-0.0306759756177973,-0.001067968025433091,-1.4986458711703665e-05
-0.03004908334707215,-0.0010831492901743085,-1.5524238040605516e-05
-0.029427017223826114,-0.001098018315317033,-1.6069529941978353e-05
-0.028810522787462694,-0.0011125777003198553,-1.6622178945887575e-05
-0.028200188942385677,-0.0011268303782523174,-1.7182030965530618e-05
-0.027596449703169528,-0.0011407795379137062,-1.7748933444572123e-05
-0.02699958719238972,-0.001154428547137596,-1.8322735465834947e-05
-0.026409735852357917,-0.001167780877898783,-1.890328782209404e-05
-0.025826887808906948,-0.0011808400338140991,-1.9490443050022262e-05
-0.02525089930164587,-0.0011936094805917374,-2.0084055428623723e-05
-0.024681498078806097,-0.0012060925799368505,-2.068398094375587e-05
-0.02411829164568198,-0.0012182925273679726,-2.1290077220582076e-05
-0.023560776245857475,-0.0012302122943408575,-2.190220342600928e-05
-0.0230083464416736,-0.0012418545750127402,-2.252022014334768e-05
-0.02246030515320034,-0.0012532217379114588,-2.314398922157873e-05
-0.02191587402048022,-0.001264315782704879,-2.3773373601732813e-05
-0.021374203968567613,-0.001275138302202141,-2.4408237122959567e-05
-0.020834385872539028,-0.0012856904496624177,-2.5048444310925706e-05
-0.02029546123890152,-0.001295972911440278,-2.569386015120138e-05
-0.01975643284250623,-0.00130598588496063,-2.634434985030161e-05
-0.019216275283391815,-0.0013157290619921044,-2.699977858703979e-05
-0.018673945449360078,-0.0013252016171752925,-2.766001125683164e-05
-0.018128392877776855,-0.0013344022017570767,-2.8324912211564734e-05
-0.017578570000481335,-0.0013433289424766412,-2.8994344997623162e-05
-0.017023442236046397,-0.001351979445535773,-2.9668172094626267e-05
-0.016461997874979845,-0.0013603508055635297,-3.0346254657401093e-05
-0.015893257691452518,-0.0013684396194551377,-3.102845226365576e-05
-0.015316284209022386,-0.0013762420049302565,-3.171462266975211e-05
-0.01473019054394539,-0.0013837536236184984,-3.24046215768893e-05
-0.014134148743896952,-0.001390969708440459,-3.309830240990404e-05
-0.013527397532155518,-0.001397885095009472,-3.379551611076652e-05
-0.01290924936092852,-0.001404494256732743,-3.449611094870207e-05
-0.012279096675796162,-0.0014107913432419242,-3.519993234869574e-05
-0.011636417298502422,-0.0014167702217354988,-3.590682273994009e-05
-0.01098077884840196,-0.0014224245207722249,-3.661662142556702e-05
-0.010311842140138996,-0.0014277476760193601,-3.732916447476492e-05
-0.00962936351092202,-0.0014327329774321254,-3.804428463812779e-05
-0.008933196043759072,-0.0014373736173207956,-3.876181128681602e-05
-0.008223289668659093,-0.0014416627387489002,-3.948157037583344e-05
-0.007499690147240359,-0.001445593483702875,-4.020338443144639e-05
-0.006762536974092014,-0.0014491590404832081,-4.092707256249291e-05
-0.00601206024728868,-0.0014523526897885534,-4.165245049506085e-05
-0.005248576560868751,-0.0014551678489905927,-4.237933062975564e-05
-0.004472483960749603,-0.0014575981141209972,-4.3107522120533534e-05
-0.0036842559979322403,-0.0014596372991106676,-4.383683097384145e-05
-0.002884434918624561,-0.0014612794718398068,-4.456706016657907e-05
-0.0020736240503562296,-0.001462518986582052,-4.5298009781184535e-05
-0.0012524794706492983,-0.0014633505124623035,-4.6029477155945624e-05
-0.00042170107329374766,-0.0014637690575982892,-4.676125704846077e-05
0.000417976828582637,-0.001463769988659467,-4.749314181002521e-05
0.0012657952057345918,-0.0014633490456508877,-4.82249215686028e-05
0.0021209801550684903,-0.001462502351810687,-4.895638441796819e-05
0.002982752710508551,-0.0014612264185942928,-4.9687316610569434e-05
0.0038503384525245795,-0.0014595181458035345,-5.041750275166889e-05
0.004722976744963515,-0.0014573748170041625,-5.1146725992370815e-05
0.005599929423006025,-0.00145479409046217,-5.18747682192374e-05
0.006480488754575331,-0.0014517739859177747,-5.2601410238332386e-05
0.007363984509911132,-0.001448312867601653,-5.332643195171224e-05
0.008249790006057198,-0.001444409423972661,-5.404961252460582e-05
0.009137327040676463,-0.0014400626447109775,-5.477073054177673e-05
0.010026069680824897,-0.0014352717955306022,-5.548956415183713e-05
0.010915546914117832,-0.0014300363913818666,-5.620589119856524e-05
0.011805344196357016,-0.0014243561686042479,-5.691948933856177e-05
0.012695103944124184,-0.0014182310565691275,-5.763013614485512e-05
0.013584525030311524,-0.0014116611493255186,-5.833760919632878e-05
0.014473361351583754,-0.0014046466777300447,-5.904168615309267e-05
0.015361419551823937,-0.0013971879825041928,-5.974214481815123e-05
0.016248556003146307,-0.0013892854886154503,-6.043876318593114e-05
0.017134673161268633,-0.0013809396813243466,-6.113131947841609e-05
0.01801971542011753,-0.001372151084179,-6.181959216979192e-05
0.018903664586096162,-0.0013629202391774466,-6.250336000063103e-05
0.019786535071317335,-0.0013532476892630933,-6.318240198274115e-05
0.02066836887338089,-0.0013431339632769188,-6.385649739587616e-05
0.021549230387709915,-0.001332579563461646,-6.45254257775608e-05
0.02242920110474351,-0.0013215849555885326,-6.518896690732335e-05
0.023308374272553112,-0.0013101505617442084,-6.584690078665654e-05
0.02418684963048769,-0.0012982767557684482,-6.64990076160347e-05
0.025064728321634294,-0.0012859638612804176,-6.714506777029692e-05
0.025942108073120546,-0.001273212152181729,-6.778486177366245e-05
0.02681907870865324,-0.0012600218554862854,-6.841817027557945e-05
0.027695718039095093,-0.0012463931562993484,-6.904477402852586e-05
0.028572088165974056,-0.001232326204748081,-6.966445386878772e-05
0.0294482322235819,-0.0012178211246506921,-7.027699070113741e-05
0.030324171571251942,-0.0012028780237019836,-7.088216548822557e-05
0.031199903428045173,-0.0011874970049521594,-7.14797592453891e-05
0.03207539892314135,-0.0011716781793643628,-7.206955304146823e-05
0.03295060152042523,-0.0011554216792534712,-7.265132800612269e-05
0.03382542576410398,-0.001138727672432339,-7.322486534404414e-05
0.034699756282687635,-0.001121596376920641,-7.378994635638239e-05
0.03557344698317819,-0.0011040280761041746,-7.43463524696386e-05
0.03644632037095662,-0.001086023134265641,-7.489386527223105e-05
0.03731816694875249,-0.0010675820124357136,-7.54322665589064e-05
0.0381887446754855,-0.001048705284529654,-7.596133838314774e-05
0.039057778484899094,-0.001029393653739558,-7.648086311771505e-05
0.039924959859612634,-0.00100964796915343,-7.699062352343829e-05
0.040789946433492354,-0.0009894692425801539,-7.749040282637168e-05
0.04165236157728384,-0.0009688586655774599,-7.797998480341108e-05
0.042511793927971116,-0.0009478176267011462,-7.845915387648073e-05
0.0433677968497083,-0.0009263477290067263,-7.89276952154077e-05
0.04421988784658906,-0.0009044508078326519,-7.938539484961755e-05
0.045067547968536965,-0.0008821289488788704,-7.983203978879543e-05
0.045910221255137426,-0.0008593845065729518,-8.026741815265838e-05
0.04674731425526369,-0.0008362201226953515,-8.069131930997546e-05
0.04757819565402111,-0.0008126387452180304,-8.110353402695381e-05
0.048402196035232686,-0.0007886436472957169,-8.150385462508225e-05
0.049218607802361335,-0.0007642384463363184,-8.189207514849025e-05
0.050026685273979375,-0.0007394271230672332,-8.226799154084114e-05
0.05082564496594091,-0.0007142140405072532,-8.263140183173476e-05
0.05161466606938288,-0.0006886039627484222,-8.298210633254868e-05
0.052392891125932324,-0.0006626020734495934,-8.331990784159818e-05
0.053159426891107364,-0.0006362139939453334,-8.364461185844691e-05
0.05391334537227981,-0.0006094458008794867,-8.395602680715312e-05
0.05465368503281974,-0.0005823040432782118,-8.425396426819254e-05
0.05537945216721108,-0.0005547957589782041,-8.453823921875664e-05
0.05608962247247537,-0.0005269284903182826,-8.480867028108077e-05
0.05678314287026425,-0.0004987102989825977,-8.506507997840599e-05
0.057458933665080654,-0.0004701497798487614,-8.530729499811383e-05
0.058115891140462915,-0.00044125607364737553,-8.553514646148786e-05
0.05875289068419401,-0.0004120388781912113,-8.574847019944751e-05
0.05936879050287787,-0.00038250845789444333,-8.594710703346893e-05
0.05996243595580425,-0.0003526756512797728,-8.613090306076248e-05
0.060532664520376034,-0.0003225518761607277,-8.629970994262262e-05
0.06107831139212397,-0.0002921491321826027,-8.645338519470845e-05
0.06159821570857525,-0.0002614800004074279,-8.659179247785596e-05
0.06209122736310442,-0.000230557639639508,-8.67148018878677e-05
0.06255621434991065,-0.00019939577921125422,-8.682229024258038e-05
0.06299207056160167,-0.00016800870798337614,-8.691414136437904e-05
0.06339772394593902,-0.00013641125935649097,-8.699024635621401e-05
0.06377214491685412,-0.00010461879214079269,-8.705050386908833e-05
0.06411435490820099,-7.264716718452891e-05,-8.709482035891966e-05
0.06442343495492187,-4.0512719718748196e-05,-8.712311033064548e-05
0.0646985341799626,-8.232227435027082e-06,-8.713529656743393e-05
0.0649388780528921,2.4177125623186592e-05,-8.713131034288689e-05
0.06514377626892244,5.669778920364023e-05,-8.711109161418018e-05
0.0653126300817147,8.931189079129951e-05,-8.707458919418144e-05
0.06544493892008912,0.00012200128304175046,-8.702176090072317e-05
0.06554030613519496,0.0001547475943055715,-8.695257368138635e-05
0.0655984437582779,0.00018753228177893972,-8.686700371236522e-05
0.06561917618584445,0.00022033668676497032,-8.676503647022925e-05
0.06560244273391101,0.0002531420914949092,-8.664666677566427e-05
0.06554829901729178,0.0002859297769327099,-8.651189880855737e-05
0.06545691712800016,0.0003186810809690329,-8.636074609408194e-05
0.06532858461853416,0.00035137745640566645,-8.619323145973826e-05
0.0651637023362423,0.00038400052814436056,-8.600938696360075e-05
0.06496278119146709,0.0004165321490262879,-8.580925379430808e-05
0.06472643796337459,0.00044895445381499833,-8.559288214359776e-05
0.06445539025031986,0.0004812499108684219,-8.53603310524269e-05
0.06415045066261026,0.0005134013710966544,-8.511166823193562e-05
0.06381252034443004,0.0005453921138484144,-8.484696986069935e-05
0.06344258190603703,0.0005772058894110312,-8.45663203598845e-05
0.06304169185194036,0.0006088269578505255,-8.426981214806911e-05
0.06261097260407454,0.0006402401239645292,-8.395754537761534e-05
0.06215160423423155,0.0006714307681741057,-8.362962765458068e-05
0.06166481602903567,0.0007023848732399226,-8.328617374422716e-05
0.06115187800935279,0.0007330890467495196,-8.29273052642298e-05
0.06061409251569671,0.000763530539380782,-8.255315036769722e-05
0.06005278595604299,0.0007936972589987169,-8.216384341810235e-05
0.059469300792558674,0.0008235777806858673,-8.17595246581812e-05
0.0588649878186395,0.0008531613528386669,-8.134033987480006e-05
0.05824119875372981,0.0008824378994817592,-8.090644006171995e-05
0.057599279170953824,0.0009113980189629301,-8.045798108210877e-05
0.05694056177469305,0.0009400329791993418,-7.999512333256821e-05
0.05626636005310032,0.0009683347096562901,-7.95180314103543e-05
0.055577962331769364,0.0009962957902525074,-7.90268737853771e-05
0.05487662624388457,0.0010239094373964209,-7.852182247846487e-05
0.054163573614207615,0.001051169487360944,-7.800305274727552e-05
0.05343998573792397,0.001078070377198977,-7.747074278113554e-05
0.052706999027183885,0.0011046071233902538,-7.692507340598822e-05
0.05196570099918131,0.001130775298396845,-7.636622780054144e-05
0.0512171265856491,0.0011565710052930528,-7.579439122461897e-05
0.050462254747805524,0.0011819908506264165,-7.52097507606391e-05
0.04970200538039866,0.0012070319156584676,-7.461249506906788e-05
0.048937236489041705,0.0012316917261258277,-7.40028141586218e-05
0.048168741635610766,0.0012559682206569908,-7.338089917192609e-05
0.047397247667925864,0.001279859717982875,-7.274694218726612e-05
0.04662341277056551,0.0013033648830924978,-7.210113603699728e-05
0.045847824880574706,0.0013264826925052829,-7.144367414309783e-05
0.04507100050329631,0.0013492123988512507,-7.07747503702587e-05
0.044293383949268565,0.001371553494964392,-7.009455889680478e-05
0.04351534700278319,0.0013935056777024048,-6.940329410363809e-05
0.0427371890284127,0.0014150688117102038,-6.870115048128494e-05
0.04195913751881626,0.001436242893347011,-6.798832255502063e-05
0.04118134908381791,0.0014570280149976695,-6.726500482793447e-05
0.04040391088119625,0.001477424329988923,-6.653139174168781e-05
0.03962684249551219,0.0014974320183331002,-6.57876776546073e-05
0.03885009827756482,0.0015170512535263693,-6.503405683664244e-05
0.03807357015833765,0.001536282170635345,-6.427072348060201e-05
0.03729709094881109,0.0015551248359121322,-6.349787172896514e-05
0.036520438136264266,0.0015735792181834011,-6.271569571544126e-05
0.03574333819146848,0.0015916451622653342,-6.192438962032907e-05
0.03496547140484206,0.0016093223646644118,-6.112414773859663e-05
0.034186477266387384,0.001626610351832219,-6.0315164559472475e-05
0.0334059603929705,0.0016435084612470585,-5.949763485620265e-05
0.03262349698991193,0.001660015825592779,-5.867175378449269e-05
0.03183864180959577,0.001676131360292656,-5.783771698802133e-05
0.031050935535350734,0.0016918537546288925,-5.6995720709290945e-05
0.030259912479571202,0.001707181466632623,-5.6145961903975565e-05
0.029465108450048027,0.0017221127218650279,-5.5288638356851154e-05
0.028666068614293924,0.0017366455161311133,-5.442394879735212e-05
0.027862355183589788,0.0017507776220805843,-5.3552093012799196e-05
0.027053554751012544,0.001764506599564235,-5.267327195738799e-05
0.026239285147756305,0.001777829809538927,-5.1787687855112195e-05
0.025419201715741673,0.0017907444312548015,-5.089554429491376e-05
0.024593002917277253,0.0018032474824130563,-4.9997046316496797e-05
0.02376043521394682,0.0018153358419458624,-4.909240048540707e-05
0.0229212971610358,0.001827006275039608,-4.81818149561607e-05
0.02207544269154483,0.0018382554600027531,-4.726549952240011e-05
0.02122278359734538,0.0018490800165749757,-4.634366565325568e-05
0.020363291236668923,0.0018594765352834793,-4.541652651529107e-05
0.019496997501011908,0.0018694416074678994,-4.4484296979603225e-05
0.018623995072722044,0.001878971855611333,-4.3547193613833416e-05
0.017744437010189743,0.001888063963632061,-4.260543465902257e-05
0.016858535711197435,0.0018967147068124077,-4.165923999141145e-05
0.0159665613169753,0.001904920981069451,-4.0708831069440985e-05
0.01506883962044996,0.0019126798313038073,-3.975443086634767e-05
0.014165749530857613,0.0019199884785916343,-3.8796263788873814e-05
0.013257720134649535,0.0019268443460080111,-3.78345555827239e-05
0.012345227393525596,0.001933245082890055,-3.686953322549938e-05
0.011428790536011377,0.0019391885873724392,-3.590142480793376e-05
0.010508968218051657,0.0019446730270609549,-3.493045940432541e-05
0.009586354541854593,0.0019496968577509314,-3.395686693312244e-05
0.008661575033611039,0.001954258840144798,-3.298087800864851e-05
0.007735282693978134,0.001958358054576695,-3.200272378496814e-05
0.006808154243074888,0.0019619939138109583,-3.102263579287123e-05
0.005880886668629609,0.0019651661740388844,-3.0040845770908767e-05
0.004954194145569142,0.001967874944242434,-2.9057585491338436e-05
0.004028805340985624,0.0019701206941140728,-2.807308658174931e-05
0.003105461071134766,0.001971904260717103,-2.7087580343041513e-05
0.0021849122504450434,0.001973226854047498,-2.6101297564350364e-05
0.0012679180688243766,0.001974090061627315,-2.511446833543166e-05
0.00035524434543477736,0.0019744958522308798,-2.412732185696711e-05
-0.0005523379797130354,0.0019744465788223103,-2.3140086249203816e-05
-0.0014540542507185516,0.0019739449807647026,-2.2152988359307063e-05
-0.002349127433561395,0.0019729941853436324,-2.116625356777998e-05
-0.0032367794223740623,0.0019715977086296487,-2.0180105594286658e-05
-0.004116232344410735,0.0019697594556879524,-1.9194766303207256e-05
-0.004986709886815321,0.001967483720130146,-1.821045550925273e-05
-0.005847438661356779,0.001964775182993103,-1.7227390783471916e-05
-0.006697649615671176,0.0019616389109238463,-1.6245787259992678e-05
-0.007536579492720275,0.0019580803536467482,-1.526585744385003e-05
-0.008363472338642427,0.0019541053406889075,-1.4287811020266116e-05
