acceleration,velocity,displacement
0.08300811541756231,0.0,0.0
0.07153460734783013,7.727136138269621e-05,3.8635680691348106e-08
0.060191775065214524,0.00014313455258921853,1.4883863767730547e-07
0.04910347766454051,0.00019778217895409603,3.1929700344896276e-07
0.03838090968505265,0.0002415243726288926,5.389502792404571e-07
0.028118207800843467,0.0002747739313718407,7.970994312408238e-07
0.01838947622766802,0.0002980277733860964,1.0835002836197924e-06
0.009246952982993606,0.0003118459879914272,1.3884371643085542e-06
0.000720068989814449,0.00031682949897783125,1.7027749077931834e-06
-0.007184676883349975,0.0003135971950310635,2.017988254797631e-06
-0.014482921089286446,0.0003027633960447453,2.3261685503355355e-06
-0.021210538003575908,0.0002849166664983141,2.620008581607065e-06
-0.02742062260810409,0.00026060108619247406,2.8927674579524594e-06
-0.03317972071379462,0.00023030091453152472,3.138218458314459e-06
-0.038563960930384854,0.00019442907370943496,3.350583452434939e-06
-0.04365552923522013,0.00015331932862663248,3.5244576536029726e-06
-0.048539305177906805,0.00010722191142006902,3.654728273626323e-06
-0.05329904305818675,5.630273730202224e-05,3.7364905979873687e-06
-0.05801264698530648,6.468922802756267e-07,3.7649654127785176e-06
-0.06274667029918922,-5.973276636197223e-05,3.7354224757376693e-06
-0.06755072064813414,-0.0001248814618356339,3.643115361638866e-06
-0.07245270302293141,-0.00019488317367116667,3.483233043885466e-06
-0.0774557548417105,-0.00026983740260348764,3.2508727557481385e-06
-0.08253746590651077,-0.00034983401297759826,2.9410370479575954e-06
-0.0876517112466331,-0.0004349286015541702,2.548655740691711e-06
-0.09273315609337272,-0.0005251210352241731,2.068630922302539e-06
-0.09770411520342887,-0.0006203396708725739,1.4959005692541656e-06
-0.10248301189225226,-0.0007204332344204144,8.255141166076714e-07
-0.10699336100482199,-0.0008251714208689515,5.27117889629884e-08
-0.11117210024112939,-0.0009342541514919272,-8.27000997217451e-07
-0.1149762040619926,-0.001047328303643488,-1.8177922247851588e-06
-0.11838678158969092,-0.0011640097964693299,-2.923461274841568e-06
-0.1214102443692321,-0.0012839083094487913,-4.147420327800628e-06
-0.12407655360736776,-0.0014066517084370912,-5.49270033674357e-06
-0.1264348734837586,-0.0015319074219826544,-6.9619799019534426e-06
-0.12854710184381152,-0.0016593984096464395,-8.55763281776799e-06
-0.1304798533848997,-0.001788911887260795,-1.0281787966221608e-05
-0.13229568333507052,-0.0019202996556207802,-1.2136393737662395e-05
-0.13404457446244483,-0.002053469784519538,-1.4123278457732555e-05
-0.1357567511045987,-0.00218837044730306,-1.6244198573643852e-05
-0.1374377797533897,-0.002324967712732054,-1.8500867653661408e-05
-0.13906691585514358,-0.0024632200605363207,-2.0894961540295594e-05
-0.14059960601033686,-0.0026030533214690607,-2.3428098231298285e-05
-0.14197440140592443,-0.0027443403251771912,-2.6101795054621412e-05
-0.1431232251723125,-0.0028868891384663097,-2.8917409786443163e-05
-0.14398275278942288,-0.0030304421274471773,-3.18760754193999e-05
-0.14450440267570303,-0.00317468570517974,-3.497863933571336e-05
-0.14466107865632458,-0.0033192684458457538,-3.8225616411226106e-05
-0.144449806950022,-0.003463823888648927,-4.161716257847345e-05
-0.14389039450006796,-0.003607993989373972,-4.51530715174849e-05
-0.14302108344150363,-0.003751449728344758,-4.8832793376344265e-05
-0.1418926877300333,-0.003893906613930526,-5.2655471547481905e-05
-0.1405626618887372,-0.0040351342887399114,-5.661999199881712e-05
-0.13909005448145595,-0.004174960646925008,-6.072503946664958e-05
-0.1375316475072757,-0.004313271497919374,-6.496915553907177e-05
-0.13593902810548297,-0.004450006835725753,-6.935079470589433e-05
-0.13435607108973432,-0.004585154385323361,-7.386837531641889e-05
-0.13281651222918905,-0.004718740676982823,-7.852032284757197e-05
-0.13134188466378735,-0.004850819875429312,-8.330510312377803e-05
-0.1299405793115585,-0.0049814611074169846,-8.822124361520118e-05
-0.12860869065577207,-0.00511073574240065,-9.326734204011e-05
-0.12733269824931537,-0.0052387064368531935,-9.844206312973692e-05
-0.12609341389767578,-0.005365419492926689,-0.00010374412609462686
-0.1248702943287588,-0.005490901347039906,-0.00010917228651461016
-0.1236450990617865,-0.0056151590437351784,-0.0001147253167099977
-0.12240393638147838,-0.005738183561456811,-0.0001204019880125937
-0.12113718674810092,-0.0058599541230216,-0.0001262010568548329
-0.11983760476780499,-0.005980441518779554,-0.00013212125467573348
-0.11849761579899627,-0.0060996091290629545,-0.00013816127999965474
-0.11710701612440792,-0.006217411445024657,-0.00014431979028669853
-0.11565195058300595,-0.0063337909283783635,-0.00015059539147340003
-0.11411541219808603,-0.00644867460976891,-0.00015698662424247368
-0.11247891036634376,-0.006561971771051125,-0.0001634919474328837
-0.11072474711622524,-0.006673573599792409,-0.00017010972011830547
-0.10883856583563993,-0.006783355256268341,-0.00017683818454633586
-0.10681207978260038,-0.0068911805790774616,-0.00018367545246400876
-0.10464579144582702,-0.0069969095146916755,-0.00019061949751089332
-0.10235120206405768,-0.007100408011446618,-0.00019766815627396246
-0.09995182956050205,-0.007201559527258898,-0.0002048191400433152
-0.097482458286856,-0.007300276671182577,-0.00021207005814253595
-0.09498639609893529,-0.007396511098375472,-0.00021941845202731497
-0.09251104534119875,-0.00749025981909554,-0.00022686183748605047
-0.09010266510528527,-0.007581566674318782,-0.00023439775073275763
-0.087801521091622,-0.007670518767417235,-0.00024202379345362565
-0.08563844460152947,-0.007757238750263811,-0.0002497376722124662
-0.08363323025031295,-0.007841874587689732,-0.00025753722888144294
-0.08179461916514626,-0.007924588512397463,-0.00026542046043148655
-0.0801211562498964,-0.008005546400104984,-0.00027338552788773777
-0.07860216234396417,-0.008084908059401914,-0.0002814307551174912
-0.07721844132132727,-0.00816281836123456,-0.00028955461832780945
-0.07594290617134163,-0.008239399034980895,-0.0002977557270259172
-0.07474161633133822,-0.008314741296232234,-0.00030603279719152376
-0.07357553786073186,-0.008388899873328269,-0.00031438461777630403
-0.07240296490683892,-0.008461889124712055,-0.0003228100122753242
-0.07118242981232682,-0.008533681822071638,-0.000331307797748716
-0.06987606763327095,-0.008604211070794437,-0.00033987674419514905
-0.06845339429394696,-0.008673375801758046,-0.0003485155376314253
-0.0668951125502192,-0.00874105005518013,-0.0003572227505598944
-0.0651960786702617,-0.00880709565079037,-0.0003659968234128796
-0.06336632275821337,-0.008871376851504608,-0.0003748360596640271
-0.06142930892844637,-0.008933774667347938,-0.0003837386354234534
-0.059417391788675916,-0.008994198017706498,-0.0003927026217659806
-0.05736523456225437,-0.009052589330881962,-0.0004017260154402748
-0.05530240595070231,-0.00910892315113844,-0.000410806771681285
-0.05324646052348468,-0.009163197584375534,-0.000419942832049042
-0.05119769711163062,-0.009215419663193091,-0.0004291321406728263
-0.04913654454039868,-0.009265586784019106,-0.0004383726438964324
-0.04702416187903111,-0.009313667137228821,-0.0004476622708570564
-0.044806362234571795,-0.009359582399285624,-0.0004569988956253136
-0.04242035355871436,-0.009403195757182266,-0.0004663802847035476
-0.039803169733714915,-0.009444307518828481,-0.00047580403634155295
-0.03690031726134141,-0.009482659262326009,-0.0004852675197321302
-0.03367321875277421,-0.009517946030333067,-0.0004947678223784597
-0.030104373365972197,-0.00954983482639244,-0.0005043017128068224
-0.02619958404413328,-0.009577986805097494,-0.0005138656236225674
-0.021987052665482874,-0.009602080123452303,-0.0005234556570868423
-0.017513651447231597,-0.00962183047550866,-0.0005330676123863228
-0.012839199487973709,-0.009637006900976262,-0.0005426970310745652
-0.008029937052395023,-0.009647441469246447,-0.0005523392552596766
-0.003152435243425284,-0.009653032655394357,-0.000561989492321997
0.001731108037570449,-0.009653743318997285,-0.0005716428803091929
0.006565690540874749,-0.009649594919708062,-0.0005812945494285455
0.011304393189619916,-0.009640659877842815,-0.0005909396768273209
0.01590767637876448,-0.009627053843058623,-0.0006005735336877717
0.020341797837845135,-0.009608929105950318,-0.0006101915251622761
0.024577284602142088,-0.009586469564730325,-0.0006197892244976165
0.028588286565748536,-0.00955988677914638,-0.0006293624026695549
0.032353205594275236,-0.009529416033066368,-0.0006389070540756612
0.035856455769959106,-0.009495311202384251,-0.0006484194176933865
0.039090837202232484,-0.009457837555898156,-0.0006578959920725277
0.042059893219016965,-0.009417262190687531,-0.0006673335419458206
0.044779678473497536,-0.009373842404841274,-0.000676729094243585
0.047279485109905844,-0.009327812823049573,-0.0006860799218575304
0.049601221796976666,-0.009279372469596132,-0.0006953835145038533
0.05179729712055998,-0.009228673210137364,-0.00070463753734372
0.05392695163840323,-0.009175811085757882,-0.0007138397794916677
0.05605098033325026,-0.009120822119772056,-0.0007229880960944327
0.058224871448763454,-0.009063684193881049,-0.0007320803492512593
0.0604908405729257,-0.009004326337870204,-0.0007411143545171349
0.06287005267048781,-0.008942645891248498,-0.0007500878406316942
0.06535705054063325,-0.008878532339642937,-0.00075899842974714
0.06791845183312535,-0.008811894588456057,-0.0007678436432111894
0.07049707108406669,-0.008742686826997461,-0.0007766209339189162
0.07302109394475399,-0.008670927744483052,-0.0007853277412046564
0.07541647551763485,-0.008596708959751858,-0.0007939615595567739
0.07761991759051949,-0.00852019076319778,-0.0008025200094182487
0.07958975654229282,-0.008441585926131373,-0.0008110008977629133
0.08131267576501987,-0.008361134709977716,-0.0008194022580809678
0.08280503281876887,-0.008279075855685823,-0.0008277223633637996
0.08410858221940155,-0.008195619048166737,-0.0008359597108157259
0.08528145806196435,-0.008110924028026054,-0.0008441129823538223
0.0863863309480896,-0.008025090133521026,-0.0008521809894345958
0.08747831580755835,-0.007938157810143202,-0.0008601626134064279
0.08859515198237414,-0.007850121076248235,-0.0008680567528496237
0.08975139757675261,-0.007760947801468672,-0.0008758622872884821
0.09093722313513745,-0.007670603491112727,-0.0008835780629347728
0.09212136262618631,-0.007579074198232065,-0.0008912029017794452
0.09325723049299563,-0.007486384901672474,-0.0008987356313293974
0.09429106920688612,-0.007392610751822533,-0.0009061751291561449
0.09517087731199986,-0.00729787977856309,-0.0009135203744213377
0.09585460378719565,-0.007202367038013492,-0.000920770497829626
0.09631601223614945,-0.007106281730001819,-0.0009279248222136336
0.0965471732663142,-0.007009850137250587,-0.0009349828881472597
0.09655763710148663,-0.006913297732066687,-0.0009419444620819184
0.09637132045372804,-0.00681683325328908,-0.0009488095275745963
0.09602246864117524,-0.006720636358741629,-0.0009555782623806117
0.09555168831632117,-0.00662484928026288,-0.000962251005200114
0.09500234279149589,-0.006529572264708972,-0.0009688282159726
0.09441705177938788,-0.0064348625674235296,-0.0009753104333886662
0.09383397102055052,-0.006340737056023561,-0.0009816982332003898
0.0932828968384169,-0.006247178622094077,-0.0009879921910394486
0.09278172621601898,-0.006154146310566859,-0.0009941928535057792
0.09233407476644725,-0.006061588410075626,-0.0010003007208661003
0.09192870169790282,-0.005969457021843451,-0.0010063162435820598
0.09154083190455319,-0.005877722255042223,-0.0010122398332205026
0.09113484097988418,-0.005786384418600004,-0.0010180718865573238
0.09066749253851814,-0.005695483251840803,-0.0010238128203925443
0.090091100589024,-0.005605103955277032,-0.0010294631139961031
0.08935645436014149,-0.005515380177802449,-0.0010350233560626428
0.08841583598335724,-0.0054264940326307,-0.0010404942931678594
0.0872266909962478,-0.005338672769140898,-0.0010458768765687452
0.08575622207533716,-0.005252181312605105,-0.001051172303609618
0.08398644762367193,-0.005167309977755601,-0.0010563820492547984
0.08191859051481203,-0.005084357458686358,-0.0010615078829730193
0.07957551451601445,-0.005003610406170945,-0.001066551866905448
0.07700136593431836,-0.004925321965945779,-0.0010715163330915064
0.07425834613235756,-0.004849692109912441,-0.0010764038401294355
0.07142132263074359,-0.0047768522755308905,-0.0010812171123221572
0.06857145617173492,-0.004706855886129651,-0.0010859589664029875
0.06578992404673581,-0.004639675196020415,-0.0010906322319440625
0.06315229168936039,-0.004575204088152368,-0.001095239671586149
0.060723645967289984,-0.004513266119324042,-0.001099783906689887
0.05855457096391631,-0.004453627010858439,-0.0011042673532549784
0.05667818935844782,-0.004396010630697257,-0.0011086921720757563
0.055108475019758824,-0.004340117298508154,-0.001113060236040359
0.053839872384702815,-0.004285643124805923,-0.001117373116252016
0.05284807690241398,-0.0042322991501623644,-0.0011216320873895002
0.05209166237614505,-0.004179829280523085,-0.001125838151604843
0.05151419436258827,-0.004128026352153718,-0.0011299920794211812
0.05104675302166912,-0.00407674587846159,-0.001134094465536489
0.050611291427139965,-0.004025916856237185,-0.0011381457969038382
0.05012551120822651,-0.003975548454919502,-0.0011421465295594166
0.04950963811692933,-0.003925730880256924,-0.0011460971692270048
0.04869472222225384,-0.0038766287000873327,-0.0011499983490171769
0.0476312262723719,-0.0038284657258400197,-0.0011538508962301405
0.046296163426372924,-0.003781502030990647,-0.001157655880108556
0.044697213595619074,-0.003736005342479651,-0.0011614146337952911
0.042872922597061235,-0.003692220274383311,-0.0011651287466037227
0.040888801440454536,-0.0036503394123645534,-0.0011688000264470967
0.03882970408992586,-0.0036104801595993634,-0.0011724304362330787
0.03678943754606015,-0.0035726705887813705,-0.001176022011607269
0.03485913696428306,-0.0035368463015261987,-0.0011795767700524228
0.03311619872074445,-0.003502858633683685,-0.0011830966225200277
0.03161536824383853,-0.0034704928502013936,-0.0011865832982619702
0.030383176189673646,-0.0034394935779846376,-0.0011900382914760632
0.029416536643190057,-0.0034095937215682056,-0.0011934628351258395
0.028685855568098592,-0.0033805425254625613,-0.0011968579032493548
0.02814225001996444,-0.00335212847266853,-0.0012002242387484203
0.027727592689504105,-0.003324193551313796,-0.0012035623997604114
0.02738547503389014,-0.0032966370174520986,-0.0012068728150447944
0.027071033926291,-0.003269408762972008,-0.0012101558379350064
0.026757861309852596,-0.0032424943153539364,-0.0012134117894741694
0.026440887687795275,-0.0032158949408551125,-0.0012166409841022738
0.02613512413401815,-0.0031896069349442056,-0.0012198437350401734
0.0258710804649514,-0.0031636038326447206,-0.0012230203404239679
0.0256881066700273,-0.003137824239077231,-0.0012261710544598289
0.02562681656393972,-0.0031121667774602476,-0.0012292960499680975
0.02572151862790775,-0.0030864926098643237,-0.0012323953796617598
0.025993483814500593,-0.0030606351086431196,-0.0012354689435210135
0.02644588694667041,-0.003034415423262534,-0.0012385164687869663
0.027061192089449786,-0.003007661883744474,-0.0012415375074404699
0.027801497397053627,-0.002980230539001222,-0.0012445314536518428
0.028611848738420636,-0.002952023865933485,-0.0012474975808543102
0.029425826245375795,-0.0029230050284415865,-0.0012504350953014976
0.03017212151977065,-0.0028932060545590133,-0.001253343200842998
0.030780740495208785,-0.0028627296235515234,-0.0012562211686820532
0.031187925528210335,-0.0028317452905398137,-0.0012590684061390988
0.031339587897498564,-0.0028004815338269593,-0.0012618845195512822
0.031193663003421447,-0.0027692149083764993,-0.001264669367772384
0.030722128988685253,-0.002738257012380446,-0.0012674231037327623
0.029913348664289113,-0.002707939273553959,-0.0012701462018757294
0.028774970705588092,-0.0026785951138690203,-0.0012728394690694408
0.027337033055609476,-0.0026505391119884215,-0.0012755040361823696
0.025654260602104538,-0.0026240434651595645,-0.0012781413274709436
0.023805990333067226,-0.0025993133396919788,-0.0012807530058733694
0.021892080290509375,-0.0025764643043801904,-0.0012833408946954054
0.020023986918822508,-0.0025555062707755243,-0.0012859068799829833
0.01831183795220808,-0.002536338358340009,-0.001288452802297541
0.016849987272044526,-0.002518757445727883,-0.0012909803501995748
0.01570426139221192,-0.0025024803213957547,-0.0012934909690831367
0.01490354784952396,-0.002487176416774887,-0.001295985797452222
0.014436988546117042,-0.0024725061485770666,-0.001298465638734898
0.014256640343052856,-0.002458159334132482,-0.0013009309714762528
0.014284621308962837,-0.002443888703306474,-0.0013033819954949722
0.014423485811311377,-0.0024295346497463367,-0.0013058187071714987
0.014568501000129382,-0.0024150386563406164,-0.0013082409938245422
0.014620364755835677,-0.0024004442234626337,-0.001310648735264444
0.014496819401599142,-0.0023858856313839164,-0.0013130419001918673
0.014141838055284846,-0.0023715663026554743,-0.001315420626158887
0.01353154422088721,-0.002357729611517388,-0.0013177852741159733
0.012676427052165122,-0.002344625625880862,-0.0013201364517346724
0.011619650960084648,-0.002332477586874737,-0.0013224750033410501
0.010431617807330394,-0.0023214519524910296,-0.001324801968110733
0.009201499477997118,-0.002311635393848366,-0.0013271185117839028
0.008026885880938304,-0.0023030212011688985,-0.0013294258400814113
0.007002752613207893,-0.0022955063819218254,-0.0013317251038729566
0.006210760596433037,-0.002288899625317005,-0.001334017306876576
0.005709679992944492,-0.002282939405022316,-0.0013363032263917457
0.0055276530602371456,-0.0022773207384957253,-0.0013385833564635047
0.005657143749481172,-0.0022717283400908663,-0.001340857881002798
0.00605357392845165,-0.0022658729812519,-0.0013431266816634694
0.0066384241820127785,-0.0022595269821966677,-0.0013453893816451937
0.007306784624657146,-0.0022525543777933326,-0.0013476454223251887
0.007938264611944768,-0.0022449318531750314,-0.0013498941654406728
0.00840943192375825,-0.00223675800490718,-0.001352135010369714
0.00860599280268515,-0.002228250292543958,-0.0013543675145184396
0.00843357349726991,-0.0022197305093939806,-0.0013565915049194085
0.007826622041448395,-0.0022116004116246213,-0.0013588071703799177
0.006755157580320585,-0.002204309521813737,-0.0013610151253466369
0.005228831954175915,-0.002198317527046489,-0.0013632164388710669
0.003297371001605626,-0.002194054425568598,-0.0013654126248473745
0.001046403607401988,-0.0021918825382640944,-0.001367605593329291
-0.0014117562763945764,-0.0021920652145985906,-0.0013697975672057223
-0.003951798375145928,-0.002194746991924361,-0.0013719909733089838
-0.006451943326470798,-0.002199948862775169,-0.0013741883212363335
-0.008810825727509701,-0.0022075802473021594,-0.0013763920857913722
-0.010961729975878328,-0.0022174665251538535,-0.0013786046091776001
-0.012881267629441383,-0.0022293880239565135,-0.0013808280364521553
-0.01459055653982812,-0.0022431239360411483,-0.001383064292432154
-0.016148647498733546,-0.002258493538060429,-0.0013853151011692048
-0.017639755174610187,-0.0022753877393971006,-0.0013875820418079335
-0.019157107374380797,-0.002293786170671596,-0.001389866628762968
-0.020786456575623426,-0.0023137579526465984,-0.001392170400824627
-0.02259155327511337,-0.0023354469575719667,-0.0013944950032797362
-0.024602849478372185,-0.0023590441589487095,-0.0013968422488379966
-0.026810165122420196,-0.0023847506662491055,-0.0013992141462505954
-0.029160127909168766,-0.0024127358127649,-0.0014016128894901024
-0.03155928814448105,-0.002443095520791725,-0.0014040408051568807
-0.03388331793915859,-0.002475816823833545,-0.0014065002613291933
-0.035991624071029946,-0.002510754294838639,-0.0014089935468885293
-0.03774550854898808,-0.0025476228611486483,-0.001411522735466523
-0.039027184886528704,-0.0025860092078664066,-0.0014140895515010307
-0.03975668382318897,-0.0026254011422212654,-0.0014166952566760746
