frame_number,force
0,723.3281250037804
1,723.4243538503579
2,723.5203312469083
3,723.6158071292448
4,723.7105341861478
5,723.8042691897673
6,723.8967742729792
7,723.987818140129
8,724.0771772007308
9,724.1646366183062
10,724.2499912681562
11,724.3330465987284
12,724.4136193921566
13,724.4915384211928
14,724.5666450018888
15,724.6387934430629
16,724.7078513942066
17,724.7737000936397
18,724.8362345195446
19,724.895363448548
20,724.9510094291747
21,725.0031086795897
22,725.051610919781
23,725.0964791477588
24,725.1376893679924
25,725.1752302788758
26,725.2091029250658
27,725.2393203201345
28,725.2659070447085
29,725.2888988248259
30,725.3083420947347
31,725.324293547733
32,725.3368196776916
33,725.3459963128862
34,725.3519081434421
35,725.3546482441843
36,725.3543175951803
37,725.3510246020533
38,725.3448846173641
39,725.3360194633536
40,725.3245569550539
41,725.3106304213128
42,725.2943782203716
43,725.2759432468433
44,725.2554724278758
45,725.2331162072421
46,725.2090280169041
47,725.1833637363641
48,725.156281140494
49,725.1279393359413
50,725.0984981848983
51,725.068117714075
52,725.03695750685
53,725.0051760775974
54,724.9729302285
55,724.9403743903587
56,724.9076599499714
57,724.8749345678577
58,724.8423414916081
59,724.8100188713291
60,724.7780990837655
61,724.7467080710694
62,724.7159647002904
63,724.685980151165
64,724.6568573418784
65,724.628690403869
66,724.6015642170244
67,724.5755540161423
68,724.5507250786011
69,724.5271325016395
70,724.5048210752643
71,724.4838252538724
72,724.4641692267384
73,724.4458670848041
74,724.4289230786304
75,724.4133319601467
76,724.3990793992945
77,724.3861424658056
78,724.3744901660451
79,724.3640840251801
80,724.3548787058788
81,724.3468226558784
82,724.3398587778141
83,724.333925115781
84,724.3289555539924
85,724.3248805229944
86,724.3216277079854
87,724.3191227525215
88,724.3172899501385
89,724.3160529165827
90,724.3153352361077
91,724.315061075921
92,724.315155762831
93,724.3155463157714
94,724.316161928232
95,724.3169343962775
96,724.3177984902102
97,724.3186922700037
98,724.319557346033
99,724.3203390876511
100,724.3209867831508
101,724.3214537555477
102,724.3216974390282
103,724.321679420465
104,724.3213654489875
105,724.3207254145199
106,724.3197332943863
107,724.318367066533
108,724.3166085888603
109,724.3144434460787
110,724.3118607675832
111,724.3088530212333
112,724.3054157881771
113,724.3015475231516
114,724.2972493035014
115,724.2925245688616
116,724.2873788526299
117,724.2818195066312
118,724.2758554216825
119,724.2694967482416
120,724.2627546222601
121,724.2556409017831
122,724.2481679201735
123,724.2403482620675
124,724.2321945677332
125,724.223719370106
126,724.2149349669332
127,724.205853328832
128,724.1964860427976
129,724.1868442896636
130,724.1769388531847
131,724.1667801578863
132,724.1563783324561
133,724.145743294779
134,724.1348848533122
135,724.1238128176027
136,724.1125371090307
137,724.1010678619222
138,724.089415505282
139,724.0775908166739
140,724.0656049421772
141,724.0534693794459
142,724.0411959238701
143,724.028796580011
144,724.0162834419593
145,724.0036685475595
146,723.9909637128083
147,723.9781803538447
148,723.9653293041149
149,723.952420633129
150,723.9394634712826
151,723.926465843639
152,723.9134345150617
153,723.9003748493402
154,723.8872906851005
155,723.8741842308409
156,723.8610559807199
157,723.8479046522574
158,723.8347271468813
159,723.8215185338835
160,723.8082720577423
161,723.7949791683662
162,723.781629574102
163,723.7682113181977
164,723.754710880069
165,723.7411133026535
166,723.7274023465574
167,723.7135606710773
168,723.6995700415534
169,723.6854115614499
170,723.6710659259983
171,723.6565136927692
172,723.6417355638449
173,723.626712674367
174,723.6114268824218
175,723.5958610548239
176,723.5799993425213
177,723.5638274390167
178,723.5473328160076
179,723.5305049321516
180,723.5133354128548
181,723.4958182009891
182,723.4779496804505
183,723.4597287764042
184,723.441157037443
185,723.4222387049656
186,723.4029807736147
187,723.3833930440339
188,723.3634881663093
189,723.343281669969
190,723.3227919748003
191,723.3020403761518
192,723.2810509988207
193,723.2598507149448
194,723.2384690231445
195,723.2169378879777
196,723.1952915402679
197,723.1735662399935
198,723.1518000042973
199,723.1300323039463
200,723.108303732388
201,723.0866556523777
202,723.0651298258796
203,723.0437680335058
204,723.0226116900042
205,723.0017014621196
206,722.9810768946825
207,722.960776050218
208,722.9408351667458
209,722.9212883376767
210,722.902167216838
211,722.8835007508322
212,722.8653149403485
213,722.8476326317311
214,722.8304733399372
215,722.8138531039477
216,722.7977843758846
217,722.7822759456183
218,722.7673329032002
219,722.7529566413531
220,722.7391448991951
221,722.7258918468561
222,722.7131882096223
223,722.7010214302156
224,722.6893758684026
225,722.6782330376471
226,722.6675718784949
227,722.6573690675838
228,722.6475993595469
229,722.6382359567725
230,722.6292508995977
231,722.6206154679336
232,722.6123005851031
233,722.6042772154531
234,722.5965167483306
235,722.5889913619221
236,722.581674361277
237,722.5745404856231
238,722.5675661809466
239,722.5607298349565
240,722.5540119728288
241,722.5473954130966
242,722.5408653835933
243,722.534409597726
244,722.5280182916074
245,722.5216842227304
246,722.5154026313676
247,722.5091711670726
248,722.5029897841107
249,722.4968606103587
250,722.4907877937549
251,722.4847773293263
252,722.4788368691779
253,722.472975517913
254,722.467203616326
255,722.4615325165299
256,722.4559743522082
257,722.4505418086161
258,722.4452478980542
259,722.4401057474004
260,722.4351284049618
261,722.4303286744621
262,722.4257189839207
263,722.4213112956114
264,722.4171170601657
265,722.4131472143964
266,722.4094122197454
267,722.4059221365032
268,722.40268672768
269,722.3997155854455
270,722.3970182727164
271,722.3946044729134
272,722.3924841418193
273,722.3906676562667
274,722.3891659549089
275,722.3879906668905
276,722.3871542250646
277,722.3866699613492
278,722.3865521826548
279,722.3868162265634
280,722.3874784966953
281,722.388556478345
282,722.3900687351294
283,722.3920348868429
284,722.3944755677752
285,722.3974123641439
286,722.40086772944
287,722.4048648771384
288,722.4094276511078
289,722.4145803752784
290,722.4203476855943
291,722.4267543484257
292,722.4338250699165
293,722.441584300263
294,722.450056036207
295,722.4592636247222
296,722.4692295711918
297,722.4799753558067
298,722.4915212618889
299,722.5038862193925
300,722.517087666234
301,722.5311414293208
302,722.5460616261753
303,722.5618605872576
304,722.5785487986946
305,722.5961348648842
306,722.6146254898947
307,722.6340254756255
308,722.6543377336644
309,722.6755633069878
310,722.6977013969916
311,722.7207493905236
312,722.7447028807413
313,722.7695556752092
314,722.795299785016
315,722.8219253898068
316,722.8494207752427
317,722.8777722414212
318,722.9069639831209
319,722.936977945176
320,722.9677936584833
321,722.9993880637593
322,723.0317353308806
323,723.0648066814616
324,723.0985702217401
325,723.1329907925493
326,723.1680298433622
327,723.2036453377304
328,723.2397916973858
329,723.2764197915184
330,723.3134769764723
331,723.3509071899729
332,723.3886511033362
333,723.4266463344419
334,723.4648277229877
335,723.5031276677554
336,723.5414765235918
337,723.5798030537559
338,723.6180349314861
339,723.6560992832431
340,723.6939232647987
341,723.7314346598971
342,723.7685624898799
343,723.8052376220376
344,723.8413933648488
345,723.8769660395247
346,723.9118955187099
347,723.9461257241685
348,723.9796050758558
349,724.0122868856049
350,724.0441296901412
351,724.0750975199406
352,724.1051601018316
353,724.1342929938138
354,724.1624776504856
355,724.1897014173038
356,724.2159574523106
357,724.2412445753519
358,724.2655670470585
359,724.288934282385
360,724.3113605055523
361,724.3328643542665
362,724.3534684410876
363,724.3731988794754
364,724.3920847819817
365,724.410157738362
366,724.4274512815629
367,724.4440003493116
368,724.4598407486255
369,724.4750086302305
370,724.4895399795997
371,724.5034701310959
372,724.5168333118335
373,724.5296622224109
374,724.541987662055
375,724.5538382052515
376,724.5652399354695
377,724.5762162396605
378,724.5867876654954
379,724.5969718419742
380,724.6067834628236
381,724.6162343305704
382,724.625333457012
383,724.6340872130161
384,724.6424995177487
385,724.6505720555211
386,724.658304508217
387,724.6656947927362
388,724.6727392954357
389,724.6794330983765
390,724.6857701946548
391,724.6917436915998
392,724.6973460008577
393,724.7025690136742
394,724.7074042589716
395,724.7118430419082
396,724.7158765616092
397,724.7194960081077
398,724.7226926397285
399,724.725457843078
400,724.7277831784583
401,724.7296604137061
402,724.7310815490629
403,724.7320388347979
404,724.732524782152
405,724.7325321671831
406,724.7320540268779
407,724.7310836476234
408,724.7296145473609
409,724.7276404540514
410,724.7251552844082
411,724.7221531279816
412,724.7186282419698
413,724.7145750612904
414,724.7099882270567
415,724.7048626353104
416,724.6991935068676
417,724.6929764783127
418,724.6862077133272
419,724.6788840324953
420,724.6710030586759
421,724.6625633743316
422,724.6535646869141
423,724.6440079981207
424,724.6338957723395
425,724.6232320992139
426,724.612022845229
427,724.6002757890752
428,724.5880007349656
429,724.5752095977231
430,724.5619164540585
431,724.5481375559445
432,724.5338913036377
433,724.5191981771799
434,724.5040806260707
435,724.4885629176391
436,724.472670945991
437,724.4564320053116
438,724.4398745331434
439,724.4230278304648
440,724.4059217659812
441,724.3885864722224
442,724.3710520407357
443,724.3533482228014
444,724.3355041409386
445,724.3175480154922
446,724.2995069100185
447,724.281406498919
448,724.2632708606035
449,724.245122299245
450,724.2269811977341
451,724.2088659034152
452,724.1907926463923
453,724.1727754881219
454,724.1548262967289
455,724.1369547454087
456,724.1191683308563
457,724.1014724091469
458,724.0838702468442
459,724.0663630855245
460,724.0489502182833
461,724.0316290767772
462,724.014395327085
463,723.9972429726853
464,723.9801644632913
465,723.9631508085802
466,723.9461916956288
467,723.9292756085647
468,723.912389949185
469,723.8955211580667
470,723.878654836531
471,723.8617758707809
472,723.844868560996
473,723.8279167599508
474,723.810904026702
475,723.7938138000977
476,723.7766295945655
477,723.7593352181509
478,723.7419150112091
479,723.7243541037288
480,723.7066386894201
481,723.6887563145874
482,723.6706961787606
483,723.6524494419617
484,723.6340095311426
485,723.6153724369702
486,723.5965369923595
487,723.577505125394
488,723.558282080557
489,723.5388766029251
490,723.5193010801503
491,723.4995716370674
492,723.4797081781654
493,723.4597343741444
494,723.4396775904887
495,723.4195687585692
496,723.3994421929012
497,723.3793353605392
498,723.359288609044
499,723.3393448582536
500,723.3195492596171
501,723.2999488263688
502,723.2805920386884
503,723.2615284297794
504,723.2428081605768
505,723.2244815916405
506,723.206598860306
507,723.189209469582
508,723.1723618932232
509,723.1561031996262
510,723.1404786964955
511,723.1255315990064
512,723.1113027258142
513,723.0978302282742
514,723.0851493574474
515,723.0732922708321
516,723.0622878772878
517,723.0521617156924
518,723.0429358614323
519,723.0346288547552
520,723.0272556455167
521,723.0208275494746
522,723.015352212255
523,723.0108335786563
524,723.0072718667774
525,723.0046635480351
526,723.0030013350173
527,723.0022741790797
528,723.0024672789318
529,723.0035621009939
530,723.0055364124613
531,723.0083643285744
532,723.0120163762481
533,723.0164595769294
534,723.0216575522634
535,723.0275706566389
536,723.0341561406075
537,723.0413683481625
538,723.0491589489253
539,723.0574772039209
540,723.0662702614626
541,723.075483478188
542,723.08506075983
543,723.0949449169661
544,723.1050780322662
545,723.1154018366439
546,723.1258580915263
547,723.1363889734383
548,723.1469374560075
549,723.1574476839095
550,723.1678653333416
551,723.1781379541468
552,723.1882152894306
553,723.1980495694582
554,723.2075957777315
555,723.2168118879449
556,723.2256590705223
557,723.2341018665435
558,723.2421083253423
559,723.2496501005166
560,723.2567024986946
561,723.2632444770554
562,723.269258588963
563,723.2747308806612
564,723.2796507446184
565,723.2840107366054
566,723.2878063641953
567,723.2910358543201
568,723.2936999073024
569,723.2958014448885
570,723.2973453601754
571,723.2983382773497
572,723.2987883282443
573,723.2987049508496
574,723.2980987127368
575,723.296981160609
576,723.295364696
577,723.2932624762203
578,723.2906883388387
579,723.2876567474891
580,723.28418275701
581,723.2802819967457
582,723.2759706712883
583,723.2712655770065
584,723.2661841307036
585,723.2607444049486
586,723.2549651639545
587,723.2488658943464
588,723.2424668263333
589,723.2357889420527
590,723.2288539686558
591,723.2216843541221
592,723.2143032247495
593,723.2067343254033
594,723.1990019464318
595,723.1911308432833
596,723.1831461551867
597,723.1750733278221
598,723.1669380427086
599,723.1587661539478
600,723.1505836309644
601,723.1424165038673
602,723.134290806587
603,723.1262325126405
604,723.1182674592735
605,723.1104212576103
606,723.102719188898
607,723.0951860892342
608,723.0878462265299
609,723.0807231738079
610,723.0738396828475
611,723.0672175621523
612,723.0608775630874
613,723.0548392776565
614,723.0491210510443
615,723.0437399119814
616,723.0387115239167
617,723.0340501594467
618,723.0297686994953
619,723.0258786578223
620,723.0223902308704
621,723.0193123724965
622,723.0166528922316
623,723.0144185741398
624,723.0126153114878
625,723.011248251021
626,723.0103219399053
627,723.0098404679987
628,723.0098075978308
629,723.010226874926
630,723.011101712558
631,723.0124354477193
632,723.0142313680486
633,723.0164927113192
634,723.0192226393704
635,723.0224241877454
636,723.0261001918979
637,723.0302531912055
638,723.0348853129493
639,723.0399981392642
640,723.0455925605366
641,723.0516686190502
642,723.0582253473028
643,723.065260606437
644,723.072770931262
645,723.0807513890911
646,723.0891954599532
647,723.0980949453367
648,723.1074399112237
649,723.1172186691338
650,723.1274177970948
651,723.1380222013287
652,723.1490152188373
653,723.1603787608234
654,723.1720934969145
655,723.1841390799314
656,723.1964944095345
657,723.2091379303153
658,723.2220479567235
659,723.2352030148934
660,723.2485821904812
661,723.2621654717977
662,723.2759340783077
663,723.2898707657255
664,723.3039601005354
665,723.3181886988255
666,723.3325454263492
667,723.3470215578182
668,723.3616108931292
669,723.3763098273673
670,723.3911173715037
671,723.4060351222499
672,723.4210671814967
673,723.4362200268391
674,723.4515023346707
675,723.4669247568629
676,723.4824996516857
677,723.4982407696816
678,723.5141628960125
679,723.5302814525456
680,723.5466120652826
681,723.5631701049314
682,723.579970209861
683,723.5970258013019
684,723.6143486010592
685,723.6319481625712
686,723.649831426353
687,723.6680023100673
688,723.6864613420008
689,723.7052053454687
690,723.7242271808992
691,723.7435155515226
692,723.7630548772568
693,723.7828252396331
694,723.8028023988702
695,723.822957882959
696,723.8432591481326
697,723.863669810082
698,723.8841499449957
699,723.9046564584547
700,723.9251435184956
701,723.9455630470206
702,723.9658652615212
703,723.985999257295
704,724.0059136194535
705,724.0255570539434
706,724.0448790268705
707,724.0638304008146
708,724.0823640554254
709,724.1004354781118
710,724.1180033099993
711,724.135029832924
712,724.1514813849633
713,724.167328694668
714,724.182547127557
715,724.1971168421201
716,724.2110228559358
717,724.2242550253242
718,724.2368079445715
719,724.2486807733842
720,724.259877003494
721,724.2704041765561
722,724.2802735653029
723,724.2894998288263
724,724.2981006519042
725,724.3060963780252
726,724.3135096457493
727,724.3203650373246
728,724.3266887465343
729,724.3325082700485
730,724.3378521242264
731,724.3427495880189
732,724.3472304720846
733,724.3513249137669
734,724.3550631969034
735,724.3584755947742
736,724.3615922342011
737,724.3644429789703
738,724.3670573313178
739,724.3694643511907
740,724.3716925941513
741,724.3737700694089
742,724.3757242189074
743,724.3775819171848
744,724.3793694909999
745,724.3811127579514
746,724.3828370836853
747,724.3845674566339
748,724.3863285771233
749,724.3881449549082
750,724.3900410071338
751,724.3920411483148
752,724.3941698651541
753,724.3964517713047
754,724.3989116396739
755,724.4015744119049
756,724.4044651860669
757,724.4076091847692
758,724.411031707159
759,724.4147580693066
760,724.4188135379572
761,724.4232232625701
762,724.4280122102505
763,724.4332051079211
764,724.4388263958592
765,724.4449001964056
766,724.4514503010861
767,724.4585001784759
768,724.4660730037846
769,724.4741917094531
770,724.4828790542782
771,724.4921577067188
772,724.5020503358943
773,724.5125797015877
774,724.5237687331158
775,724.5356405870068
776,724.5482186750796
777,724.5615266571438
778,724.5755883952557
779,724.5904278685103
780,724.6060690482964
781,724.6225357339733
782,724.6398513485357
783,724.658038693688
784,724.6771196644221
785,724.6971149247977
786,724.7180435488128
787,724.739922632523
788,724.7627668856398
789,724.7865882124861
790,724.8113952932068
791,724.8371931763844
792,724.863982893549
793,724.8917611046506
794,724.920519781763
795,724.9502459365218
796,724.9809213952221
797,725.0125226239617
798,725.0450206044761
799,725.0783807594703
800,725.112562924908
801,725.1475213664694
802,725.1832048382103
803,725.2195566828261
804,725.2565149741124
805,725.2940127026101
806,725.3319780046947
807,725.3703344336705
808,725.4090012695166
809,725.4478938625186
810,725.4869240050662
811,725.5260003249176
812,725.5650286923781
813,725.6039126339737
814,725.6425537465482
815,725.6808521072846
816,725.7187066761677
817,725.7560156881498
818,725.7926770334062
819,725.8285886255742
820,725.8636487593934
821,725.8977564604943
822,725.9308118311232
823,725.9627163961874
824,725.993373453915
825,726.0226884346138
826,726.0505692696868
827,726.076926771459
828,726.101675022616
829,726.1247317722143
830,726.1460188336573
831,726.1654624793497
832,726.1829938272247
833,726.1985492154474
834,726.2120705623987
835,726.223505709101
836,726.2328087410222
837,726.2399402863397
838,726.2448677883456
839,726.2475657501229
840,726.2480159492392
841,726.2462076188291
842,726.2421375897651
843,726.2358103875789
844,726.2272382778486
845,726.2164412548291
846,726.2034469701033
847,726.188290600661
848,726.1710146582152
849,726.1516687428859
850,726.1303092445169
851,726.1069989944989
852,726.0818068708608
853,726.0548073599595
854,726.0260800792488
855,725.9957092669218
856,725.9637832455167
857,725.9303938677764
858,725.8956359536705
859,725.8596067268289
860,725.8224052567664
861,725.7841319110923
862,725.7448878202777
863,725.7047743566851
864,725.6638926291439
865,725.6223429941273
866,725.5802245847785
867,725.5376348597491
868,725.494669174588
869,725.4514203786822
870,725.4079784404628
871,725.3644301029304
872,725.3208585704334
873,725.2773432260262
874,725.2339593771087
875,725.1907780262194
876,725.1478656644864
877,725.1052840871587
878,725.0630902329605
879,725.0213360507967
880,724.9800683981147
881,724.9393289748857
882,724.8991542958025
883,724.8595757013142
884,724.8206194063686
885,724.7823065849439
886,724.7446534883744
887,724.7076715951796
888,724.6713677890752
889,724.6357445603129
890,724.6008002237483
891,724.5665291454831
892,724.5329219693467
893,724.4999658356272
894,724.4676445872
895,724.4359389615853
896,724.4048267705081
897,724.3742830706311
898,724.34428032998
899,724.3147885941405
900,724.2857756550428
901,724.2572072238031
902,724.2290471083027
903,724.2012573961802
904,724.1737986444597
905,724.1466300776518
906,724.1197097964185
907,724.0929949986239
908,724.066442213954
909,724.0400075527133
910,724.0136469694282
911,723.9873165427008
912,723.9609727737859
913,723.9345729065426
914,723.9080752701873
915,723.881439644129
916,723.8546276417214
917,723.8276031071836
