acceleration,velocity,displacement
-0.006818790847651445,0.0,0.0
-0.00551461258064227,-3.0833508570734288e-06,-7.708377142683573e-10
-0.004213842186346179,-5.515464548820541e-06,-2.9205415657418497e-09
-0.0029198687553486508,-7.298892284244248e-06,-6.1241307740080465e-09
-0.0016360440675899821,-8.437870489978906e-06,-1.0058321467563834e-08
-0.0003656645615842296,-8.938297647272458e-06,-1.4402363501876675e-08
0.0008880459774457203,-8.807702293307085e-06,-1.883886348702156e-08
0.002121952826632053,-8.055202592287642e-06,-2.3054589708420242e-08
0.003333025690354848,-6.691457963040917e-06,-2.674125484725238e-08
0.0045183529150271875,-4.728613311695409e-06,-2.9596272665936463e-08
0.0056751544696734685,-2.1802364655202446e-06,-3.132348511024037e-08
0.0068007936199287276,9.387505568803044e-07,-3.163385658740036e-08
0.007892787235551741,4.612145770750421e-06,-3.024613250549268e-08
0.00894881469373813,8.82254625307289e-06,-2.6887459499536852e-08
0.009966725369558841,1.3551431268897133e-05,-2.1293965119044347e-08
0.01094454472752204,1.8779248793167353e-05,-1.3211295103528225e-08
0.01188047903671381,2.4485504734226315e-05,-2.3951067216798085e-09
0.01277291873401765,3.064885417690918e-05,1.1388483006104064e-08
0.01362044047106193,3.724719397817907e-05,2.8362495044876128e-08
0.014421807908170662,4.425775607298722e-05,4.8738732557667703e-08
0.015175971354590359,5.1657200888677475e-05,7.271747179808388e-08
0.01588206638259146,5.942171032297293e-05,1.0048719960099648e-07
0.01653941155307338,6.752707980688914e-05,1.32224397133462e-07
0.017147505382410298,7.594880904076006e-05,1.680933693453743e-07
0.017706022661987217,8.466219105185944e-05,2.082461193685292e-07
0.018214810222466633,9.36423992729729e-05,2.528222669497373e-07
0.018673882221958992,0.00010286457238407931,3.0194900986400037e-07
0.019083415031878912,0.00011230389669753878,3.557411271344049e-07
0.019443741790574454,0.00012193568590315212,4.143010227845776e-07
0.019755346688850598,0.0001317354580230084,4.777188087661177e-07
0.020018859044621033,0.0001416790094563763,5.460724256359639e-07
0.020235047215501737,0.000151742486021407,6.194277995054096e-07
0.020404812385123452,0.00016190245092156328,6.978390337411522e-07
0.02052918224521006,0.00017213594957914667,7.813486338663297e-07
0.0206093045910911,0.00018242057128822195,8.699877640831719e-07
0.020646440854951174,0.00019273450764973251,9.637765338176605e-07
0.020641959607795256,0.00020305660776541912,1.0627243126714484e-06
0.020597330058315527,0.0002133664301819468,1.16683007215829e-06
0.020514115566235346,0.00022364429158808452,1.2760827526007978e-06
0.020393967174091882,0.00023387131227316633,1.3904616535661104e-06
0.02023861714401695,0.00024402945835269355,1.5099368462225755e-06
0.020049872466241462,0.00025410158075525813,1.6344696059995634e-06
0.019829608293777758,0.00026407145094526296,1.7640128639246937e-06
0.01957976126054778,0.00027392379333384434,1.8985116749944706e-06
0.019302322652948765,0.00028364431431221845,2.037903701905986e-06
0.01899933141778454,0.00029321972782990176,2.182119712441516e-06
0.01867286700043167,0.0003026377774344558,2.3310840887576056e-06
0.01832504201749608,0.00031188725468893775,2.484715346788454e-06
0.017957994773305005,0.00032095801388663803,2.6429266639323478e-06
0.0175738816215825,0.0003298409829853599,2.8056264131503474e-06
0.017174869155865188,0.0003385281706797218,2.972718701566618e-06
0.016763126199377257,0.0003470126695185324,3.1441039116161813e-06
0.016340815566923267,0.00035528865496010757,3.3196792427358413e-06
0.015910085585219867,0.00036335138024814334,3.499339251537904e-06
0.01547306137584967,0.0003711971669884107,3.6829763883470426e-06
0.015031835921338929,0.00037882339131270785,3.870481527922322e-06
0.01458846094919769,0.000386228465530342,4.061744492133085e-06
0.014144937685122726,0.0003934118151889221,4.2566545623129e-06
0.013703207546898738,0.0004003738514969275,4.455100978984362e-06
0.01326514286671318,0.0004071159391003305,4.656973426633677e-06
0.01283253773105294,0.000413640359249772,4.862162501221203e-06
0.012407099019131113,0.00041995026843731804,5.070560158142975e-06
0.011990437722123245,0.0004260496526226316,5.282060138407962e-06
0.011584060645952582,0.0004319432772146506,5.4965583708672825e-06
0.011189362628708082,0.00043763663303331574,5.713953348429274e-06
0.01080761942272908,0.00044313587854617504,5.934146476324147e-06
0.010439981395174623,0.00044844777875065097,6.157042390648353e-06
0.010087468194430425,0.00045357964114805225,6.382549245623029e-06
0.009750964517145858,0.00045853924932594633,6.610578968241529e-06
0.00943121708973259,0.0004633347947276659,6.841047479254932e-06
0.009128832945898623,0.0004679748072365737,7.073874879745991e-06
0.008844279042040784,0.0004724680852335586,7.3089856028635246e-06
0.008577883212560304,0.00047682362579720884,7.546308530621217e-06
0.008329836430339873,0.0004810505557079339,7.785777075997503e-06
0.00810019630272945,0.0004851580638912012,8.027329230897286e-06
0.007888891703245783,0.0004891553358926951,8.27090758084326e-06
0.007695728418286736,0.0004930514909230782,8.516459287547203e-06
0.007520395676619545,0.0004968555219468048,8.763936040764673e-06
0.007362473425144897,0.0005005762392222459,9.013293981056936e-06
0.00722144021896711,0.000504222217633274,9.264493595270815e-06
0.007096681606549161,0.000507801748089653,9.517499586701547e-06
0.006987498906120619,0.0005113227932178205,9.772280722028416e-06
0.006893118283795816,0.0005147929475152995,1.0028809657211696e-05
0.006812700058464665,0.0005182194021008646,1.0287062744615737e-05
0.006745348170629087,0.0005216089141581381,1.0547019823680487e-05
0.006690119753641522,0.0005249677811392057,1.0808663997504822e-05
0.006646034733481841,0.0005283018197609865,1.107198139772987e-05
0.006612085365989193,0.0005316163497858543,1.133696094011658e-05
0.006587245610337763,0.000534916182529936,1.1603594073195528e-05
0.006570480239699384,0.0005382056139924453,1.1871874522326122e-05
0.006560753600427042,0.0005414884224524769,1.2141798031437352e-05
0.006557037939584573,0.0005447678703374797,1.2413362104634842e-05
0.006558321220165533,0.0005480467101274173,1.2686565749751067e-05
0.006563614338342916,0.0005513271940170444,1.2961409225787182e-05
0.0065719576617907175,0.0005546110870170778,1.3237893796045713e-05
0.006582426830576857,0.0005578996831401697,1.3516021488585024e-05
0.006594137794261551,0.0005611938242963793,1.3795794865444162e-05
0.006606251086934525,0.0005644939215166783,1.4077216801897426e-05
0.0066179753608591315,0.0005677999781286267,1.4360290276808752e-05
0.006628570213286272,0.0005711116145221631,1.4645018174971449e-05
0.006637348354399639,0.0005744280941640846,1.493140310214301e-05
0.006643677176504449,0.0005777483505468107,1.5219447213320735e-05
0.006646979790123269,0.0005810710147884676,1.5509152054654556e-05
0.006646735586650412,0.000584394443632661,1.580051841925984e-05
0.006642480368055166,0.0005877167476213374,1.6093546217073338e-05
0.006633806056010975,0.000591035819227354,1.638823435878551e-05
0.0066203599682475725,0.0005943493607334186,1.6684580653775704e-05
0.006601843642453322,0.0005976549116360939,1.698258172186808e-05
0.006578011200878976,0.0006009498753469269,1.7282232918613838e-05
0.0065486672747994395,0.0006042315449658465,1.758352827369203e-05
0.00651366453617874,0.0006074971279185911,1.788646044191314e-05
0.006472900902801199,0.0006107437692783361,1.8191020666212373e-05
0.006426316486486048,0.0006139685736256579,1.8497198751938372e-05
0.006373890344463754,0.0006171686253333954,1.8804983051678135e-05
0.006315637077860325,0.0006203410071889764,1.9114360459808727e-05
0.0062516033036462285,0.000623482817284353,1.942531641592706e-05
0.006181864015311411,0.0006265911841140924,1.9737834916276673e-05
0.006106518851276597,0.0006296632798307393,2.005189853226288e-05
0.006025688307740841,0.0006326963316204937,2.036748843512569e-05
0.005939509952667697,0.0006356876311855959,2.068458442582721e-05
0.005848134710302351,0.0006386345423513384,2.1003164969211443e-05
0.005751723291339093,0.0006415345068517488,2.1323207231512216e-05
0.005650442848399225,0.0006443850483866834,2.1644687120321824e-05
0.005544463939579568,0.0006471837750836781,2.1967579326189415e-05
0.005433957876950532,0.0006499283805378106,2.2291857365094787e-05
0.0053190945179141325,0.0006526166436365267,2.261749362113837e-05
0.005200040532399366,0.0006552464273991051,2.2944459388897276e-05
0.005076958156772882,0.0006578156770713982,2.32727249150149e-05
0.004950004428224765,0.0006603224177176476,2.3602259438712164e-05
0.0048193308792787585,0.0006627647515445235,2.3933031231027705e-05
0.004685083660897857,0.0006651408551795676,2.4265007632708727e-05
0.0045474040554514825,0.0006674489771086549,2.4598155090780785e-05
0.00440642933585685,0.0006696874354564819,2.493243919392207e-05
0.004262293918040997,0.0006718546162699564,2.5267824706853678e-05
0.004115130734876697,0.0006739489724331859,2.5604275604029464e-05
0.00396507273400206,0.0006759690233004056,2.594175510296286e-05
0.0038122543787186204,0.0006779133550785857,2.628022569755761e-05
0.0036568130183587946,0.0006797806219278551,2.661964919180922e-05
0.00349888999600045,0.0006815695476814449,2.6959986734211545e-05
0.003338631378701626,0.0006832789280251205,2.7301198853138185e-05
0.003176188227965203,0.0006849076329267872,2.7643245493376163e-05
0.0030117163701497036,0.0006864546090763159,2.7986086053876938e-05
0.0028453756667907917,0.000687918882085551,2.8329679426667406e-05
0.0026773288142994322,0.0006892995582058236,2.867398403674025e-05
0.0025077397224681497,0.0006905958253400154,2.9018957882626712e-05
0.0023367715387894827,0.0006918069531553298,2.936455857725055e-05
0.00216458440408013,0.0006929322921410472,2.9710743388574644e-05
0.0019913330399346472,0.0006939712715020509,3.005746927948542e-05
0.0018171642707774706,0.000694923395829729,3.0404692946318363e-05
0.0016422145674967036,0.0006957882405392975,3.075237085541062e-05
0.0014666076732725898,0.0006965654460994898,3.110045927707032e-05
0.0012904523508475282,0.0006972547111055199,3.144891431637157e-05
0.0011138402836218355,0.0006978557842641372,3.179769194021398e-05
0.0009368441664061993,0.0006983684553766442,3.2146748000124175e-05
0.0007595160236478312,0.0006987925454241576,3.249603825032438e-05
0.0005818857868643161,0.0006991278958767856,3.284551836064961e-05
0.0004039601533291589,0.000699374357361834,3.319514392395927e-05
0.0002257217417388973,0.000699531777835601,3.3544870457758623e-05
4.712855751007829e-05,0.0006995999904104133,3.389465339982013e-05
-0.000131886224665477,0.0006995788009936244,3.424444809767114e-05
-0.0003114141615802928,0.0006994679758970629,3.4594209791893806e-05
-0.000491571131622535,0.0006992672295737622,3.4943893593261514e-05
-0.0006724966163606453,0.0006989762126367664,3.529345445381415e-05
-0.000854352664250291,0.0006985945003166136,3.5642847132052496e-05
-0.0010373225181853083,0.0006981215815210048,3.59920261525119e-05
-0.0012216088894756094,0.0006975568486690895,3.634094576005943e-05
-0.0014074318687223048,0.00069689958847954,3.668955986934658e-05
-0.0015950264724421542,0.0006961489738942489,3.703782200994003e-05
-0.0017846398328401941,0.0006953040573179284,3.738568526774308e-05
-0.001976528052450979,0.0006943637653466056,3.7733102223409214e-05
-0.002170952766534627,0.0006933268951418592,3.808002488853133e-05
-0.002368177476056238,0.0006921921125812114,3.8426404640462096e-05
-0.002568463723429805,0.0006909579522813399,3.877219215667774e-05
-0.0027720671818688074,0.0006896228195550153,3.9117337349636824e-05
-0.0029792337266002257,0.000688184994327898,3.9461789303107554e-05
-0.0031901955616762297,0.000686642637005829,3.9805496210940985e-05
-0.003405167487437897,0.0006849937962435504,4.014840531925333e-05
-0.0036243433981659637,0.0006832364185221495,4.049046287294475e-05
-0.003847893088472401,0.0006813683594004899,4.083161406742541e-05
-0.004075959423934961,0.000679387396272388,4.117180300634363e-05
-0.004308655904443757,0.0006772912424402933,4.15109726660218e-05
-0.004546064621541826,0.0006750775623087969,4.1849064867209076e-05
-0.00478823458386523,0.0006727439875074451,4.218602025466314e-05
-0.005035180358522539,0.0006702881337718482,4.2521778284982964e-05
-0.00528688095761773,0.0006677076184428132,4.285627722303663e-05
-0.005543278897971114,0.000665000078478916,4.3189454147267064e-05
-0.005804279382012173,0.0006621631889089202,4.352124496411402e-05
-0.0060697495827662425,0.0006591946816677256,4.385158443175818e-05
-0.006339518055103857,0.0006560923647582581,4.418040619336468e-05
-0.006613374329149324,0.0006528541416621949,4.450764281996979e-05
-0.0068910687636874164,0.0006494780308889857,4.483322586310759e-05
-0.007172312745359057,0.0006459621855117241,4.515708591720777e-05
-0.00745677931361733,0.00064230491249698,4.5479152691709946e-05
-0.007744104273529717,0.0006385046916001933,4.579935509273424e-05
-0.008033887833758229,0.0006345601935733712,4.611762131402763e-05
-0.008325696782398093,0.0006304702974193322,4.6433878936775806e-05
-0.008619067193114347,0.0006262341064254541,4.6748055037737e-05
-0.00891350763867569,0.0006218509627175066,4.7060076305022746e-05
-0.009208502877205597,0.0006173204600885363,4.7369869160724255e-05
-0.009503517966030365,0.0006126424548777272,4.767735988946582e-05
-0.009798002746919372,0.0006078170746994898,4.798247477186013e-05
-0.010091396635302065,0.0006028447248539345,4.828514022174848e-05
-0.010383133636177462,0.0005977260922860647,4.858528292603348e-05
-0.010672647501812803,0.0005924621470015671,4.888282998585539e-05
-0.010959376942989076,0.0005870541408903667,4.9177709057828376e-05
-0.011242770808084208,0.0005815036039525984,4.946984849403912e-05
-0.011522293150652787,0.0005758123379629141,4.9759177479517996e-05
-0.01179742811375565,0.000569982407646812,5.004562616592043e-05
-0.012067684567764001,0.0005640161294764322,5.032912580020124e-05
-0.012332600448682788,0.0005579160582223205,5.060960884712593e-05
-0.012591746755903735,0.0005516849714211738,5.08870091045368e-05
-0.012844731179519911,0.0005453258519373179,5.1161261810376425e-05
-0.013091201335241045,0.0005388418688086277,5.143230374056291e-05
-0.013330847589244478,0.0005322363565775063,5.1700073296909445e-05
-0.013563405457606313,0.0005255127933157936,5.196451058438277e-05
-0.013788657565897169,0.0005186747775599177,5.2225557477101695e-05
-0.014006435151972358,0.0005117260043804503,5.2483157672586784e-05
-0.01421661908774766,0.0005046702408205203,5.2737256733887025e-05
-0.014419140388353058,0.0004975113009514951,5.298780211933003e-05
-0.014613980178381863,0.0004902530208098114,5.3234743199770354e-05
-0.014801169099298876,0.0004828992334903912,5.3478031263345406e-05
-0.014980786162651527,0.0004754537446749036,5.371761950788673e-05
-0.01515295706754721,0.0004679203088673539,5.3953463021272294e-05
-0.015317852001302232,0.0004603026066001416,5.418551875013917e-05
-0.015475682934164969,0.0004526042228662748,5.441374545750577e-05
-0.015626700411991372,0.00044482862702973573,5.4638103669979774e-05
-0.01577118985109461,0.00043697915446396423,5.48585556153532e-05
-0.015909467350263704,0.00042905899016362466,5.50750651515101e-05
-0.016041875056994743,0.00042107115456181004,5.528759768769146e-05
-0.016168776156176,0.00041301849175851734,5.549612009927154e-05
-0.01629054958183862,0.0004049036603240137,5.5700600637292173e-05
-0.016407584573975276,0.0003967291267850602,5.590100883406944e-05
-0.01652027520538134,0.0003884971618402211,5.609731540622576e-05
-0.01662901499285552,0.0003802098392906619,5.628949215650848e-05
-0.016734191693220667,0.0003718690376191428,5.647751187573593e-05
-0.016836182372251405,0.0003634764441027748,5.666134824616641e-05
-0.016935348823481525,0.00035503356130384156,5.684097574751807e-05
-0.017032033403192644,0.000346541715747173,5.701636956678082e-05
-0.017126555336167963,0.0003380020685623329,5.7187505512858197e-05
-0.017219207531254603,0.00032941562784547727,5.735435993696015e-05
-0.017310253928456466,0.0003207832624805495,5.751690965954165e-05
-0.01739992738617681,0.00031210571715189117,5.7675131904449764e-05
-0.017488428109858553,0.0003033836282778823,5.782900424080721e-05
-0.01757592261825202,0.00029461754059585465,5.797850453302564e-05
-0.017662543240177794,0.0002858079241312472,5.812361089920742e-05
-0.017748388132483035,0.00027695519128808195,5.8264301678062254e-05
-0.01783352180319631,0.0002680597138041621,5.840055540433531e-05
-0.017917976107640086,0.000259121839326453,5.8532350792617964e-05
-0.018001751665653428,0.00025014190738312963,5.865966672929536e-05
-0.01808481963837061,0.00024112026455712363,5.878248227228042e-05
-0.018167123809270744,0.0002320572786952133,5.8900776658093505e-05
-0.018248582928455017,0.00022295335201078184,5.901452931577e-05
-0.018329093287844343,0.00021380893295670702,5.9123719887011875e-05
-0.01840853149381777,0.0002046245267612915,5.922832825194138e-05
-0.018486757398802813,0.00019540070453813636,5.9328334559766235e-05
-0.018563617148940777,0.00018613811090120047,5.9423719263626066e-05
-0.01863894629784711,0.0001768374700395035,5.951446315886124e-05
-0.018712572923743002,0.00016749959023410597,5.9600547423929644e-05
-0.018784320672447494,0.00015812536683505835,5.9681953663196935e-05
-0.01885401163692321,0.00014871578375771568,5.975866395084513e-05
-0.018921468974995057,0.0001392719136047361,5.983066087518574e-05
-0.018986519159299078,0.00012979491657116258,5.9897927582729715e-05
-0.019048993754346114,0.00012028603834275128,5.9960447821458195e-05
-0.019108730636841514,0.00011074660724495437,6.001820598285512e-05
-0.019165574617722916,0.00010117803093131326,6.007118714239919e-05
-0.019219377471646207,9.158179290897097e-05,6.011937709835926e-05
-0.019269997415920007,8.195944918707942e-05,6.016276240888327e-05
-0.01931729810460458,7.231262530694828e-05,6.0201330427506776e-05
-0.01936114722077111,6.264301397560435e-05,6.023506933732741e-05
-0.019401414762867525,5.29523734796947e-05,6.0263968184191235e-05
-0.019437971125805597,4.3242527007526415e-05,6.028801690931304e-05
-0.019470685071321134,3.351536295824473e-05,6.030720638180448e-05
-0.019499421669858928,2.3772836272949715e-05,6.032152843161228e-05
-0.01952404028542246,1.4016970784129368e-05,6.033097588337655e-05
-0.019544392667728495,4.249862545841629e-06,6.033554259170904e-05
-0.01956032120834422,-5.52631592317655e-06,6.033522347836471e-05
-0.019571657406269406,-1.5309310576829955e-05,6.033001457173971e-05
-0.019578220575585028,-2.5096780072293563e-05,6.031991304907743e-05
-0.019579816816411143,-3.488628942029261e-05,6.030491728170428e-05
-0.019576238260298487,-4.467530318947002e-05,6.028502688355184e-05
-0.019567262590905892,-5.446117840227111e-05,6.02602427631539e-05
-0.01955265283208848,-6.42411572580197e-05,6.023056717923883e-05
-0.019532157393324624,-7.401235981437298e-05,6.019600379997073e-05
-0.019505510369842247,-8.37717767551647e-05,6.015655776582835e-05
-0.019472432107535097,-9.351626237450903e-05,6.011223575604593e-05
-0.019432630050928785,-0.000103242527914125,6.006304605847377e-05
-0.019385799890491995,-0.00011294713539948019,6.000899864264537e-05
-0.019331627016727058,-0.00012262649212628496,5.995010523576393e-05
-0.01926978827647618,-0.00013227684594958576,5.988637940124496e-05
-0.01919995401036687,-0.00014189428152129653,5.981783661937724e-05
-0.019121790330342368,-0.00015147471760647383,5.974449436959529e-05
-0.019034961580690308,-0.000161013905584232,5.966637221379761e-05
-0.018939132921942697,-0.00017050742920989026,5.958349188009908e-05
-0.01883397298345642,-0.00017995070568624003,5.9495877346375046e-05
-0.01871915654020713,-0.00018933898806715592,5.94035549229367e-05
-0.01859436717339875,-0.0001986673689955574,5.930655333367102e-05
-0.018459299870213563,-0.00020793078575646046,5.920490379498302e-05
-0.018313663512145043,-0.00021712402660205012,5.909864009189339e-05
-0.01815718320170862,-0.00022624173828051354,5.898779865067275e-05
-0.01798960238345926,-0.00023527843467680552,5.887241860743342e-05
-0.017810684723358568,-0.00024422850645350997,5.8752541872150844e-05
-0.017620215721190227,-0.00025308623156464715,5.86282131876463e-05
