frame_number,force
0,723.3281250004626
1,723.4824559195064
2,723.635281332452
3,723.7851317902168
4,723.930608517301
5,724.0704152321472
6,724.2033860383777
7,724.3285086188863
8,724.4449423710422
9,724.5520314296224
10,724.6493126613539
11,724.7365187235906
12,724.8135762868455
13,724.8805996325476
14,724.9378800225936
15,724.9858713483426
16,725.0251725157437
17,725.0565069025059
18,725.0806992139042
19,725.0986502518165
20,725.1113104065602
21,725.1196529010575
22,725.1246478406692
23,725.1272379558006
24,725.1283166542794
25,725.1287087340723
26,725.1291539313743
27,725.1302934047493
28,725.1326592160668
29,725.136666816836
30,725.1426104979041
31,725.1506617032554
32,725.1608700073291
33,725.1731664532109
34,725.1873689591232
35,725.203189639893
36,725.2202440313179
37,725.2380622362166
38,725.2561019494698
39,725.2737632187095
40,725.2904046469439
41,725.3053605572777
42,725.317958531664
43,725.3275367909104
44,725.333461041491
45,725.335140565274
46,725.3320434449254
47,725.3237109183285
48,725.309770885103
49,725.2899504591492
50,725.2640872123822
51,725.2321385558952
52,725.1941886702634
53,725.1504524960319
54,725.1012764389232
55,725.0471355715507
56,724.9886272205457
57,724.9264609628013
58,724.8614452410632
59,724.7944709560895
60,724.7264923800554
61,724.6585056233864
62,724.5915248959915
63,724.5265570450341
64,724.464575195971
65,724.4064925741442
66,724.3531376739279
67,724.3052319277391
68,724.2633709543446
69,724.2280103078116
70,724.1994563707134
71,724.1778626790926
72,724.1632316171099
73,724.155421107418
74,724.1541556364047
75,724.1590407205463
76,724.1695797921761
77,724.1851924574682
78,724.2052331329883
79,724.2290092128272
80,724.2557981499276
81,724.2848630860121
82,724.3154668915711
83,724.3468846946473
84,724.3784151533658
85,724.4093907649083
86,724.439187371489
87,724.4672328219849
88,724.4930146134889
89,724.516086330909
90,724.5360727780615
91,724.5526737369878
92,724.5656662212846
93,724.5749049578956
94,724.5803208042619
95,724.581916976945
96,724.579763243673
97,724.5739884567388
98,724.5647719249158
99,724.5523341818363
100,724.5369277653617
101,724.5188286667586
102,724.4983290808239
103,724.4757319330795
104,724.4513473598641
105,724.4254909209983
106,724.3984829770707
107,724.3706485203201
108,724.342316846418
109,724.3138207136085
110,724.2854949295961
111,724.257674503773
112,724.2306925309597
113,724.2048778638059
114,724.1805524550281
115,724.1580280682136
116,724.1376019559301
117,724.1195511827729
118,724.1041255167523
119,724.0915390919596
120,724.0819612458753
121,724.0755070608797
122,724.0722282547009
123,724.0721051662176
124,724.0750405819877
125,724.080855998374
126,724.0892906926366
127,724.1000037855556
128,724.1125793393073
129,724.1265344255764
130,724.141330017064
131,724.1563845117137
132,724.1710896734008
133,724.1848286900318
134,724.1969958453111
135,724.2070170090423
136,724.2143698795148
137,724.2186027503031
138,724.2193505681905
139,724.2163472170233
140,724.2094332978429
141,724.1985591147252
142,724.1837829895542
143,724.1652653164272
144,724.1432589427964
145,724.1180966124844
146,724.0901763655309
147,724.0599459120772
148,724.0278869763578
149,723.9945003839259
150,723.9602923262102
151,723.9257619611066
152,723.8913904066709
153,723.8576312090366
154,723.8249023803922
155,723.7935800336247
156,723.7639935369707
157,723.7364220553275
158,723.7110923326743
159,723.6881775420277
160,723.6677969710586
161,723.6500162901806
162,723.6348482404178
163,723.6222537590689
164,723.6121437157128
165,723.6043814748571
166,723.598786465222
167,723.5951388937034
168,723.593185696713
169,723.5926477081686
170,723.5932278280998
171,723.5946197913046
172,723.5965170675601
173,723.598621474726
174,723.6006511446884
175,723.6023474423722
176,723.6034803249813
177,723.6038515877161
178,723.603295572523
179,723.601677178057
180,723.5988873108197
181,723.5948362139874
182,723.5894454016092
183,723.5826392005804
184,723.5743370844764
185,723.5644479597058
186,723.5528672943037
187,723.5394775331182
188,723.5241517430792
189,723.5067599924593
190,723.4871776606269
191,723.465294724903
192,723.4410250784701
193,723.4143150773805
194,723.3851507373889
195,723.3535632234732
196,723.3196324474367
197,723.283488707719
198,723.2453123862391
199,723.2053317861275
200,723.1638192751647
201,723.1210859877949
202,723.0774754172894
203,723.0333562891632
204,722.989115124566
205,722.9451488610662
206,722.9018578206484
207,722.8596392317578
208,722.8188814274346
209,722.7799587447613
210,722.7432270440715
211,722.7090196753837
212,722.6776436742773
213,722.6493759728235
214,722.6244594436168
215,722.6030986493371
216,722.5854552689871
217,722.5716433287308
218,722.56172452674
219,722.5557040043866
220,722.5535268302625
221,722.5550753057468
222,722.5601671184719
223,722.5685544381159
224,722.5799242094806
225,722.5939000415892
226,722.6100461441816
227,722.6278736887031
228,722.6468497580156
229,722.6664087227936
230,722.685965532245
231,722.7049301724603
232,722.7227225119898
233,722.7387868655348
234,722.7526057449938
235,722.7637123773508
236,722.771701656068
237,722.7762392647606
238,722.7770687890427
239,722.7740167459011
240,722.7669955882565
241,722.7560048181576
242,722.7411303495065
243,722.7225422393844
244,722.7004908672496
245,722.6753015888287
246,722.64736789442
247,722.6171432179262
248,722.5851317041457
249,722.5518782963521
250,722.517958385264
251,722.4839670573521
252,722.4505078496038
253,722.4181809110228
254,722.3875705183314
255,722.3592319437615
256,722.3336777645561
257,722.3113638702293
258,722.2926756220195
259,722.2779147921451
260,722.2672880593336
261,722.2608979749454
262,722.2587373607493
263,722.2606879150534
264,722.2665233802454
265,722.2759171452532
266,722.2884538015479
267,722.3036439587609
268,722.3209414830592
269,722.3397622237659
270,722.3595032846274
271,722.3795620036148
272,722.3993539765736
273,722.4183296062782
274,722.4359887541535
275,722.4518931655035
276,722.4656764657258
277,722.4770516622278
278,722.4858162006591
279,722.4918547168172
280,722.4951397147939
281,722.4957304691968
282,722.4937704381105
283,722.4894833499095
284,722.4831679416271
285,722.4751911935164
286,722.4659798890859
287,722.4560103956296
288,722.4457966652113
289,722.4358766169306
290,722.4267972664336
291,722.419099127445
292,722.4133004433475
293,722.4098817244758
294,722.4092709529145
295,722.4118297719933
296,722.4178410340944
297,722.4274981589701
298,722.4408967650546
299,722.4580289830076
300,722.4787807856812
301,722.502932565434
302,722.5301630571563
303,722.5600565975585
304,722.5921136640394
305,722.6257646082599
306,722.6603864203223
307,722.6953222110819
308,722.7299029343367
309,722.7634707373323
310,722.795403207967
311,722.8251376379424
312,722.8521942617176
313,722.8761973349028
314,722.8968929374885
315,722.9141625219123
316,722.9280314392201
317,722.9386719511612
318,722.9464005624096
319,722.9516698528499
320,722.9550553039087
321,722.9572378417207
322,722.9589829181799
323,722.9611169179718
324,722.9645015948784
325,722.970007211522
326,722.9784851163413
327,722.9907405827837
328,723.0075067773964
329,723.0294206665772
330,723.0570015444279
331,723.0906327670771
332,723.1305472624116
333,723.1768173703698
334,723.2293494677149
335,723.2878836487058
336,723.3519985133491
337,723.4211208876713
338,723.4945401074169
339,723.5714263586041
340,723.6508524380451
341,723.731818130156
342,723.813276234866
343,723.894159213801
344,723.9734054999593
345,724.0499847106266
346,724.1229212094615
347,724.191315582291
348,724.2543636314173
349,724.3113725576579
350,724.3617741523944
351,724.4051350107198
352,724.4411638910206
353,724.469716324542
354,724.4907964485218
355,724.5045558885404
356,724.5112894552816
357,724.5114275129945
358,724.5055251048818
359,724.494248196533
360,724.478357608484
361,724.4586912677772
362,724.4361453210956
363,724.4116545208676
364,724.3861722258587
365,724.3606503578649
366,724.336019653839
367,724.313170502945
368,724.2929345959117
369,724.2760675817191
370,724.2632329161619
371,724.254987100146
372,724.2517665872127
373,724.2538767962257
374,724.2614838091176
375,724.2746093528513
376,724.2931295339376
377,724.3167775964316
378,724.3451508106949
379,724.3777214966199
380,724.4138520960504
381,724.4528140675422
382,724.4938101290894
383,724.5359990219782
384,724.5785216003545
385,724.6205268148534
386,724.6611961719433
387,724.6997655169187
388,724.7355434077143
389,724.7679257984314
390,724.7964071344954
391,724.8205881838383
392,724.8401809418841
393,724.8550108070976
394,724.8650160718813
395,724.8702447408241
396,724.870848791785
397,724.8670761496132
398,724.8592607696166
399,724.8478113149713
400,724.8331989567524
401,724.8159447995793
402,724.7966073242342
403,724.7757700561581
404,724.7540294500953
405,724.7319827963637
406,724.710215896073
407,724.6892903493159
408,724.6697304837254
409,724.6520101535181
410,724.6365398530354
411,724.623654779679
412,724.6136045473539
413,724.6065451490566
414,724.6025335825295
415,724.6015253887357
416,724.6033752359622
417,724.6078405942575
418,724.6145884519215
419,724.623204901594
420,724.6332072941598
421,724.6440585815079
422,724.6551834498512
423,724.6659858215514
424,724.6758672391827
425,724.6842455929321
426,724.6905736467638
427,724.6943567878006
428,724.6951693185964
429,724.6926685324464
430,724.686605877917
431,724.6768347145814
432,724.6633143786395
433,724.6461104328748
434,724.6253910632639
435,724.6014196674711
436,724.5745438423791
437,724.545181226879
438,724.5138028977342
439,724.4809151620597
440,724.4470406435155
441,724.4126995545282
442,724.3783919729149
443,724.344581784686
444,724.311682759898
445,724.2800470672893
446,724.249956441125
447,724.2216161749997
448,724.1951520997907
449,724.1706106822205
450,724.1479623280135
451,724.1271078362091
452,724.1078876965064
453,724.0900936282163
454,724.0734815880195
455,724.0577854937706
456,724.0427310311271
457,724.0280490167714
458,724.0134878757825
459,723.9988248855276
460,723.9838759249145
461,723.968503494292
462,723.9526227554526
463,723.9362053692525
464,723.9192810015063
465,723.9019364383275
466,723.8843122406213
467,723.8665968429726
468,723.8490180640433
469,723.8318321376822
470,723.815310528465
471,723.7997249671878
472,723.7853313935997
473,723.7723537941189
474,723.7609690984167
475,723.751294197908
476,723.7433758148632
477,723.7371835842365
478,723.7326064850641
479,723.7294527073689
480,723.7274530763285
481,723.7262681461087
482,723.7254989152095
483,723.7247007878954
484,723.7234000332303
485,723.7211117679657
486,723.7173585036476
487,723.7116884639966
488,723.7036930441362
489,723.6930228581787
490,723.6794018024801
491,723.6626385153622
492,723.6426346212534
493,723.6193892441079
494,723.5929994804029
495,723.5636568640737
496,723.5316402787375
497,723.4973060799358
498,723.4610762040411
499,723.4234247998203
500,723.3848636410975
501,723.3459264600967
502,723.3071524385168
503,723.2690693395222
504,723.2321770160837
505,723.1969321454015
506,723.1637349530718
507,723.1329184421915
508,723.1047403255546
509,723.0793775918188
510,723.0569235435023
511,723.0373872858216
512,723.020695922784
513,723.0066999024132
514,722.9951818609723
515,722.9858689390966
516,722.9784480359993
517,722.9725830468907
518,722.9679329382836
519,722.9641695373438
520,722.9609940208288
521,722.9581512158445
522,722.9554410036692
523,722.9527263841601
524,722.9499380666637
525,722.9470757222515
526,722.9442061926509
527,722.9414589667302
528,722.9390191553082
529,722.937118144101
530,722.9360221519576
531,722.9360190312734
532,722.9374037739449
533,722.9404633222947
534,722.9454614208208
535,722.952624348245
536,722.9621283851548
537,722.9740897439011
538,722.9885574143394
539,723.0055090388535
540,723.0248496206666
541,723.0464126640564
542,723.0699632961474
543,723.0952030413594
544,723.1217761329965
545,723.1492773943517
546,723.1772616971441
547,723.2052548464322
548,723.2327655653598
549,723.2592981484424
550,723.2843653440548
551,723.3075010833837
552,723.3282727538137
553,723.3462928230755
554,723.361229750466
555,723.372818198065
556,723.3808685025518
557,723.3852751757682
558,723.3860239071433
559,723.3831962444121
560,723.3769710098848
561,723.3676217111494
562,723.3555096739755
563,723.3410731345436
564,723.3248128933551
565,723.307275327813
566,723.2890336223207
567,723.2706680420081
568,723.2527460255012
569,723.2358028806294
570,723.2203239231355
571,723.206728909349
572,723.1953594874685
573,723.1864701228112
574,723.1802226424631
575,723.1766843066372
576,723.1758291667003
577,723.1775423676884
578,723.1816269700956
579,723.1878128326179
580,723.1957671747759
581,723.2051066095729
582,723.2154105451687
583,723.2262357473271
584,723.2371315751418
585,723.2476551508507
586,723.2573856428712
587,723.2659369310729
588,723.2729681158212
589,723.278191533208
590,723.2813780615915
591,723.2823595650445
592,723.2810284561019
593,723.2773346780007
594,723.2712808262652
595,723.2629164377322
596,723.2523325021482
597,723.2396570021571
598,723.2250519195496
599,723.208711794404
600,723.1908635880119
601,723.1717672635803
602,723.1517162488946
603,723.1310368793705
604,723.1100860456959
605,723.089246550868
606,723.0689200576608
607,723.0495178634181
608,723.0314499544148
609,723.0151128531336
610,723.0008767715786
611,722.9890725941427
612,722.9799792145602
613,722.9738117169551
614,722.9707108638374
615,722.9707343721963
616,722.9738504767037
617,722.9799342257845
618,722.9887668357536
619,723.0000383127011
620,723.0133534869766
621,723.0282415521684
622,723.0441690755907
623,723.0605562111167
624,723.0767955597842
625,723.0922728995592
626,723.1063888811686
627,723.1185807077458
628,723.1283427485329
629,723.1352450465002
630,723.1389488703084
631,723.139218840529
632,723.1359315759065
633,723.1290810496382
634,723.118780841665
635,723.1052633308939
636,723.0888757643361
637,723.0700731579416
638,723.0494080903426
639,723.0275175529159
640,723.0051070698572
641,722.9829323380768
642,722.9617787293217
643,722.9424391596864
644,722.9256910082918
645,722.9122729088975
646,722.902862325357
647,722.8980548058319
648,722.8983456467124
649,722.9041144430578
650,722.9156127902825
651,722.932955300595
652,722.9561140804806
653,722.9849168547964
654,723.0190490064846
655,723.0580598403468
656,723.1013732317881
657,723.1483024551268
658,723.198068548698
659,723.2498212579243
660,723.3026614845509
661,723.3556642187016
662,723.4079010613982
663,723.4584616191775
664,723.5064732807059
665,723.5511191706449
666,723.5916543420262
667,723.6274203748255
668,723.6578584270502
669,723.6825205644004
670,723.7010791107468
671,723.7133338980979
672,723.7192174906097
673,723.7187985113427
674,723.7122830829752
675,723.7000142077178
676,723.682468745998
677,723.6602515576786
678,723.6340863994145
679,723.6048033573123
680,723.573322883601
681,723.5406367884706
682,723.5077867174158
683,723.4758407146376
684,723.4458685262468
685,723.4189163932303
686,723.3959821434931
687,723.3779913137746
688,723.3657748661799
689,723.3600489487087
690,723.3613971226828
691,723.3702554588996
692,723.3869008155698
693,723.4114424668021
694,723.4438171148186
695,723.4837872631593
696,723.5309429911373
697,723.584707304829
698,723.6443453282675
699,723.7089775613866
700,723.7775972788437
701,723.8490919156459
702,723.9222680294195
703,723.9958792246038
704,724.0686563402487
705,724.1393392277729
706,724.2067094712976
707,724.2696233065857
708,724.3270437537824
709,724.3780707081885
710,724.4219675744828
711,724.4581830465191
712,724.4863668141
713,724.5063782900559
714,724.5182878668695
715,724.522370666323
716,724.5190931441733
717,724.5090932246987
718,724.493154922425
719,724.472178696015
720,724.4471490172518
721,724.4191007224115
722,724.3890855904132
723,724.3581403398792
724,724.3272570187836
725,724.2973566640133
726,724.2692670649938
727,724.2437053277101
728,724.2212656211514
729,724.2024120716292
730,724.1874764233661
731,724.1766599101429
732,724.1700387373235
733,724.1675725489414
734,724.1691152039176
735,724.1744271436315
736,724.1831886516528
737,724.1950133993726
738,724.209461828128
739,724.22605413709
740,724.2442828923989
741,724.263625430765
742,724.2835562038412
743,724.3035590735818
744,724.3231395052308
745,724.3418366808107
746,724.3592356486943
747,724.3749795513371
748,724.3887816672742
749,724.4004365868385
750,724.4098295306931
751,724.416942760718
752,724.4218582247612
753,724.4247559266247
754,724.4259078950606
755,724.4256679326243
756,724.4244575333141
757,724.4227485315483
758,724.4210432291164
759,724.4198529002566
760,724.4196756420982
761,724.4209745219517
762,724.424156921689
763,724.4295559352952
764,724.4374146420616
765,724.4478740277993
766,724.460965239195
767,724.4766067159675
768,724.4946065348736
769,724.5146700352369
770,724.5364125157184
771,724.5593764948925
772,724.5830526839811
773,724.6069034623779
774,724.6303874011862
775,724.6529833663847
776,724.6742129603692
777,724.6936604329654
778,724.7109895763516
779,724.7259573916633
780,724.7384244170877
781,724.7483615621218
782,724.755853182614
783,724.7610960589229
784,724.7643939946304
785,724.7661479577066
786,724.7668419825519
787,724.7670253673786
788,724.7672919911925
789,724.7682578051227
790,724.7705376945014
791,724.7747229359751
792,724.7813603710116
793,724.7909342021856
794,724.8038510543523
795,724.8204286913758
796,724.8408885637248
797,724.8653521607268
798,724.8938409136848
799,724.926279157119
800,724.9624994989491
801,725.0022499650829
802,725.0452024681084
803,725.0909624184395
804,725.1390795368561
805,725.1890600430136
806,725.24038033167
807,725.2925020329649
808,725.3448880989515
809,725.3970193779654
810,725.4484110251348
811,725.4986279739101
812,725.547298585094
813,725.5941256308671
814,725.638893994552
815,725.6814747234296
816,725.7218252360761
817,725.7599856065102
818,725.796071023984
819,725.830260762163
820,725.8627842279062
821,725.8939048648806
822,725.9239028490231
823,725.9530576045414
824,725.981631155979
825,726.0098532075738
826,726.0379086368969
827,726.0659278446162
828,726.0939801332077
829,726.1220700057845
830,726.1501360370943
831,726.1780518664337
832,726.2056289389731
833,726.2326207952094
834,726.2587288302781
835,726.2836094486685
836,726.3068824954217
837,726.3281408548487
838,726.3469611823931
839,726.3629157827344
840,726.375585559188
841,726.3845737132182
842,726.3895195738431
843,726.3901117334084
844,726.3860996260535
845,726.37730279947
846,726.3636173864282
847,726.3450196337421
848,726.3215666614959
849,726.293394770605
850,726.260715578407
851,726.2238101435647
852,726.1830211676387
853,726.1387433974917
854,726.0914124823701
855,726.0414927010145
856,725.9894641378255
857,725.9358100426862
858,725.8810051805332
859,725.8255058578173
860,725.7697420122119
861,725.7141114103292
862,725.6589757513393
863,725.6046583524563
864,725.5514430452002
865,725.4995739030663
866,725.4492554816633
867,725.40065340112
868,725.3538952629565
869,725.3090719792779
870,725.2662395964725
871,725.2254216437517
872,725.1866119146522
873,725.1497773932676
874,725.1148608362205
875,725.0817824448376
876,725.0504402093866
877,725.0207088533634
878,724.9924377103656
879,724.9654481843328
880,724.9395316009337
881,724.9144482361643
882,724.8899281221735
883,724.865673943781
884,724.8413660826955
885,724.8166697526801
886,724.7912441611401
887,724.7647535839681
888,724.7368800735973
889,724.7073372688375
890,724.6758844875492
891,724.642340020008
892,724.6065924272735
893,724.5686088008309
894,724.5284393379427
895,724.4862180856733
896,724.4421601525007
897,724.3965559880601
898,724.3497634409829
899,724.3021982190504
900,724.2543231655252
901,724.2066365488253
902,724.1596594385904
903,724.1139222452259
904,724.0699505970902
905,724.0282508439017
906,723.9892955402993
907,723.9535092540743
908,723.9212549824643
909,723.8928214143133
910,723.8684113274134
911,723.8481315879166
912,723.8319854323978
913,723.819867794323
914,723.8115643000601
915,723.8067542766014
916,723.8050177800145
917,723.8058462941201
