frame_number,force
0,723.3281249999608
1,723.4824559190187
2,723.6352813319801
3,723.7851317897619
4,723.9306085168639
5,724.0704152317287
6,724.2033860379785
7,724.3285086185064
8,724.4449423706809
9,724.5520314292783
10,724.6493126610247
11,724.7365187232737
12,724.8135762865376
13,724.8805996322457
14,724.9378800222951
15,724.9858713480456
16,725.0251725154471
17,725.0565069022084
18,725.0806992136049
19,725.0986502515151
20,725.1113104062564
21,725.1196529007509
22,725.1246478403589
23,725.1272379554855
24,725.1283166539583
25,725.1287087337447
26,725.1291539310398
27,725.1302934044081
28,725.1326592157196
29,725.1366668164836
30,725.1426104975474
31,725.1506617028953
32,725.1608700069667
33,725.173166452847
34,725.1873689587583
35,725.2031896395272
36,725.2202440309509
37,725.2380622358482
38,725.2561019490994
39,725.2737632183363
40,725.290404646567
41,725.3053605568963
42,725.3179585312764
43,725.3275367905145
44,725.3334610410843
45,725.3351405648542
46,725.3320434444906
47,725.3237109178772
48,725.309770884634
49,725.2899504586618
50,725.2640872118767
51,725.2321385553724
52,725.1941886697248
53,725.1504524954789
54,725.1012764383574
55,725.047135570974
56,724.98862721996
57,724.9264609622086
58,724.8614452404653
59,724.7944709554887
60,724.7264923794543
61,724.6585056227876
62,724.5915248953976
63,724.5265570444476
64,724.464575195394
65,724.4064925735782
66,724.3531376733737
67,724.3052319271967
68,724.2633709538139
69,724.2280103072922
70,724.1994563702044
71,724.1778626785925
72,724.1632316166161
73,724.1554211069276
74,724.1541556359147
75,724.1590407200534
76,724.1695797916778
77,724.1851924569622
78,724.2052331324726
79,724.2290092123004
80,724.2557981493882
81,724.2848630854587
82,724.3154668910026
83,724.3468846940636
84,724.3784151527673
85,724.4093907642962
86,724.4391873708657
87,724.4672328213534
88,724.4930146128523
89,724.5160863302714
90,724.5360727774267
91,724.5526737363606
92,724.5656662206691
93,724.5749049572954
94,724.5803208036796
95,724.5819169763821
96,724.579763243131
97,724.5739884562184
98,724.5647719244173
99,724.5523341813587
100,724.5369277649036
101,724.5188286663179
102,724.4983290803985
103,724.4757319326679
104,724.4513473594641
105,724.425490920607
106,724.3984829766853
107,724.3706485199377
108,724.3423168460354
109,724.3138207132221
110,724.2854949292027
111,724.2576745033701
112,724.2306925305452
113,724.2048778633784
114,724.180552454587
115,724.1580280677589
116,724.1376019554623
117,724.1195511822933
118,724.1041255162633
119,724.0915390914638
120,724.0819612453756
121,724.0755070603788
122,724.0722282542006
123,724.0721051657189
124,724.0750405814908
125,724.0808559978791
126,724.0892906921437
127,724.1000037850648
128,724.1125793388188
129,724.1265344250903
130,724.1413300165804
131,724.1563845112331
132,724.1710896729244
133,724.1848286895605
134,724.196995844846
135,724.2070170085849
136,724.2143698790668
137,724.2186027498666
138,724.2193505677678
139,724.2163472166166
140,724.2094332974533
141,724.1985591143533
142,724.1837829892
143,724.1652653160904
144,724.1432589424766
145,724.1180966121809
146,724.0901763652431
147,724.0599459118046
148,724.0278869760992
149,723.9945003836805
150,723.960292325977
151,723.9257619608853
152,723.8913904064616
153,723.8576312088394
154,723.8249023802068
155,723.7935800334504
156,723.7639935368062
157,723.7364220551708
158,723.7110923325234
159,723.6881775418803
160,723.6677969709118
161,723.6500162900314
162,723.6348482402635
163,723.6222537589068
164,723.6121437155404
165,723.6043814746723
166,723.5987864650234
167,723.5951388934893
168,723.593185696482
169,723.592647707919
170,723.5932278278295
171,723.5946197910112
172,723.5965170672407
173,723.5986214743776
174,723.6006511443081
175,723.6023474419577
176,723.6034803245313
177,723.6038515872305
178,723.6032955720028
179,723.6016771775044
180,723.5988873102372
181,723.5948362133774
182,723.5894454009743
183,723.5826391999232
184,723.5743370837994
185,723.5644479590119
186,723.5528672935957
187,723.5394775323991
188,723.5241517423519
189,723.5067599917268
190,723.4871776598922
191,723.4652947241685
192,723.4410250777382
193,723.4143150766528
194,723.3851507366672
195,723.3535632227595
196,723.3196324467328
197,723.2834887070265
198,723.2453123855593
199,723.2053317854616
200,723.1638192745133
201,723.1210859871586
202,723.077475416668
203,723.0333562885558
204,722.989115123971
205,722.9451488604822
206,722.9018578200739
207,722.8596392311925
208,722.8188814268791
209,722.7799587442163
210,722.7432270435378
211,722.709019674862
212,722.6776436737687
213,722.6493759723285
214,722.6244594431354
215,722.6030986488684
216,722.5854552685298
217,722.5716433282837
218,722.5617245263015
219,722.5557040039554
220,722.5535268298372
221,722.5550753053262
222,722.5601671180555
223,722.5685544377035
224,722.5799242090724
225,722.5939000411859
226,722.610046143784
227,722.6278736883121
228,722.6468497576328
229,722.6664087224208
230,722.6859655318838
231,722.7049301721121
232,722.7227225116554
233,722.7387868652145
234,722.7526057446865
235,722.7637123770548
236,722.7717016557814
237,722.776239264481
238,722.7770687887676
239,722.7740167456283
240,722.7669955879838
241,722.7560048178835
242,722.7411303492293
243,722.7225422391027
244,722.7004908669627
245,722.6753015885362
246,722.6473678941222
247,722.6171432176243
248,722.5851317038411
249,722.551878296046
250,722.5179583849576
251,722.4839670570468
252,722.4505078493012
253,722.4181809107238
254,722.3875705180369
255,722.3592319434722
256,722.3336777642721
257,722.3113638699507
258,722.2926756217463
259,722.2779147918773
260,722.2672880590708
261,722.260897974687
262,722.2587373604948
263,722.2606879148021
264,722.2665233799964
265,722.2759171450053
266,722.288453801299
267,722.3036439585078
268,722.3209414827984
269,722.3397622234935
270,722.3595032843398
271,722.3795620033085
272,722.3993539762456
273,722.4183296059257
274,722.4359887537742
275,722.4518931650956
276,722.4656764652882
277,722.4770516617604
278,722.4858162001625
279,722.4918547162931
280,722.4951397142447
281,722.4957304686253
282,722.4937704375196
283,722.4894833493029
284,722.4831679410083
285,722.4751911928892
286,722.4659798884545
287,722.4560103949984
288,722.4457966645848
289,722.435876616313
290,722.4267972658288
291,722.419099126857
292,722.4133004427805
293,722.4098817239338
294,722.4092709524011
295,722.411829771511
296,722.4178410336445
297,722.4274981585538
298,722.4408967646721
299,722.4580289826586
300,722.4787807853652
301,722.5029325651496
302,722.530163056902
303,722.5600565973318
304,722.5921136638374
305,722.6257646080792
306,722.660386420159
307,722.6953222109327
308,722.7299029341978
309,722.7634707371997
310,722.7954032078359
311,722.8251376378084
312,722.8521942615769
313,722.8761973347521
314,722.8968929373256
315,722.9141625217361
316,722.9280314390301
317,722.9386719509565
318,722.9464005621896
319,722.9516698526138
320,722.9550553036559
321,722.9572378414512
322,722.9589829178943
323,722.9611169176715
324,722.9645015945649
325,722.9700072111975
326,722.9784851160082
327,722.9907405824445
328,723.007506777053
329,723.0294206662314
330,723.0570015440816
331,723.0906327667316
332,723.1305472620679
333,723.1768173700287
334,723.2293494673771
335,723.2878836483723
336,723.3519985130204
337,723.4211208873475
338,723.494540107098
339,723.5714263582903
340,723.650852437736
341,723.7318181298511
342,723.8132762345657
343,723.8941592135061
344,723.9734054996707
345,724.0499847103453
346,724.1229212091883
347,724.1913155820267
348,724.2543636311619
349,724.3113725574111
350,724.3617741521558
351,724.4051350104888
352,724.4411638907966
353,724.4697163243243
354,724.4907964483092
355,724.5045558883312
356,724.511289455074
357,724.5114275127866
358,724.505525104671
359,724.494248196317
360,724.478357608261
361,724.4586912675464
362,724.436145320857
363,724.4116545206218
364,724.3861722256066
365,724.360650357608
366,724.3360196535789
367,724.3131705026833
368,724.2929345956501
369,724.2760675814596
370,724.2632329159064
371,724.2549870998961
372,724.2517665869698
373,724.2538767959908
374,724.2614838088917
375,724.2746093526355
376,724.2931295337333
377,724.3167775962404
378,724.3451508105181
379,724.3777214964585
380,724.4138520959057
381,724.4528140674149
382,724.4938101289797
383,724.5359990218858
384,724.5785216002786
385,724.6205268147927
386,724.6611961718962
387,724.6997655168836
388,724.7355434076895
389,724.767925798415
390,724.796407134486
391,724.8205881838347
392,724.8401809418859
393,724.8550108071045
394,724.865016071893
395,724.8702447408406
396,724.8708487918062
397,724.8670761496397
398,724.8592607696486
399,724.8478113150087
400,724.8331989567953
401,724.8159447996272
402,724.7966073242867
403,724.775770056214
404,724.7540294501529
405,724.7319827964207
406,724.7102158961268
407,724.6892903493632
408,724.6697304837628
409,724.6520101535419
410,724.636539853042
411,724.6236547796647
412,724.6136045473154
413,724.6065451489915
414,724.6025335824361
415,724.6015253886131
416,724.6033752358106
417,724.6078405940774
418,724.6145884517135
419,724.6232049013593
420,724.6332072938998
421,724.644058581225
422,724.6551834495478
423,724.6659858212307
424,724.6758672388476
425,724.6842455925852
426,724.6905736464074
427,724.6943567874365
428,724.6951693182259
429,724.6926685320709
430,724.6866058775373
431,724.6768347141983
432,724.6633143782537
433,724.6461104324871
434,724.625391062875
435,724.6014196670816
436,724.57454384199
437,724.5451812264915
438,724.5138028973495
439,724.4809151616788
440,724.4470406431396
441,724.4126995541584
442,724.3783919725519
443,724.3445817843304
444,724.3116827595496
445,724.2800470669479
446,724.2499564407897
447,724.2216161746692
448,724.1951520994644
449,724.170610681898
450,724.147962327695
451,724.127107835896
452,724.1078876962001
453,724.0900936279183
454,724.0734815877315
455,724.0577854934943
456,724.0427310308642
457,724.0280490165229
458,724.013487875549
459,723.9988248853087
460,723.9838759247094
461,723.9685034940995
462,723.9526227552715
463,723.9362053690814
464,723.9192810013435
465,723.901936438171
466,723.8843122404686
467,723.8665968428215
468,723.8490180638921
469,723.8318321375294
470,723.8153105283097
471,723.7997249670291
472,723.7853313934364
473,723.7723537939501
474,723.7609690982408
475,723.7512941977233
476,723.7433758146675
477,723.7371835840274
478,723.7326064848389
479,723.7294527071247
480,723.7274530760624
481,723.7262681458178
482,723.7254989148911
483,723.7247007875472
484,723.723400032851
485,723.7211117675548
486,723.7173585032058
487,723.7116884635255
488,723.7036930436389
489,723.6930228576587
490,723.6794018019419
491,723.6626385148106
492,723.6426346206936
493,723.6193892435458
494,723.5929994798446
495,723.5636568635252
496,723.531640278205
497,723.4973060794248
498,723.4610762035561
499,723.4234247993646
500,723.3848636406734
501,723.3459264597054
502,723.3071524381584
503,723.2690693391961
504,723.2321770157889
505,723.1969321451357
506,723.1637349528318
507,723.1329184419735
508,723.1047403253548
509,723.0793775916331
510,723.0569235433271
511,723.0373872856536
512,723.0206959226202
513,723.0066999022512
514,722.9951818608097
515,722.9858689389313
516,722.9784480358295
517,722.972583046715
518,722.9679329381015
519,722.9641695371548
520,722.9609940206321
521,722.9581512156388
522,722.9554410034532
523,722.9527263839324
524,722.9499380664229
525,722.9470757219966
526,722.9442061923811
527,722.941458966445
528,722.9390191550071
529,722.9371181437838
530,722.9360221516239
531,722.936019030923
532,722.9374037735782
533,722.9404633219127
534,722.945461420425
535,722.9526243478367
536,722.9621283847353
537,722.9740897434714
538,722.9885574139001
539,723.0055090384052
540,723.0248496202095
541,723.04641266359
542,723.0699632956708
543,723.0952030408715
544,723.1217761324966
545,723.1492773938393
546,723.1772616966192
547,723.2052548458955
548,723.2327655648129
549,723.2592981478876
550,723.2843653434953
551,723.3075010828235
552,723.3282727532566
553,723.3462928225252
554,723.3612297499267
555,723.3728181975401
556,723.3808685020444
557,723.3852751752814
558,723.38602390668
559,723.3831962439747
560,723.3769710094751
561,723.3676217107688
562,723.3555096736247
563,723.3410731342228
564,723.3248128930633
565,723.307275327549
566,723.2890336220827
567,723.270668041794
568,723.2527460253084
569,723.2358028804542
570,723.2203239229738
571,723.206728909196
572,723.1953594873199
573,723.1864701226624
574,723.1802226423099
575,723.1766843064756
576,723.175829166527
577,723.1775423675005
578,723.1816269698908
579,723.1878128323942
580,723.1957671745322
581,723.2051066093084
582,723.2154105448832
583,723.2262357470214
584,723.2371315748169
585,723.2476551505076
586,723.257385642511
587,723.2659369306967
588,723.2729681154299
589,723.2781915328027
590,723.281378061174
591,723.2823595646173
592,723.2810284556674
593,723.2773346775613
594,723.2712808258228
595,723.2629164372886
596,723.252332501705
597,723.2396570017162
598,723.2250519191133
599,723.2087117939749
600,723.1908635875927
601,723.1717672631737
602,723.1517162485032
603,723.1310368789964
604,723.1100860453406
605,723.089246550533
606,723.068920057347
607,723.0495178631262
608,723.0314499541447
609,723.0151128528852
610,723.0008767713514
611,722.9890725939354
612,722.9799792143716
613,722.9738117167841
614,722.9707108636825
615,722.9707343720554
616,722.9738504765742
617,722.9799342256629
618,722.9887668356354
619,723.000038312581
620,723.0133534868487
621,723.0282415520272
622,723.0441690754307
623,723.0605562109328
624,723.0767955595718
625,723.0922728993148
626,723.1063888808894
627,723.1185807074296
628,723.1283427481786
629,723.1352450461081
630,723.1389488698798
631,723.1392188400663
632,723.1359315754135
633,723.1290810491203
634,723.1187808411283
635,723.1052633303455
636,723.0888757637833
637,723.0700731573924
638,723.0494080898044
639,723.0275175523954
640,723.00510706936
641,722.9829323376073
642,722.9617787288834
643,722.9424391592812
644,722.92569100792
645,722.9122729085582
646,722.9028623250481
647,722.8980548055506
648,722.8983456464553
649,722.9041144428207
650,722.9156127900609
651,722.932955300384
652,722.9561140802754
653,722.9849168545925
654,723.0190490062779
655,723.0580598401335
656,723.1013732315646
657,723.1483024548901
658,723.1980685484458
659,723.2498212576552
660,723.3026614842645
661,723.3556642183983
662,723.4079010610791
663,723.4584616188439
664,723.50647328036
665,723.5511191702884
666,723.5916543416612
667,723.6274203744539
668,723.6578584266741
669,723.6825205640225
670,723.70107911037
671,723.7133338977247
672,723.7192174902425
673,723.7187985109832
674,723.7122830826241
675,723.700014207375
676,723.6824687456626
677,723.6602515573493
678,723.6340863990897
679,723.6048033569907
680,723.5733228832814
681,723.5406367881523
682,723.5077867170977
683,723.4758407143182
684,723.4458685259242
685,723.4189163929025
686,723.3959821431584
687,723.3779913134318
688,723.3657748658279
689,723.3600489483463
690,723.3613971223085
691,723.3702554585122
692,723.3869008151687
693,723.411442466387
694,723.4438171143902
695,723.483787262719
696,723.5309429906864
697,723.5847073043697
698,723.6443453278024
699,723.7089775609182
700,723.7775972783741
701,723.8490919151769
702,723.9222680289535
703,723.9958792241437
704,724.0686563397983
705,724.1393392273359
706,724.2067094708775
707,724.2696233061854
708,724.327043753404
709,724.3780707078336
710,724.4219675741518
711,724.4581830462121
712,724.4863668138163
713,724.5063782897951
714,724.5182878666313
715,724.5223706661069
716,724.5190931439787
717,724.5090932245248
718,724.493154922271
719,724.4721786958797
720,724.4471490171338
721,724.419100722309
722,724.3890855903242
723,724.3581403398009
724,724.3272570187129
725,724.297356663947
726,724.2692670649283
727,724.2437053276414
728,724.2212656210748
729,724.2024120715404
730,724.1874764232605
731,724.1766599100165
732,724.1700387371727
733,724.1675725487635
734,724.1691152037106
735,724.1744271433945
736,724.1831886513855
737,724.1950133990755
738,724.2094618278027
739,724.2260541367386
740,724.2442828920248
741,724.2636254303723
742,724.2835562034342
743,724.3035590731646
744,724.3231395048068
745,724.3418366803834
746,724.3592356482667
747,724.3749795509125
748,724.3887816668557
749,724.4004365864289
750,724.4098295302945
751,724.4169427603324
752,724.4218582243898
753,724.4247559262681
754,724.4259078947191
755,724.4256679322978
756,724.4244575330024
757,724.4227485312507
758,724.4210432288318
759,724.4198528999835
760,724.4196756418352
761,724.4209745216963
762,724.4241569214385
763,724.4295559350469
764,724.4374146418129
765,724.4478740275476
766,724.4609652389379
767,724.4766067157026
768,724.4946065345997
769,724.5146700349541
770,724.536412515428
771,724.5593764945966
772,724.5830526836825
773,724.6069034620795
774,724.6303874008911
775,724.6529833660958
776,724.6742129600896
777,724.6936604326972
778,724.7109895760964
779,724.7259573914217
780,724.7384244168597
781,724.748361561907
782,724.7558531824121
783,724.7610960587333
784,724.7643939944523
785,724.7661479575394
786,724.7668419823946
787,724.76702536723
788,724.7672919910508
789,724.7682578049854
790,724.7705376943657
791,724.774722935839
792,724.7813603708734
793,724.7909342020436
794,724.8038510542054
795,724.8204286912232
796,724.8408885635656
797,724.86535216056
798,724.8938409135089
799,724.9262791569331
800,724.9624994987529
801,725.0022499648762
802,725.0452024678914
803,725.0909624182126
804,725.13907953662
805,725.1890600427685
806,725.240380331416
807,725.2925020327012
808,725.344888098677
809,725.3970193776781
810,725.4484110248329
811,725.4986279735924
812,725.5472985847599
813,725.5941256305164
814,725.6388939941847
815,725.6814747230463
816,725.7218252356781
817,725.7599856060991
818,725.7960710235625
819,725.830260761734
820,725.8627842274735
821,725.8939048644482
822,725.923902848595
823,725.9530576041212
824,725.9816311555696
825,726.0098532071775
826,726.037908636515
827,726.0659278442494
828,726.0939801328554
829,726.1220700054462
830,726.1501360367687
831,726.1780518661197
832,726.2056289386692
833,726.2326207949142
834,726.25872882999
835,726.2836094483864
836,726.3068824951446
837,726.328140854575
838,726.3469611821216
839,726.3629157824633
840,726.375585558916
841,726.3845737129441
842,726.3895195735668
843,726.39011173313
844,726.3860996257738
845,726.3773027991904
846,726.3636173861499
847,726.3450196334667
848,726.3215666612246
849,726.293394770339
850,726.2607155781469
851,726.2238101433105
852,726.1830211673903
853,726.1387433972486
854,726.0914124821317
855,726.04149270078
856,725.9894641375953
857,725.9358100424608
858,725.8810051803142
859,725.8255058576065
860,725.7697420120109
861,725.7141114101399
862,725.6589757511633
863,725.604658352295
864,725.5514430450544
865,725.4995739029364
866,725.4492554815494
867,725.4006534010218
868,725.3538952628732
869,725.3090719792082
870,725.266239596415
871,725.2254216437049
872,725.1866119146144
873,725.149777393237
874,725.1148608361947
875,725.0817824448143
876,725.0504402093632
877,725.0207088533372
878,724.9924377103339
879,724.9654481842932
880,724.9395316008842
881,724.9144482361025
882,724.8899281220973
883,724.8656739436882
884,724.841366082584
885,724.816669752548
886,724.7912441609852
887,724.7647535837884
888,724.7368800733915
889,724.707337268605
890,724.6758844872909
891,724.6423400197259
892,724.6065924269706
893,724.5686088005102
894,724.5284393376071
895,724.4862180853255
896,724.4421601521428
897,724.396555987694
898,724.3497634406103
899,724.302198218673
900,724.2543231651446
901,724.206636548443
902,724.1596594382083
903,724.113922244846
904,724.0699505967149
905,724.0282508435336
906,723.9892955399405
907,723.9535092537269
908,723.9212549821304
909,723.8928214139952
910,723.8684113271128
911,723.8481315876342
912,723.8319854321334
913,723.8198677940758
914,723.8115642998284
915,723.8067542763835
916,723.8050177798085
917,723.8058462939238
