frame_number,force
0,723.3281249971358
1,723.4247083469236
2,723.5210376395602
3,723.6168602345005
4,723.7119263049864
5,723.805990197106
6,723.8988117338074
7,723.99015744982
8,724.0798017467154
9,724.1675279600731
10,724.2531293323972
11,724.3364098863278
12,724.4171851936509
13,724.4952830373127
14,724.5705439658831
15,724.642821741651
16,724.7119836841837
17,724.7779109113252
18,724.8404984804637
19,724.8996554350206
20,724.9553047638814
21,725.0073832836682
22,725.0558414545148
23,725.1006431393873
24,725.1417653155678
25,725.1791977454114
26,725.2129426124823
27,725.2430141287447
28,725.2694381181926
29,725.2922515818291
30,725.3115022483652
31,725.3272481143509
32,725.3395569764303
33,725.3485059573493
34,725.3541810269949
35,725.3566765202507
36,725.3560946539625
37,725.3525450450848
38,725.3461442312569
39,725.3370151939948
40,725.3252868833432
41,725.3110937412922
42,725.2945752203145
43,725.2758752935938
44,725.2551419544934
45,725.2325267038157
46,725.2081840242428
47,725.1822708421563
48,725.1549459774236
49,725.1263695811234
50,725.0967025598127
51,725.0661059839464
52,725.03474047821
53,725.0027655925949
54,724.9703391544267
55,724.9376166028202
56,724.9047503081475
57,724.8718888803755
58,724.8391764717059
59,724.8067520802074
60,724.7747488612496
61,724.7432934529198
62,724.7125053217165
63,724.6824961363997
64,724.6533691800768
65,724.6252188120757
66,724.5981299914538
67,724.5721778735063
68,724.5474274896725
69,724.5239335196288
70,724.5017401618786
71,724.4808811060823
72,724.4613796073137
73,724.4432486595897
74,724.4264912633357
75,724.4111007791279
76,724.3970613584473
77,724.384348441294
78,724.3729293101885
79,724.362763690443
80,724.3538043875742
81,724.3459979539215
82,724.3392853776438
83,724.3336027883975
84,724.3288821749368
85,724.3250521099803
86,724.3220384767338
87,724.3197651901348
88,724.3181549050996
89,724.3171297042213
90,724.3166117581663
91,724.3165239526743
92,724.3167904760229
93,724.3173373604337
94,724.3180929712541
95,724.3189884394792
96,724.3199580356567
97,724.320939485383
98,724.321874228056
99,724.3227076216167
100,724.323389097043
101,724.3238722672916
102,724.3241149958044
103,724.3240794292285
104,724.3237319975115
105,724.323043382356
106,724.3219884531153
107,724.3205461686277
108,724.3186994444717
109,724.3164349871251
110,724.3137430986862
111,724.3106174572656
112,724.307054878415
113,724.3030550622168
114,724.2986203294049
115,724.2937553485281
116,724.2884668553041
117,724.2827633656009
118,724.2766548848386
119,724.2701526181553
120,724.263268686648
121,724.2560158554484
122,724.2484072797356
123,724.2404562750294
124,724.2321761176485
125,724.2235798797576
126,724.2146803014958
127,724.205489700976
128,724.1960199216197
129,724.1862823152047
130,724.1762877581402
131,724.1660466979274
132,724.1555692263823
133,724.1448651754928
134,724.1339442303142
135,724.1228160513248
136,724.1114903968678
137,724.0999772353242
138,724.0882868367745
139,724.0764298352484
140,724.0644172551731
141,724.0522604988815
142,724.03997129515
143,724.0275616110176
144,724.0150435306828
145,724.0024291066347
146,723.989730189607
147,723.9769582451041
148,723.9641241644288
149,723.9512380769216
150,723.9383091680934
151,723.92534550668
152,723.9123538831249
153,723.8993396622641
154,723.8863066531425
155,723.873256998426
156,723.8601910851264
157,723.8471074778722
158,723.834002875722
159,723.8208720931339
160,723.8077080650687
161,723.7945018757914
162,723.7812428112333
163,723.7679184356681
164,723.7545146941461
165,723.7410160420629
166,723.7274056026346
167,723.7136653524014
168,723.6997763342246
169,723.6857188961335
170,723.6714729527487
171,723.6570182644616
172,723.6423347288344
173,723.6274026787812
174,723.612203182293
175,723.596718338044
176,723.5809315603414
177,723.5648278465325
178,723.5483940208294
179,723.5316189502894
180,723.5144937307746
181,723.4970118428116
182,723.4791692793666
183,723.4609646495792
184,723.4423992639319
185,723.4234772064199
186,723.4042053977437
187,723.3845936508455
188,723.3646547170757
189,723.3444043186678
190,723.3238611615053
191,723.303046921543
192,723.2819861986942
193,723.2607064333733
194,723.2392377827913
195,723.2176129560038
196,723.1958670082726
197,723.1740370964814
198,723.1521621982573
199,723.1302827982524
200,723.1084405458942
201,723.0866778897791
202,723.0650376946448
203,723.0435628474436
204,723.0222958592966
205,723.0012784699143
206,722.9805512605758
207,722.9601532811753
208,722.9401216961869
209,722.9204914536082
210,722.9012949800239
211,722.882561904068
212,722.8643188099533
213,722.8465890224072
214,722.8293924241777
215,722.8127453072019
216,722.7966602587292
217,722.7811460842544
218,722.7662077696883
219,722.7518464850955
220,722.7380596312217
221,722.7248409284495
222,722.7121805467534
223,722.7000652751993
224,722.6884787301465
225,722.6774016018622
226,722.6668119392314
227,722.6566854714155
228,722.6469959636146
229,722.6377156016781
230,722.6288153978134
231,722.6202656079897
232,722.6120361514105
233,722.6040970232451
234,722.5964186928887
235,722.5889724809706
236,722.5817309091929
237,722.5746680179038
238,722.5677596472188
239,722.5609836786992
240,722.5543202359371
241,722.5477518434054
242,722.541263543505
243,722.5348429721214
244,722.5284803932677
245,722.5221686935541
246,722.515903337741
247,722.5096822878868
248,722.5035058901141
249,722.4973767337655
250,722.4912994872359
251,722.4852807136675
252,722.4793286690156
253,722.4734530850851
254,722.4676649405225
255,722.4619762230828
256,722.4563996870442
257,722.4509486106191
258,722.4456365593575
259,722.4404771624422
260,722.4354839094811
261,722.4306699759801
262,722.4260480856177
263,722.4216304157995
264,722.4174285496998
265,722.4134534743503
266,722.4097156215304
267,722.4062249463835
268,722.4029910373464
269,722.4000232499811
270,722.3973308569357
271,722.3949232067255
272,722.39280988498
273,722.3910008726311
274,722.389506696068
275,722.3883385648734
276,722.3875084936225
277,722.3870294052145
278,722.3869152140878
279,722.3871808884477
280,722.3878424914299
281,722.388917201793
282,722.3904233149058
283,722.3923802242167
284,722.3948083824126
285,722.3977292408382
286,722.4011651659013
287,722.4051393318712
288,722.4096755904033
289,722.4147983183973
290,722.42053224734
291,722.4269022784787
292,722.4339332884874
293,722.4416499297872
294,722.450076428931
295,722.4592363861495
296,722.4691525794854
297,722.4798467773944
298,722.4913395636684
299,722.503650178058
300,722.5167963753505
301,722.5307943048301
302,722.5456584110428
303,722.561401355947
304,722.5780339621259
305,722.5955651764816
306,722.6140020532642
307,722.6333497542875
308,722.653611563105
309,722.6747889091018
310,722.6968813967608
311,722.7198868345145
312,722.7438012567111
313,722.7686189317891
314,722.7943323501473
315,722.8209321863609
316,722.8484072320941
317,722.876744298172
318,722.9059280867195
319,722.9359410368323
320,722.9667631495465
321,722.9983717995659
322,723.0307415419604
323,723.0638439218593
324,723.0976472945596
325,723.1321166631636
326,723.1672135410821
327,723.2028958470897
328,723.2391178405701
329,723.2758301037966
330,723.3129795767684
331,723.3505096489382
332,723.3883603114828
333,723.4264683730615
334,723.4647677406931
335,723.5031897655036
336,723.5416636509867
337,723.5801169192629
338,723.6184759289455
339,723.6566664367601
340,723.694614193716
341,723.7322455651141
342,723.769488162283
343,723.80627147327
344,723.8425274801338
345,723.8781912517935
346,723.9132015028939
347,723.9475011101568
348,723.9810375782959
349,724.0137634484262
350,724.0456366434587
351,724.0766207468438
352,724.1066852124811
353,724.1358055042043
354,724.1639631631616
355,724.1911458012348
356,724.2173470190645
357,724.242566248699
358,724.2668085232331
359,724.2900841784414
360,724.3124084935541
361,724.3338012793905
362,724.3542864220699
363,724.3738913901484
364,724.3926467129706
365,724.4105854383378
366,724.4277425777851
367,724.4441545475214
368,724.459858612648
369,724.4748923419377
370,724.489293080155
371,724.5030974446654
372,724.5163408532175
373,724.5290570903425
374,724.541277920226
375,724.5530327534179
376,724.5643483732119
377,724.5752487255118
378,724.5857547742072
379,724.5958844226915
380,724.6056525008784
381,724.6150708154834
382,724.6241482590652
383,724.6328909704091
384,724.6413025358713
385,724.64938421931
386,724.6571352079889
387,724.6645528633882
388,724.6716329685238
389,724.6783699663366
390,724.6847571863032
391,724.6907870579976
392,724.6964513105801
393,724.701741156455
394,724.7066474565931
395,724.7111608651103
396,724.7152719517441
397,724.7189713022884
398,724.7222495982928
399,724.7250976783118
400,724.7275065836769
401,724.7294675919534
402,724.7309722408354
403,724.7320123443077
404,724.732580001692
405,724.7326675991675
406,724.7322678031287
407,724.7313735455027
408,724.729978002439
409,724.7280745691493
410,724.725656835063
411,724.722718564647
412,724.7192536895373
413,724.7152563167524
414,724.7107207563007
415,724.7056415701395
416,724.7000136434029
417,724.6938322779521
418,724.6870933074107
419,724.6797932317572
420,724.6719293684366
421,724.6635000162241
422,724.6545046277657
423,724.6449439864208
424,724.6348203825054
425,724.6241377836344
426,724.612901993823
427,724.6011207958529
428,724.588804070805
429,724.5759638882736
430,724.5626145614116
431,724.5487726625104
432,724.5344569965332
433,724.5196885313642
434,724.5044902844281
435,724.488887166216
436,724.4729057826562
437,724.4565742002628
438,724.4399216799205
439,724.422978386422
440,724.4057750814914
441,724.3883428082123
442,724.3707125744667
443,724.3529150420812
444,724.3349802271712
445,724.3169372161458
446,724.2988139012417
447,724.2806367391717
448,724.262430536301
449,724.2442182635355
450,724.2260209036301
451,724.2078573325623
452,724.1897442347258
453,724.171696049552
454,724.1537249458114
455,724.1358408197863
456,724.1180513141039
457,724.1003618545373
458,724.0827757024416
459,724.0652940209378
460,724.0479159533452
461,724.0306387123609
462,724.0134576782006
463,723.9963665039338
464,723.9793572267112
465,723.9624203838957
466,723.9455451328795
467,723.9287193730443
468,723.9119298685918
469,723.8951623717695
470,723.8784017469031
471,723.861632096645
472,723.8448368933873
473,723.8279991206496
474,723.8111014302813
475,723.7941263204839
476,723.777056337262
477,723.7598742993049
478,723.7425635446618
479,723.7251081971276
480,723.7074934504141
481,723.6897058680689
482,723.671733696
483,723.6535671822721
484,723.6351988963874
485,723.6166240388363
486,723.5978407319392
487,723.5788502842908
488,723.559657422461
489,723.5402704843675
490,723.5207015689078
491,723.5009666364558
492,723.4810855552358
493,723.46108208962
494,723.4409838281733
495,723.4208220519752
496,723.4006315469994
497,723.3804503667944
498,723.3603195521796
499,723.3402828134094
500,723.3203861787141
501,723.300677612616
502,723.2812066083311
503,723.2620237604281
504,723.2431803257798
505,723.2247277817258
506,723.206717389851
507,723.1891997721333
508,723.1722245040554
509,723.1558397274048
510,723.140091784761
511,723.1250248784788
512,723.1106807586785
513,723.097098445816
514,723.0843139925785
515,723.0723602870997
516,723.0612668958493
517,723.051059941494
518,723.0417620095225
519,723.0333920773511
520,723.0259654601607
521,723.0194937683639
522,723.0139848726247
523,723.0094428739671
524,723.0058680784161
525,723.0032569772744
526,723.0016022350624
527,723.0008926871084
528,723.0011133480938
529,723.0022454323678
530,723.0042663870192
531,723.0071499392773
532,723.0108661605091
533,723.0153815498305
534,723.0206591410929
535,723.0266586375282
536,723.0333365782561
537,723.0406465398044
538,723.0485393737662
539,723.0569634792478
540,723.0658651064963
541,723.0751886865528
542,723.0848771812981
543,723.0948724489512
544,723.1051156214163
545,723.115547490804
546,723.1261089022478
547,723.136741149077
548,723.1473863652649
549,723.1579879094534
550,723.1684907349317
551,723.1788417404977
552,723.1889900978925
553,723.198887552478
554,723.2084886949932
555,723.2177512030634
556,723.2266360511292
557,723.2351076865331
558,723.2431341678974
559,723.2506872603128
560,723.2577424814381
561,723.264279094343
562,723.270280046437
563,723.2757318575857
564,723.2806244632708
565,723.2849510202188
566,723.2887076825496
567,723.2918933564389
568,723.2945094410595
569,723.2965595636757
570,723.2980493171492
571,723.298986008135
572,723.2993784232932
573,723.2992366188813
574,723.298571736813
575,723.2973958484389
576,723.2957218260569
577,723.2935632411934
578,723.2909342878454
579,723.2878497283526
580,723.2843248597922
581,723.2803754996544
582,723.2760179900199
583,723.2712692184869
584,723.266146651999
585,723.2606683778417
586,723.2548531453721
587,723.2487204025399
588,723.2422903224824
589,723.2355838167898
590,723.2286225328727
591,723.2214288333073
592,723.2140257560322
593,723.2064369565117
594,723.1986866359359
595,723.1907994617548
596,723.1828004871843
597,723.1747150748254
598,723.1665688272325
599,723.1583875250832
600,723.1501970715123
601,723.142023439062
602,723.1338926141661
603,723.1258305337639
604,723.1178630095873
605,723.1100156376299
606,723.102313692878
607,723.0947820117962
608,723.0874448664881
609,723.0803258348152
610,723.0734476706675
611,723.0668321785446
612,723.060500096467
613,723.0544709908502
614,723.0487631666099
615,723.0433935956981
616,723.0383778671946
617,723.0337301615197
618,723.0294632503332
619,723.0255885227285
620,723.0221160377358
621,723.019054602664
622,723.0164118758701
623,723.0141944908929
624,723.0124081969506
625,723.0110580093125
626,723.0101483622939
627,723.0096832572013
628,723.0096663972633
629,723.0101013018473
630,723.0109913937852
631,723.0123400564555
632,723.0141506603592
633,723.0164265608823
634,723.0191710692262
635,723.0223873978387
636,723.0260785812616
637,723.0302473737044
638,723.0348961256129
639,723.040026642395
640,723.045640028951
641,723.0517365240004
642,723.0583153288484
643,723.065374436299
644,723.0729104665069
645,723.0809185173437
646,723.0893920371984
647,723.0983227277188
648,723.107700482529
649,723.1175133658288
650,723.1277476328904
651,723.1383877932882
652,723.1494167170652
653,723.1608157837754
654,723.1725650743775
655,723.1846436057132
656,723.1970296058358
657,723.209700825552
658,723.2226348782157
659,723.2358095973777
660,723.2492034008958
661,723.262795650289
662,723.2765669949448
663,723.2904996919938
664,723.3045778943418
665,723.3187879015036
666,723.3331183699997
667,723.3475604812181
668,723.3621080643233
669,723.3767576708962
670,723.3915085980642
671,723.4063628584971
672,723.4213250976986
673,723.4364024601476
674,723.451604405823
675,723.4669424781534
676,723.4824300240606
677,723.4980818668178
678,723.513913933295
679,723.5299428389877
680,723.5461854366705
681,723.5626583368226
682,723.5793774094717
683,723.5963572777624
684,723.613610813976
685,723.631148649322
686,723.6489787090387
687,723.6671057835135
688,723.6855311445925
689,723.704252214947
690,723.723262297555
691,723.7425503714917
692,723.7621009588329
693,723.7818940656466
694,723.8019051982345
695,723.8221054544834
696,723.8424616896783
697,723.8629367561168
698,723.8834898155714
699,723.9040767225524
700,723.9246504745278
701,723.9451617230244
702,723.9655593372208
703,723.9857910097764
704,724.0058038937141
705,724.0255452591002
706,724.0449631583358
707,724.0640070882434
708,724.0826286356707
709,724.1007820917868
710,724.118425019578
711,724.1355187596729
712,724.1520288614353
713,724.1679254290551
714,724.183183375917
715,724.1977825843853
716,724.211707971658
717,724.2249494652865
718,724.2375018946932
719,724.2493648077632
720,724.2605422239517
721,724.2710423366256
722,724.2808771771666
723,724.2900622522236
724,724.2986161644959
725,724.3065602271561
726,724.3139180820004
727,724.3207153306638
728,724.3269791861944
729,724.3327381494647
730,724.338021712449
731,724.3428600890451
732,724.3472839735526
733,724.3513243264356
734,724.3550121862842
735,724.3583785062008
736,724.3614540125211
737,724.3642690839512
738,724.3668536497975
739,724.3692371069808
740,724.3714482567397
741,724.3735152625682
742,724.375465630359
743,724.3773262104471
744,724.3791232205015
745,724.3808822884505
746,724.3826285150155
747,724.3843865547467
748,724.3861807122479
749,724.3880350473739
750,724.3899734810257
751,724.3920198927423
752,724.3941982025816
753,724.3965324321624
754,724.399046742359
755,724.4017654472665
756,724.4047130055186
757,724.4079139912781
758,724.4113930485195
759,724.4151748333204
760,724.4192839493729
761,724.4237448818603
762,724.4285819345242
763,724.4338191744608
764,724.4394803889652
765,724.4455890584007
766,724.4521683484784
767,724.4592411243759
768,724.4668299877115
769,724.4749573356168
770,724.4836454392957
771,724.4929165375071
772,724.502792938159
773,724.5132971189046
774,724.524451816108
775,724.5362800916281
776,724.5488053685981
777,724.562051430123
778,724.5760423776608
779,724.5908025479861
780,724.606356388633
781,724.6227282917371
782,724.6399423857897
783,724.6580222846665
784,724.6769907939881
785,724.6968695765609
786,724.7176787809241
787,724.7394366394178
788,724.7621590443476
789,724.7858591125477
790,724.8105467497184
791,724.8362282261693
792,724.8629057749174
793,724.8905772216009
794,724.9192356537883
795,724.9488691354193
796,724.9794604704591
797,725.0109870182466
798,725.0434205611965
799,725.0767272235902
800,725.1108674387909
801,725.1457959619574
802,725.1814619261971
803,725.2178089415365
804,725.2547752373353
805,725.2922938491909
806,725.33029285062
807,725.3686956280319
808,725.4074211955087
809,725.4463845444328
810,725.48549702201
811,725.5246667317131
812,725.5637989477815
813,725.6027965360618
814,725.6415603748769
815,725.679989771274
816,725.7179828690549
817,725.7554370457866
818,725.7922492971599
819,725.8283166086494
820,725.8635363160242
821,725.8978064576482
822,725.9310261226038
823,725.9630957992937
824,725.9939177290836
825,726.0233962687024
826,726.0514382637222
827,726.0779534337665
828,726.1028547682572
829,726.1260589295804
830,726.1474866589124
831,726.1670631792315
832,726.184718590538
833,726.2003882534694
834,726.2140131583265
835,726.2255402765844
836,726.2349228917224
837,726.2421209063533
838,726.2471011232564
839,726.2498374983813
840,726.2503113634857
841,726.2485116146216
842,726.2444348609332
843,726.2380855271354
844,726.2294759030929
845,726.218626135026
846,726.2055641549567
847,726.1903255477512
848,726.1729533576322
849,726.1534978374033
850,726.1320161437652
851,726.1085719816931
852,726.083235200716
853,726.0560813465353
854,726.0271911726152
855,725.9966501177497
856,725.9645477569649
857,725.9309772343669
858,725.8960346871894
859,725.8598186696047
860,725.8224295829009
861,725.7839691163408
862,725.7445397013176
863,725.7042439805188
864,725.6631842933596
865,725.6214621787224
866,725.5791778962274
867,725.5364299680164
868,725.4933147438455
869,725.4499259925575
870,725.4063545227051
871,725.3626878344141
872,725.3190098033995
873,725.275400396376
874,725.2319354154037
875,725.1886862678466
876,725.1457197592887
877,725.1030979087645
878,725.0608777880944
879,725.0191113889875
880,724.9778455223968
881,724.9371217542565
882,724.8969763803079
883,724.8574404406554
884,724.8185397728722
885,724.7802951016508
886,724.7427221629223
887,724.7058318600605
888,724.6696304487185
889,724.6341197452412
890,724.5992973517796
891,724.5651568896069
892,724.5316882315335
893,724.498877725523
894,724.4667084044786
895,724.4351601807132
896,724.4042100268055
897,724.3738321467409
898,724.3439981421259
899,724.3146771778074
900,724.285836149908
901,724.2574398578772
902,724.2294511813379
903,724.2018312624999
904,724.1745396954846
905,724.1475347245478
906,724.1207734534535
907,724.0942120679669
908,724.067806072765
909,724.0415105434593
910,724.0152803944432
911,723.9890706641302
912,723.9628368202171
913,723.9365350877932
914,723.9101228018282
915,723.8835587833241
916,723.8568037358492
917,723.8298206564637
