frame_number,force
0,723.328124981928
1,723.4227761230659
2,723.5171869723313
3,723.6111184989583
4,723.7043341784594
5,723.7966012065142
6,723.8876916676163
7,723.9773836467908
8,724.0654622752807
9,724.1517207032626
10,724.2359609939972
11,724.3179949345429
12,724.3976447589479
13,724.4747437812006
14,724.549136937006
15,724.6206812348621
16,724.6892461174506
17,724.7547137345144
18,724.8169791291057
19,724.8759503407964
20,724.9315484316609
21,724.9837074425948
22,725.0323742881792
23,725.0775085978592
24,725.1190825101377
25,725.1570804253473
26,725.1914987218208
27,725.2223454399937
28,725.249639938783
29,725.2734125282641
30,725.2937040822793
31,725.3105656341435
32,725.3240579578472
33,725.3342511363612
34,725.3412241184081
35,725.3450642654958
36,725.3458668914378
37,725.3437347964403
38,725.338777797213
39,725.331112253755
40,725.3208605924306
41,725.3081508237614
42,725.2931160526302
43,725.2758939787745
44,725.2566263862223
45,725.235458621114
46,725.2125390580183
47,725.1880185554772
48,725.1620499018287
49,725.1347872518568
50,725.1063855537416
51,725.0769999649903
52,725.0467852561336
53,725.0158952017969
54,724.9844819598129
55,724.9526954400188
56,724.9206826652271
57,724.8885871278294
58,724.8565481467024
59,724.8247002300398
60,724.7931724497979
61,724.7620878329164
62,724.731562774528
63,724.7017064795824
64,724.672620440996
65,724.6443979635573
66,724.6171237430169
67,724.5908735093666
68,724.5657137425195
69,724.5417014673052
70,724.5188841327071
71,724.4972995778293
72,724.4769760846442
73,724.4579325153122
74,724.440178529722
75,724.4237148770458
76,724.4085337538187
77,724.3946192203181
78,724.3819476667492
79,724.3704883209882
80,724.3602037903939
81,724.3510506311105
82,724.3429799391388
83,724.3359379583206
84,724.3298667011089
85,724.3247045780607
86,724.320387031242
87,724.3168471656838
88,724.3140163724141
89,724.3118249367195
90,724.3102026259262
91,724.3090792515043
92,724.3083852002794
93,724.3080519292395
94,724.3080124187219
95,724.3082015801364
96,724.308556616337
97,724.3090173344793
98,724.3095264123576
99,724.310029620075
100,724.3104759997362
101,724.3108180065999
102,724.3110116154871
103,724.3110163958997
104,724.3107955581604
105,724.3103159712052
106,724.3095481511901
107,724.3084662196436
108,724.3070478306937
109,724.3052740684933
110,724.3031293176972
111,724.3006011110087
112,724.2976799580376
113,724.2943591591495
114,724.2906346070264
115,724.2865045776114
116,724.2819695114501
117,724.2770317866874
118,724.2716954860571
119,724.2659661614322
120,724.2598506002774
121,724.2533565987058
122,724.2464927461226
123,724.239268226637
124,724.2316926420658
125,724.2237758602172
126,724.2155278906284
127,724.2069587885982
128,724.1980785873162
129,724.1888972570413
130,724.1794246895967
131,724.1696707060158
132,724.1596450848662
133,724.1493576082208
134,724.1388181210932
135,724.1280365985808
136,724.1170232135568
137,724.1057883969602
138,724.0943428828214
139,724.0826977311972
140,724.0708643241519
141,724.0588543324571
142,724.0466796531113
143,724.0343523195567
144,724.0218843876722
145,724.0092878016725
146,723.9965742451527
147,723.9837549834223
148,723.9708407033878
149,723.9578413562862
150,723.9447660069559
151,723.9316226920296
152,723.9184182890035
153,723.9051583983405
154,723.8918472408694
155,723.8784875723679
156,723.8650806166168
157,723.8516260178233
158,723.8381218131154
159,723.8245644254945
160,723.8109486771306
161,723.7972678225457
162,723.7835136014617
163,723.7696763117757
164,723.7557449036665
165,723.7417070957728
166,723.727549513907
167,723.7132578522567
168,723.6988170565037
169,723.6842115274255
170,723.6694253422585
171,723.6544424898951
172,723.6392471154254
173,723.62382376961
174,723.6081576590403
175,723.5922348924064
176,723.5760427176157
177,723.5595697442387
178,723.5428061464318
179,723.5257438428871
180,723.5083766520104
181,723.4907004221752
182,723.472713138566
183,723.4544150097183
184,723.4358085380042
185,723.4168985783881
186,723.3976923885874
187,723.3781996716598
188,723.3584326096765
189,723.3384058851052
190,723.318136685209
191,723.2976446842952
192,723.2769519990105
193,723.2560831129746
194,723.2350647685474
195,723.2139258250357
196,723.1926970838697
197,723.1714110822238
198,723.1501018572743
199,723.128804683924
200,723.107555789501
201,723.0863920496224
202,723.065350670017
203,723.0444688595603
204,723.0237834999824
205,723.0033308175568
206,722.9831460616898
207,722.9632631948701
208,722.9437145979219
209,722.9245307938759
210,722.9057401930527
211,722.8873688612654
212,722.869440312563
213,722.8519753276728
214,722.8349917991492
215,722.8185046041763
216,722.8025255061136
217,722.7870630863061
218,722.7721227081208
219,722.7577065150804
220,722.7438134640856
221,722.7304393934646
222,722.7175771247385
223,722.7052165969561
224,722.6933450329292
225,722.6819471371126
226,722.6710053248463
227,722.6604999820138
228,722.65040975283
229,722.6407118515739
230,722.6313823921106
231,722.6223967277493
232,722.6137297937953
233,722.6053564457968
234,722.5972517873215
235,722.5893914818417
236,722.5817520439823
237,722.574311106025
238,722.5670476562753
239,722.5599422468355
240,722.5529771693789
241,722.546136598311
242,722.5394067011568
243,722.5327757163135
244,722.5262339985172
245,722.519774032503
246,722.5133904157489
247,722.5070798121782
248,722.500840879892
249,722.4946741765888
250,722.4885820459552
251,722.4825684874556
252,722.4766390114173
253,722.4708004813883
254,722.4650609460538
255,722.4594294632594
256,722.4539159191354
257,722.4485308460831
258,722.4432852442891
259,722.4381904121506
260,722.4332577915492
261,722.4284988343728
262,722.4239248966392
263,722.4195471652903
264,722.4153766201658
265,722.4114240308064
266,722.4076999855405
267,722.4042149488793
268,722.4009793421969
269,722.398003641894
270,722.3952984889632
271,722.3928748042467
272,722.3907439044216
273,722.3889176144115
274,722.3874083723526
275,722.3862293237106
276,722.3853944018311
277,722.3849183929833
278,722.3848169846507
279,722.3851067964433
280,722.3858053936242
281,722.3869312837801
282,722.3885038973041
283,722.3905435519065
284,722.3930714006041
285,722.3961093621479
286,722.3996800329705
287,722.4038065802742
288,722.4085126166085
289,722.4138220572927
290,722.4197589632478
291,722.4263473727465
292,722.4336111258386
293,722.4415736848177
294,722.4502579535092
295,722.4596860979121
296,722.4698793709889
297,722.480857944751
298,722.4926407527697
299,722.5052453458658
300,722.5186877632426
301,722.5329824206751
302,722.548142016574
303,722.5641774560859
304,722.5810977930656
305,722.5989101895523
306,722.6176198919292
307,722.6372302221611
308,722.6577425816465
309,722.6791564645758
310,722.7014694771315
311,722.7246773581952
312,722.748773996525
313,722.7737514390158
314,722.7995998849589
315,722.826307662114
316,722.8538611817369
317,722.8822448713472
318,722.9114410859337
319,722.9414300002834
320,722.9721894869238
321,723.0036949854784
322,723.0359193698184
323,723.0688328192318
324,723.1024026993522
325,723.1365934583333
326,723.1713665439224
327,723.2066803473492
328,723.2424901799011
329,723.2787482874224
330,723.3154039069318
331,723.35240336861
332,723.3896902458699
333,723.4272055556615
334,723.464888010126
335,723.5026743192386
336,723.5404995424193
337,723.5782974853985
338,723.6160011371533
339,723.6535431405813
340,723.6908562895252
341,723.7278740435797
342,723.7645310510209
343,723.8007636696823
344,723.8365104759426
345,723.8717127530236
346,723.9063149509836
347,723.9402651116021
348,723.9735152518307
349,724.0060217001767
350,724.0377453816163
351,724.0686520481225
352,724.098712453045
353,724.1279024680595
354,724.1562031413522
355,724.1836006955774
356,724.2100864644788
357,724.2356567682161
358,724.2603127292989
359,724.2840600331094
360,724.306908638698
361,724.3288724463805
362,724.3499689286867
363,724.3702187309268
364,724.3896452476087
365,724.4082741811953
366,724.4261330898463
367,724.4432509306093
368,724.4596576041924
369,724.4753835071841
370,724.4904590973606
371,724.5049144775373
372,724.5187790035296
373,724.5320809222235
374,724.5448470460801
375,724.5571024700089
376,724.5688703353359
377,724.5801716440099
378,724.591025124769
379,724.6014471518978
380,724.6114517161914
381,724.6210504464864
382,724.6302526783281
383,724.6390655640448
384,724.6474942161644
385,724.6555418745355
386,724.6632100873119
387,724.6704988971651
388,724.6774070261653
389,724.6839320550862
390,724.6900705949056
391,724.6958184494998
392,724.7011707687127
393,724.7061221903955
394,724.7106669694141
395,724.7147990916868
396,724.7185123721309
397,724.7218005364992
398,724.72465728806
399,724.7270763608318
400,724.7290515616174
401,724.7305768032277
402,724.7316461309547
403,724.7322537436304
404,724.7323940096487
405,724.7320614775249
406,724.7312508803841
407,724.7299571343656
408,724.7281753319445
409,724.725900732243
410,724.7231287514933
411,724.7198549577474
412,724.7160750741654
413,724.71178499453
414,724.7069808134964
415,724.7016588730306
416,724.695815825678
417,724.6894487146335
418,724.6825550698953
419,724.675133018932
420,724.6671814094351
421,724.6586999411627
422,724.6496893036488
423,724.6401513163262
424,724.6300890672079
425,724.6195070459642
426,724.6084112672185
427,724.5968093797678
428,724.5847107569707
429,724.5721265632523
430,724.559069792182
431,724.5455552728072
432,724.5315996422798
433,724.5172212838734
434,724.5024402301979
435,724.4872780321142
436,724.4717575949572
437,724.4559029852467
438,724.439739212578
439,724.4232919923793
440,724.4065874956991
441,724.3896520923456
442,724.3725120934447
443,724.355193498776
444,724.3377217532963
445,724.3201215164506
446,724.3024164474016
447,724.2846290090805
448,724.266780293826
449,724.2488898731837
450,724.2309756740702
451,724.2130538826506
452,724.1951388757976
453,724.1772431783002
454,724.1593774429186
455,724.1415504503268
456,724.1237691264382
457,724.106038575007
458,724.0883621236715
459,724.070741381939
460,724.0531763099104
461,724.0356652965254
462,724.0182052458761
463,724.0007916701429
464,723.9834187880588
465,723.9660796280459
466,723.9487661349758
467,723.9314692792452
468,723.9141791670608
469,723.8968851514447
470,723.8795759441621
471,723.8622397295492
472,723.844864282426
473,723.8274370937302
474,723.8099455083186
475,723.7923768787235
476,723.7747187367714
477,723.7569589829313
478,723.7390860919725
479,723.7210893331653
480,723.7029590033912
481,723.6846866714395
482,723.6662654309129
483,723.6476901574525
484,723.6289577640753
485,723.6100674473076
486,723.5910209169966
487,723.5718226037029
488,723.5524798386422
489,723.5330030017569
490,723.513405633645
491,723.4937045071019
492,723.4739196543666
493,723.454074346984
494,723.4341950266095
495,723.4143111872158
496,723.3944552117272
497,723.3746621680506
498,723.3549695698603
499,723.3354171065125
500,723.3160463452654
501,723.2969004085962
502,723.2780236301289
503,723.2594611941586
504,723.2412587652267
505,723.2234621149033
506,723.206116752536
507,723.1892675654326
508,723.1729584722573
509,723.1572320919538
510,723.1421294299431
511,723.1276895839742
512,723.1139494733465
513,723.1009435960474
514,723.0887038176984
515,723.077259194037
516,723.0666358258031
517,723.0568567424925
518,723.0479418102445
519,723.0399076590717
520,723.0327676250405
521,723.0265317035115
522,723.021206510338
523,723.0167952491729
524,723.0132976845247
525,723.0107101214788
526,723.0090253937226
527,723.0082328614602
528,723.0083184202551
529,723.009264521438
530,723.0110502048401
531,723.0136511450561
532,723.01703971297
533,723.0211850548534
534,723.0260531919154
535,723.0316071435815
536,723.0378070777022
537,723.044610490054
538,723.0519724138984
539,723.0598456584108
540,723.0681810730119
541,723.0769278334137
542,723.0860337448094
543,723.0954455581715
544,723.1051092966726
545,723.1149705899612
546,723.1249750138708
547,723.1350684322988
548,723.1451973371035
549,723.1553091813781
550,723.1653527015279
551,723.1752782240083
552,723.1850379531842
553,723.1945862375478
554,723.2038798124486
555,723.2128780181556
556,723.2215429920749
557,723.2298398332254
558,723.2377367358239
559,723.2452050875759
560,723.25221952795
561,723.2587579630813
562,723.2648015367147
563,723.2703345595594
564,723.2753444015964
565,723.2798213531217
566,723.2837584608135
567,723.2871513450737
568,723.2899980047265
569,723.2922986152538
570,723.2940553270554
571,723.2952720702497
572,723.2959543717913
573,723.2961091891503
574,723.2957447630233
575,723.2948704901092
576,723.2934968160209
577,723.2916351476434
578,723.2892977835918
579,723.2864978610164
580,723.2832493171833
581,723.2795668649405
582,723.2754659815477
583,723.2709629095866
584,723.2660746670259
585,723.2608190620348
586,723.2552147075982
587,723.2492810313659
588,723.2430382771307
589,723.2365074953644
590,723.2297105208894
591,723.2226699361181
592,723.2154090190672
593,723.2079516771128
594,723.2003223697698
595,723.192546025521
596,723.1846479579897
597,723.1766537855673
598,723.1685893568001
599,723.1604806821214
600,723.1523538708714
601,723.1442350708908
602,723.1361504067595
603,723.1281259125035
604,723.1201874553274
605,723.1123606484658
606,723.1046707532647
607,723.0971425724888
608,723.0898003379663
609,723.0826675959631
610,723.0757670936036
611,723.0691206696214
612,723.0627491526147
613,723.0566722696664
614,723.0509085679004
615,723.0454753514908
616,723.0403886365738
617,723.0356631260687
618,723.0313122056295
619,723.0273479611889
620,723.0237812180901
621,723.0206216014166
622,723.0178776163849
623,723.0155567463754
624,723.013665564639
625,723.0122098545602
626,723.0111947327456
627,723.0106247688833
628,723.0105040960785
629,723.010836505582
630,723.0116255210168
631,723.0128744494252
632,723.0145864088797
633,723.0167643339327
634,723.0194109604056
635,723.0225287905105
636,723.0261200389649
637,723.0301865610726
638,723.0347297644934
639,723.0397505071248
640,723.0452489839025
641,723.0512246055912
642,723.0576758731554
643,723.0646002521295
644,723.0719940522604
645,723.0798523183121
646,723.0881687381918
647,723.0969355742371
648,723.1061436223474
649,723.1157822019776
650,723.1258391785294
651,723.1363010187549
652,723.1471528792943
653,723.1583787282611
654,723.1699614998281
655,723.181883281574
656,723.1941255332092
657,723.2066693330236
658,723.2194956457993
659,723.2325856040239
660,723.2459207934639
661,723.2594835343032
662,723.273257149704
663,723.2872262146036
664,723.3013767788749
665,723.3156965606829
666,723.3301751075311
667,723.3448039233934
668,723.359576560087
669,723.3744886703363
670,723.3895380200496
671,723.4047244585983
672,723.420049847508
673,723.4355179488572
674,723.4511342746634
675,723.4669058981616
676,723.4828412275788
677,723.4989497430629
678,723.5152416980847
679,723.5317277880642
680,723.5484187908941
681,723.5653251858329
682,723.5824567584223
683,723.5998221995897
684,723.6174287074284
685,723.6352816006034
686,723.6533839524989
687,723.6717362545646
688,723.690336116107
689,723.7091780067336
690,723.7282530470226
691,723.7475488523006
692,723.7670494333099
693,723.7867351561022
694,723.8065827620659
695,723.8265654479612
696,723.8466530054291
697,723.8668120194195
698,723.8870061247491
699,723.9071963191288
700,723.9273413295847
701,723.9473980274366
702,723.9673218851783
703,723.9870674671313
704,724.0065889450115
705,724.0258406294894
706,724.0447775088707
707,724.0633557855322
708,724.0815333995956
709,724.0992705281113
710,724.1165300474977
711,724.1332779474722
712,724.1494836861326
713,724.1651204780376
714,724.1801655099254
715,724.1946000817419
716,724.2084096734092
717,724.2215839400809
718,724.234116640786
719,724.2460055075153
720,724.2572520636727
721,724.2678614018197
722,724.2778419304976
723,724.2872050990234
724,724.295965108376
725,724.3041386160793
726,724.311744442978
727,724.3188032892191
728,724.3253374651575
729,724.3313706406927
730,724.3369276146346
731,724.3420341046352
732,724.3467165577832
733,724.3510019815837
734,724.3549177944844
735,724.358491694574
736,724.3617515448294
737,724.364725273426
738,724.3674407880894
739,724.3699259042663
740,724.3722082878398
741,724.3743154136213
742,724.3762745403931
743,724.3781127022795
744,724.3798567156317
745,724.3815332007988
746,724.3831686184624
747,724.3847893196732
748,724.386421607
749,724.3880918019172
750,724.3898263118684
751,724.3916516901028
752,724.3935946823993
753,724.3956822566591
754,724.3979416134013
755,724.4004001768669
756,724.4030855675879
757,724.4060255582439
758,724.4092480156601
759,724.4127808326566
760,724.4166518538534
761,724.4208887994868
762,724.4255191910437
763,724.4305702823065
764,724.4360689992272
765,724.4420418917923
766,724.4485151005763
767,724.4555143399432
768,724.4630648987502
769,724.4711916580256
770,724.4799191236453
771,724.4892714705059
772,724.4992725929405
773,724.5099461543235
774,724.5213156276253
775,724.5334043187514
776,724.546235365857
777,724.5598317099946
778,724.5742160346849
779,724.5894106736828
780,724.6054374869949
781,724.6223177052316
782,724.6400717420585
783,724.6587189743968
784,724.6782774905703
785,724.698763807921
786,724.7201925632078
787,724.7425761809678
788,724.7659245267167
789,724.7902445532163
790,724.8155399488711
791,724.8418107975122
792,724.8690532582847
793,724.8972592731768
794,724.9264163082435
795,724.9565071331216
796,724.9875096421229
797,725.0193967189193
798,725.052136145398
799,725.0856905537313
800,725.1200174196002
801,725.1550690942827
802,725.190792873983
803,725.2271311058895
804,725.2640213314066
805,725.3013964673215
806,725.3391850250456
807,725.37731136667
808,725.4156959949822
809,725.4542558734163
810,725.4929047711153
811,725.5315536274638
812,725.5701109297346
813,725.6084830975936
814,725.6465748692973
815,725.6842896856992
816,725.7215300690082
817,725.758197993839
818,725.7941952490166
819,725.8294237898225
820,725.8637860816187
821,725.897185436871
822,725.9295263484464
823,725.960714822547
824,725.9906587145657
825,726.0192680704922
826,726.0464554754013
827,726.0721364092531
828,726.0962296087922
829,726.1186574328341
830,726.1393462269451
831,726.1582266829774
832,726.1752341893192
833,726.1903091686501
834,726.2033974006599
835,726.2144503272494
836,726.2234253375622
837,726.2302860303345
838,726.2350024515576
839,726.2375513058332
840,726.2379161395063
841,726.2360874925535
842,726.2320630148431
843,726.2258475415633
844,726.2174531226659
845,726.2068990020759
846,726.1942115440734
847,726.1794241064316
848,726.1625768618924
849,726.1437165706599
850,726.1228963067217
851,726.1001751405065
852,726.0756177803062
853,726.0492941753806
854,726.021279084615
855,725.9916516156958
856,725.9604947408475
857,725.9278947961666
858,725.8939409721081
859,725.8587248021465
860,725.822339655104
861,725.7848802348484
862,725.7464420897362
863,725.7071211334679
864,725.66701317867
865,725.6262134843389
866,725.5848163184295
867,725.542914537454
868,725.5005991855928
869,725.4579591160217
870,725.415080636917
871,725.3720471840469
872,725.3289390209271
873,725.2858329661868
874,725.2428021464395
875,725.1999157722629
876,725.1572389353875
877,725.1148324267597
878,725.0727525770261
879,725.0310511224371
880,724.9897750997875
881,724.9489667737098
882,724.9086635984983
883,724.868898214996
884,724.8296984816258
885,724.7910875379736
886,724.7530838992564
887,724.7157015797404
888,724.6789502423172
889,724.6428353701642
890,724.6073584549695
891,724.5725171949052
892,724.5383056950467
893,724.5047146638553
894,724.471731601583
895,724.439340979219
896,724.4075244090875
897,724.3762608099179
898,724.3455265698974
899,724.3152957108491
900,724.2855400556324
901,724.2562293997573
902,724.2273316875533
903,724.198813193225
904,724.1706387075816
905,724.1427717317279
906,724.1151746792212
907,724.0878090879812
908,724.0606358427193
909,724.0336154081918
910,724.0067080736086
911,723.9798742092042
912,723.9530745368392
913,723.926270416653
914,723.8994241508068
915,723.8724993035963
916,723.8454610352316
