frame_number,force
0,689.803955000177
1,689.9501483718992
2,690.0945047536233
3,690.2352298612946
4,690.3706130706794
5,690.4990651792484
6,690.6191519211374
7,690.7296224713721
8,690.8294323853466
9,690.9177605870569
10,690.9940201445364
11,691.0578626740919
12,691.1091763397185
13,691.1480775668898
14,691.1748967387455
15,691.190158272525
16,691.1945556075885
17,691.1889218104326
18,691.1741967403802
19,691.1513920009147
20,691.1215551511681
21,691.0857347938381
22,691.0449481618186
23,691.0001526888148
24,690.9522227572778
25,690.9019324102456
26,690.8499444052001
27,690.7968056618546
28,690.742948898088
29,690.688700014832
30,690.6342905681131
31,690.5798744509897
32,690.5255477006062
33,690.4713701750378
34,690.4173877693088
35,690.3636539216523
36,690.3102493887164
37,690.2572995031809
38,690.2049882189189
39,690.1535682108855
40,690.1033662788027
41,690.0547834205607
42,690.0082892090962
43,689.9644104854455
44,689.923714792629
45,689.8867893162833
46,689.8542163071838
47,689.82654607553
48,689.8042687592299
49,689.7877862222273
50,689.7773855957552
51,689.7732160682295
52,689.7752705036332
53,689.7833732863679
54,689.7971754469197
55,689.8161576474312
56,689.8396410513712
57,689.8668055511206
58,689.8967143846044
59,689.9283438727085
60,689.960616798862
61,689.9924378029474
62,690.0227291286493
63,690.0504651856313
64,690.0747046248307
65,690.0946189009937
66,690.1095165317059
67,690.1188623991934
68,690.1222915134167
69,690.1196167718125
70,690.110830481304
71,690.0960997390446
72,690.0757561461686
73,690.0502806631446
74,690.020284604106
75,689.9864877858171
76,689.9496947732265
77,689.9107701071132
78,689.8706134089874
79,689.8301352757763
80,689.7902347998889
81,689.7517793648408
82,689.7155871534283
83,689.6824126051133
84,689.6529348316978
85,689.6277487515134
86,689.6073585367116
87,689.5921729533104
88,689.582502259084
89,689.5785564471199
90,689.5804447685489
91,689.5881765885675
92,689.6016636486767
93,689.6207237492679
94,689.6450858438112
95,689.674396580398
96,689.7082283421953
97,689.7460887463973
98,689.787431404209
99,689.8316676242766
100,689.8781787061707
101,689.9263284977147
102,689.9754759614815
103,690.024987617161
104,690.0742498673787
105,690.1226812870307
106,690.1697448913338
107,690.2149602183464
108,690.2579148605489
109,690.2982749520954
110,690.3357941112095
111,690.3703204269157
112,690.4018011895109
113,690.4302851280341
114,690.4559219213029
115,690.4789587253593
116,690.4997334561148
117,690.5186646089993
118,690.5362375098925
119,690.5529871102651
120,690.5694777576052
121,690.5862807037495
122,690.6039503848566
123,690.623000715013
124,690.6438827666099
125,690.666965184752
126,690.6925184338988
127,690.7207035490575
128,690.751565622449
129,690.7850319539673
130,690.8209146242899
131,690.8589170782651
132,690.8986440946559
133,690.9396144045983
134,690.9812753100725
135,691.023018859296
136,691.0641992982855
137,691.1041515553226
138,691.1422104272344
139,691.1777299783031
140,691.2101025369255
141,691.2387766540501
142,691.2632734433746
143,691.283200788235
144,691.2982649513715
145,691.3082791958694
146,691.3131691909028
147,691.3129752717578
148,691.3078519451192
149,691.2980651842897
150,691.2839879551157
151,691.2660941239374
152,691.2449505572242
153,691.2212069533606
154,691.1955828563077
155,691.1688514401993
156,691.1418199724504
157,691.1153072473966
158,691.0901186547635
159,691.0670198771257
160,691.0467104733606
161,691.0297987886672
162,691.0167797334695
163,691.0080169584329
164,691.00373075677
165,691.0039926100827
166,691.0087267045446
167,691.017718123298
168,691.0306269298832
169,691.0470070554928
170,691.0663287410221
171,691.0880032034282
172,691.1114081804458
173,691.1359130720226
174,691.1609025525165
175,691.1857977593522
176,691.2100744104961
177,691.2332773978711
178,691.2550315549815
179,691.2750484698819
180,691.2931294224176
181,691.3091647129362
182,691.3231297898425
183,691.3350787070435
184,691.3451355618965
185,691.353484619735
186,691.360359779199
187,691.3660339412276
188,691.3708088073987
189,691.3750056305914
190,691.3789573575663
191,691.3830023517717
192,691.3874794908747
193,691.3927240427051
194,691.3990635200322
195,691.406812786911
196,691.4162679715662
197,691.4276990982132
198,691.4413416841477
199,691.4573878035181
200,691.4759772525582
201,691.4971894607055
202,691.5210367491941
203,691.5474595256493
204,691.57632401425
205,691.6074230547729
206,691.6404802630962
207,691.6751574479595
208,691.7110647662073
209,691.7477728307068
210,691.7848259177007
211,691.8217554907264
212,691.8580933726304
213,691.8933840039193
214,691.9271953054503
215,691.9591277173786
216,691.98882106778
217,692.0159591177171
218,692.0402719405757
219,692.0615365913281
220,692.0795766341857
221,692.0942609595802
222,692.1055020210333
223,692.1132533404968
224,692.1175060344108
225,692.1182842390402
226,692.1156395587597
227,692.1096449129216
228,692.1003883780311
229,692.0879677751271
230,692.0724867535312
231,692.0540529352853
232,692.032778394365
233,692.0087824757027
234,691.9821967647617
235,691.9531718722286
236,691.9218855495554
237,691.8885514864696
238,691.8534280128451
239,691.8168259026347
240,691.7791145674138
241,691.7407260750593
242,691.702156561837
243,691.6639646854105
244,691.6267668164002
245,691.5912287534607
246,691.5580539050392
247,691.5279680590949
248,691.5017009878657
249,691.4799652337898
250,691.4634326066973
251,691.4527092313812
252,691.4483103052912
253,691.4506358932464
254,691.4599490259287
255,691.4763571452478
256,691.4997976955609
257,691.5300285135258
258,691.5666236372962
259,691.6089751391453
260,691.6563014289239
261,691.7076621058092
262,691.7619789701633
263,691.8180624425258
264,691.8746424325179
265,691.9304025728098
266,691.9840166097468
267,692.0341856190876
268,692.0796746191947
269,692.1193471154447
270,692.1521961514123
271,692.1773705890536
272,692.1941956193543
273,692.2021868982973
274,692.2010581340895
275,692.1907223522553
276,692.1712874059281
277,692.1430465560746
278,692.1064650864386
279,692.0621639108108
280,692.0109009780874
281,691.9535510436467
282,691.8910841600751
283,691.8245431393262
284,691.7550202704923
285,691.6836336855139
286,691.6115038724871
287,691.539730880608
288,691.4693727127792
289,691.4014253137582
290,691.3368045318966
291,691.2763304473827
292,691.220714389706
293,691.1705487841803
294,691.126299808288
295,691.088302807586
296,691.0567604882128
297,691.0317439965961
298,691.0131970553574
299,691.0009432849266
300,690.9946966886479
301,690.9940750855119
302,690.9986161167537
303,691.0077953456355
304,691.0210459071413
305,691.0377791591778
306,691.0574058295581
307,691.0793571728316
308,691.1031055671383
309,691.1281838026823
310,691.1542021669238
311,691.1808624371558
312,691.2079680115911
313,691.2354295047049
314,691.2632651555384
315,691.2915954538407
316,691.320631608228
317,691.3506579092056
318,691.3820086216108
319,691.4150406475467
320,691.4501037011958
321,691.4875100558669
322,691.5275060279783
323,691.5702472261536
324,691.615779215288
325,691.6640246821194
326,691.7147775469128
327,691.7677038751203
328,691.8223490185701
329,691.8781502106405
330,691.9344538204964
331,691.9905365197191
332,692.0456295751842
333,692.0989452935311
334,692.1497044238498
335,692.1971632485074
336,692.240639186118
337,692.2795338920121
338,692.3133529913483
339,692.3417217108615
340,692.3643958015473
341,692.3812673029885
342,692.3923649534844
343,692.3978494172356
344,692.3980038941678
345,692.3932209657256
346,692.3839866427161
347,692.3708625358761
348,692.3544669255973
349,692.3354553633363
350,692.3145013923847
351,692.2922780201385
352,692.2694405880544
353,692.2466115750142
354,692.2243676516441
355,692.2032290650811
356,692.1836512665234
357,692.1660186564857
358,692.150640411673
359,692.1377484784869
360,692.1274978296707
361,692.1199689199858
362,692.1151720328593
363,692.1130530406274
364,692.1135000981359
365,692.1163509295997
366,692.1214005436432
367,692.1284092914625
368,692.1371111203118
369,692.1472217647076
370,692.1584465894973
371,692.1704878567025
372,692.1830512506895
373,692.195851552204
374,692.2086174571563
375,692.2210956743567
376,692.2330545039591
377,692.2442870389979
378,692.2546139961654
379,692.2638860538126
380,692.2719855030514
381,692.2788269912405
382,692.2843571148024
383,692.2885525948368
384,692.2914167957732
385,692.2929744821746
386,692.2932649717087
387,692.2923341788342
388,692.2902262956071
389,692.2869758628857
390,692.2826007743437
391,692.2770965337329
392,692.2704319942707
393,692.2625467788907
394,692.253350479317
395,692.2427235759036
396,692.2305199396324
397,692.2165708018535
398,692.2006900697206
399,692.1826807238469
400,692.1623418631339
401,692.1394759436821
402,692.1138959106441
403,692.0854320790612
404,692.0539386569254
405,692.0192997709004
406,691.9814348726785
407,691.9403034990055
408,691.8959094518405
409,691.8483044716104
410,691.7975913760051
411,691.7439264869655
412,691.6875210804743
413,691.6286416547367
414,691.5676089780382
415,691.5047959655492
416,691.4406243033777
417,691.3755594633622
418,691.3101035506269
419,691.2447854502411
420,691.1801480154792
421,691.1167325160734
422,691.055061095849
423,690.9956183655761
424,690.9388333866925
425,690.8850632890212
426,690.8345797182455
427,690.7875591953729
428,690.744078246103
429,690.7041138681914
430,690.6675495772926
431,690.634186853866
432,690.6037612983752
433,690.5759623124654
434,690.5504548147602
435,690.5269014266
436,690.504983670023
437,690.4844209195115
438,690.4649860878644
439,690.4465173012642
440,690.4289251361186
441,690.4121953126488
442,690.3963869909167
443,690.3816269625461
444,690.368100136866
445,690.3560368633249
446,690.3456978085414
447,690.337357242076
448,690.3312856377639
449,690.3277324922449
450,690.3269102259311
451,690.3289799419284
452,690.3340396387415
453,690.3421152176513
454,690.3531543758654
455,690.367023315509
456,690.3835061389088
457,690.40230679843
458,690.4230534900443
459,690.445305401296
460,690.4685617160745
461,690.492272733723
462,690.515852898527
463,690.5386954671728
464,690.5601884759654
465,690.5797316296041
466,690.5967537097301
467,690.6107300399325
468,690.6211994128146
469,690.6277797175366
470,690.6301813723942
471,690.6282176384084
472,690.6218110205139
473,690.6109952603975
474,690.5959128469079
475,690.5768084377816
476,690.5540189769067
477,690.5279614734994
478,690.4991193510328
479,690.468028056336
480,690.4352603410733
481,690.4014113808596
482,690.3670837999174
483,690.3328727783045
484,690.2993516298448
485,690.2670583740125
486,690.2364837930629
487,690.2080613061108
488,690.1821588290604
489,690.159072748064
490,690.1390242272706
491,690.1221581778012
492,690.1085451990849
493,690.0981866214433
494,690.0910224700001
495,690.0869418229016
496,690.0857947622915
497,690.0874050002881
498,690.091582316892
499,690.0981341105391
500,690.1068755521355
501,690.1176380051329
502,690.130275526014
503,690.1446693959659
504,690.1607307335273
505,690.1784012506519
506,690.1976521302289
507,690.2184809217246
508,690.2409064196373
509,690.2649617395045
510,690.290686113682
511,690.3181161263193
512,690.3472771010985
513,690.3781751616604
514,690.4107902014864
515,690.445069766585
516,690.4809237932542
517,690.518220271563
518,690.5567820997737
519,690.5963855180279
520,690.6367605444059
521,690.6775938215454
522,690.7185341854971
523,690.7592010303364
524,690.7991951888719
525,690.8381116927882
526,690.875553530918
527,690.91114547092
528,690.9445471591473
529,690.9754649698106
530,691.0036622814155
531,691.0289679303753
532,691.0512825568493
533,691.070582491782
534,691.0869208121362
535,691.1004252645455
536,691.1112929260927
537,691.1197816999044
538,691.1261989970532
539,691.1308881957987
540,691.1342136477833
541,691.1365450890349
542,691.1382423254338
543,691.1396410533846
544,691.1410406862544
545,691.1426950197493
546,691.1448063487087
547,691.1475232317949
548,691.150941674962
549,691.1551092475723
550,691.1600315319253
551,691.1656802069239
552,691.1720019581384
553,691.1789273897676
554,691.1863792542596
555,691.1942795682744
556,691.2025554461836
557,691.2111436669136
558,691.2199940825656
559,691.2290720360297
560,691.2383600243847
561,691.2478588935807
562,691.2575888133932
563,691.26759013032
564,691.2779239651146
565,691.288672220868
566,691.2999366203849
567,691.3118365138962
568,691.324505385549
569,691.3380861394501
570,691.3527253425766
571,691.3685666581074
572,691.3857437302191
573,691.4043728048372
574,691.4245454203638
575,691.4463215666076
576,691.4697237321639
577,691.494732190462
578,691.5212817328014
579,691.5492599441197
580,691.5785071097798
581,691.6088178762841
582,691.6399447334912
583,691.6716032122597
584,691.703478506023
585,691.7352331280357
586,691.7665151962308
587,691.7969669428827
588,691.8262330917005
589,691.8539688570057
590,691.8798474265815
591,691.9035667804003
592,691.9248555634259
593,691.9434775805767
594,691.9592344551897
595,691.9719661826462
596,691.9815496946165
597,691.9878959672822
598,691.9909464672234
599,691.9906697380673
600,691.9870587287132
601,691.9801291703222
602,691.9699190452626
603,691.956489019494
604,691.9399236389246
605,691.9203330983537
606,691.8978554241608
607,691.8726589140812
608,691.8449446479685
609,691.8149488421151
610,691.7829447545539
611,691.7492437615956
612,691.7141951769371
613,691.6781844394496
614,691.6416294647199
615,691.6049751863391
616,691.5686865095153
617,691.5332399886165
618,691.4991145391409
619,691.4667814631897
620,691.4366940191027
621,691.409276689927
622,691.3849142387334
623,691.3639406538939
624,691.3466282134897
625,691.3331770688803
626,691.3237058490274
627,691.3182437742879
628,691.3167247062011
629,691.3189835385692
630,691.3247553722666
631,691.33367793713
632,691.3452976345535
633,691.3590793654284
634,691.3744200716592
635,691.3906657426398
636,691.4071315083235
637,691.4231242736247
638,691.4379671034269
639,691.4510243019758
640,691.4617259270611
641,691.4695903598134
642,691.4742435134352
643,691.4754333518975
644,691.4730386625507
645,691.4670714779867
646,691.4576730738038
647,691.4451039620611
648,691.4297287072171
649,691.41199672092
650,691.3924204190673
651,691.3715521898184
652,691.3499615289975
653,691.3282135215015
654,691.3068496185234
655,691.2863713610861
656,691.2672273386851
657,691.2498033106832
658,691.2344151516603
659,691.2213042020331
660,691.2106347131449
661,691.2024932406888
662,691.1968899272013
663,691.1937616142357
664,691.192976704556
665,691.1943416882151
666,691.1976092396657
667,691.2024877703651
668,691.2086522742336
669,691.2157562055971
670,691.2234439697617
671,691.2313634557162
672,691.2391780068858
673,691.2465773239373
674,691.2532869164645
675,691.2590757567845
676,691.2637617396147
677,691.2672145232024
678,691.2693554149283
679,691.2701541605613
680,691.2696227565855
681,691.2678067276646
682,691.2647746729402
683,691.2606071738157
684,691.2553862612054
685,691.2491865541856
686,691.2420689643137
687,691.2340775594351
688,691.2252398344215
689,691.2155702901703
690,691.2050769075586
691,691.1937698212122
692,691.1816712497364
693,691.1688255470305
694,691.1553081541365
695,691.1412323253287
696,691.1267528068931
697,691.1120660879402
698,691.0974072861057
699,691.0830440795847
700,691.0692683215033
701,691.0563860928071
702,691.0447069920269
703,691.0345334210458
704,691.0261504912281
705,691.0198169610554
706,691.0157573761493
707,691.0141553796691
708,691.0151480421288
709,691.018821028841
710,691.0252044647484
711,691.0342694684962
712,691.0459255037913
713,691.0600188853533
714,691.0763328853333
715,691.0945898348571
716,691.1144554091521
717,691.1355450223468
718,691.1574320609467
719,691.1796576051205
720,691.2017412848752
721,691.2231929326427
722,691.2435247073961
723,691.2622633953871
724,691.2789626471782
725,691.2932149549051
726,691.3046631430666
727,691.3130110450601
728,691.3180329914319
729,691.3195818367801
730,691.317595396393
731,691.312101174485
732,691.303219134036
733,691.2911621268837
734,691.2762335736605
735,691.2588220485995
736,691.2393925374403
737,691.2184742774326
738,691.1966452649955
739,691.1745137222321
740,691.1526970202957
741,691.1317987649602
742,691.1123849831243
743,691.0949605941686
744,691.0799475394028
745,691.0676660221498
746,691.058320267727
747,691.0519900197177
748,691.0486286113527
749,691.048067949055
750,691.0500302593
751,691.0541460374288
752,691.0599772383912
753,691.0670443271215
754,691.0748554281454
755,691.0829356052792
756,691.090854340208
757,691.0982495176582
758,691.1048465598856
759,691.1104717462755
760,691.1150592057587
761,691.1186515112713
762,691.1213941545011
763,691.1235244631297
764,691.125355805323
765,691.1272581548749
766,691.1296361638549
767,691.1329058538772
768,691.1374710563244
769,691.1437008448153
770,691.1519092504598
771,691.1623383793775
772,691.175145687199
773,691.190395753352
774,691.2080565586816
775,691.2280000219874
776,691.2500063408628
777,691.2737714670682
778,691.2989168714574
779,691.3250007359127
780,691.3515299048366
781,691.3779722417416
782,691.4037693120749
783,691.4283494468652
784,691.4511412034727
785,691.4715870937765
786,691.4891573308357
787,691.5033633238979
788,691.5137706564519
789,691.5200112134667
790,691.5217940018881
791,691.5189141333587
792,691.5112594581286
793,691.4988144203046
794,691.4816607992558
795,691.4599751037873
796,691.4340225227744
797,691.4041475247755
798,691.3707614216339
799,691.334327438687
800,691.2953440475526
801,691.2543274953139
802,691.211794571663
803,691.168246649771
804,691.1241558919544
805,691.0799542561492
806,691.0360256447675
807,690.99270126462
808,690.9502580358782
809,690.9089196795267
810,690.868859902731
811,690.8302069241158
812,690.7930485131069
813,690.7574367967521
814,690.7233923017387
815,690.6909070235968
816,690.6599466768107
817,690.6304525265363
818,690.6023432065227
819,690.5755167363745
820,690.5498527643422
821,690.5252150285662
822,690.5014541321596
823,690.4784108621914
824,690.4559203625773
825,690.4338174506987
826,690.411943260632
827,690.3901532659343
828,690.3683266135384
829,690.3463765401899
830,690.3242613968303
831,690.301995525655
832,690.2796590498709
833,690.2574056252598
834,690.2354673191464
835,690.2141559600851
836,690.1938605348047
837,690.1750404659955
838,690.1582148029715
839,690.1439474953324
840,690.1328291028626
841,690.1254555801418
842,690.1224050902192
843,690.1242140460813
844,690.1313536993529
845,690.144208564803
846,690.1630577741386
847,690.1880601352765
848,690.2192433344883
849,690.2564974623189
850,690.2995729017397
851,690.3480825311607
852,690.4015080995362
853,690.4592105277667
854,690.5204438180266
855,690.5843722074364
856,690.6500901384334
857,690.716644516438
858,690.7830586267627
859,690.848357025202
860,690.9115906670438
861,690.9718614355086
862,691.0283450981666
863,691.0803116779173
864,691.1271423424245
865,691.1683421327809
866,691.2035480917524
867,691.232532623824
868,691.2552022545098
869,691.2715923034574
870,691.2818582291143
871,691.2862644756918
872,691.2851716049565
873,691.2790224150314
874,691.2683276514622
875,691.2536517712405
876,691.2355990523736
877,691.2148002135664
878,691.1918996373313
879,691.1675432534281
880,691.1423671372872
881,691.1169869152382
882,691.0919881172564
883,691.0679176418718
884,691.0452764796835
885,691.0245137794778
886,691.0060222606953
887,690.9901349380111
888,690.9771231609203
889,690.9671960363277
890,690.9605013095944
891,690.9571276791019
892,690.957108327313
893,690.9604252534225
894,690.9670139126243
895,690.9767677761396
896,690.9895426772225
897,691.0051610734597
898,691.0234165122607
899,691.0440785787664
900,691.0668984663482
901,691.0916151289699
902,691.1179618290195
903,691.1456728006365
904,691.174489682227
905,691.2041673313773
906,691.2344786562378
907,691.265218190706
908,691.2962042690083
909,691.3272797766522
910,691.3583115582086
911,691.3891886672199
912,691.419819767943
913,691.4501301219544
914,691.4800586570816
915,691.5095555614154
916,691.5385806647188
917,691.5671026621745
