frame_number,force
0,689.8039549885124
1,689.8752146605553
2,689.9460839846022
3,690.0161761864655
4,690.0851115808334
5,690.1525209741958
6,690.2180489091669
7,690.2813567096041
8,690.3421252908876
9,690.4000577043831
10,690.4548813894166
11,690.5063501103284
12,690.5542455609798
13,690.5983786245142
14,690.6385902816652
15,690.6747521661684
16,690.7067667711842
17,690.7345673165902
18,690.7581172938983
19,690.7774097129998
20,690.792466081735
21,690.8033351541851
22,690.8100914861258
23,690.8128338361256
24,690.8116834481191
25,690.8067822465441
26,690.798290970096
27,690.7863872661251
28,690.7712637644904
29,690.7531261465782
30,690.7321912220092
31,690.70868502224
32,690.6828409168421
33,690.6548977551887
34,690.6250980345276
35,690.593686095954
36,690.5609063524645
37,690.5270015558925
38,690.4922111097497
39,690.4567694330428
40,690.4209043783723
41,690.384835707868
42,690.348773633044
43,690.3129174288289
44,690.2774541366476
45,690.2425573748571
46,690.2083862761297
47,690.1750845711341
48,690.1427798375496
49,690.1115829337847
50,690.0815876371628
51,690.0528705057587
52,690.0254909806765
53,689.9994917408056
54,689.9748993148995
55,689.9517249467037
56,689.9299656986633
57,689.9096057698096
58,689.8906179954203
59,689.8729654905458
60,689.8566033956547
61,689.8414806800596
62,689.8275419582966
63,689.8147292768876
64,689.8029838332502
65,689.7922475937477
66,689.7824647827116
67,689.7735832178005
68,689.7655554697747
69,689.7583398283745
70,689.7519010615118
71,689.7462109622118
72,689.7412486857673
73,689.7370008869398
74,689.7334616721031
75,689.73063238356
76,689.7285212340433
77,689.7271428103601
78,689.7265174669602
79,689.726670631985
80,689.727632048431
81,689.7294349712264
82,689.7321153385047
83,689.7357109328196
84,689.7402605448304
85,689.7458031482141
86,689.7523770918602
87,689.7600193148708
88,689.7687645907369
89,689.7786448083148
90,689.7896882986845
91,689.8019192179024
92,689.8153569948795
93,689.8300158515274
94,689.8459044007412
95,689.8630253272494
96,689.8813751553605
97,689.9009441049778
98,689.9217160336033
99,689.9436684590604
100,689.9667726560916
101,689.9909938195094
102,690.0162912869166
103,690.0426188152694
104,690.0699249072507
105,690.0981531841777
106,690.1272428009037
107,690.1571288952302
108,690.1877430611983
109,690.2190138337376
110,690.2508671722823
111,690.2832269326973
112,690.316015318995
113,690.349153307776
114,690.3825610388643
115,690.4161581657335
116,690.4498641597401
117,690.4835985633258
118,690.5172811895387
119,690.5508322690285
120,690.5841725509661
121,690.6172233697619
122,690.6499066938377
123,690.6821451759953
124,690.7138622269134
125,690.744982132717
126,690.7754302333775
127,690.8051331716565
128,690.834019214957
129,690.8620186472281
130,690.8890642249322
131,690.915091687906
132,690.9400403121405
133,690.9638534892806
134,690.9864793186621
135,691.007871200618
136,691.0279884221188
137,691.0467967262651
138,691.0642688557464
139,691.0803850579821
140,691.0951335378987
141,691.1085108442975
142,691.1205221771071
143,691.1311816044074
144,691.1405121795838
145,691.1485459508646
146,691.1553238589302
147,691.1608955238202
148,691.1653189283458
149,691.1686600085611
150,691.1709921611236
151,691.1723956736959
152,691.1729570799846
153,691.1727684375174
154,691.1719265254864
155,691.1705319627198
156,691.1686882512846
157,691.1665007575515
158,691.1640756485583
159,691.1615188066963
160,691.1589347497277
161,691.1564255857423
162,691.1540900338348
163,691.1520225405038
164,691.1503125180412
165,691.1490437239086
166,691.1482937900258
167,691.1481339002833
168,691.1486286060046
169,691.149835763498
170,691.1518065744702
171,691.1545857080474
172,691.158211482211
173,691.1627160828795
174,691.1681258008164
175,691.1744612698058
176,691.1817376931449
177,691.1899650484124
178,691.1991482627998
179,691.2092873540753
180,691.2203775356824
181,691.23240928768
182,691.245368397759
183,691.2592359788865
184,691.2739884724324
185,691.289597646941
186,691.3060306023391
187,691.3232497883662
188,691.3412130458361
189,691.3598736796578
190,691.3791805715456
191,691.399078336632
192,691.4195075221598
193,691.4404048403627
194,691.4617034244312
195,691.4833330975099
196,691.5052206489254
197,691.5272901171983
198,691.5494630842866
199,691.57165898908
200,691.593795469749
201,691.615788744125
202,691.637554035985
203,691.6590060542478
204,691.6800595315772
205,691.7006298271565
206,691.7206335939353
207,691.7399895037335
208,691.7586190164902
209,691.7764471751889
210,691.7934034064574
211,691.8094223075826
212,691.824444402208
213,691.8384168484981
214,691.8512940847661
215,691.8630383984853
216,691.8736204060887
217,691.883019434331
218,691.8912237993328
219,691.8982309846828
220,691.9040477224271
221,691.9086899793878
222,691.9121828473933
223,691.9145603325212
224,691.9158650379635
225,691.916147738203
226,691.9154668471826
227,691.9138877882855
228,691.9114822786094
229,691.9083275436145
230,691.904505479419
231,691.9001017782194
232,691.8952050288508
233,691.8899058013112
234,691.8842957220028
235,691.8784665450335
236,691.8725092233859
237,691.866512981856
238,691.860564392206
239,691.8547464510182
240,691.8491376624294
241,691.8438111303847
242,691.8388336670785
243,691.8342649252739
244,691.8301565625575
245,691.8265514463454
246,691.8234829101409
247,691.8209740733387
248,691.8190372376546
249,691.8176733734329
250,691.8168717104224
251,691.8166094507582
252,691.8168516250771
253,691.8175511133533
254,691.8186488490215
255,691.820074219314
256,691.8217456687312
257,691.8235715081336
258,691.825450929342
259,691.827275222873
260,691.8289291920966
261,691.8302927495682
262,691.831242672453
263,691.8316544869451
264,691.8314044473728
265,691.8303715729539
266,691.8284397028294
267,691.825499527986
268,691.8214505574211
269,691.8162029758819
270,691.8096793520792
271,691.8018161598055
272,691.7925650802855
273,691.781894062058
274,691.7697881234715
275,691.756249891375
276,691.7412998772943
277,691.7249764988889
278,691.707335859202
279,691.6884512986413
280,691.6684127347359
281,691.6473258034238
282,691.6253108145623
283,691.6025015349439
284,691.5790438146131
285,691.5550940757737
286,691.530817686825
287,691.5063872460684
288,691.4819807999088
289,691.4577800197436
290,691.4339683617442
291,691.4107292341789
292,691.3882441957529
293,691.3666912052483
294,691.3462429396812
295,691.3270651969319
296,691.3093153988992
297,691.2931412115635
298,691.2786792979896
299,691.2660542182903
300,691.255377486711
301,691.2467467914219
302,691.2402453785655
303,691.2359415988805
304,691.2338886126994
305,691.2341242475659
306,691.2366710019604
307,691.2415361875999
308,691.2487122001932
309,691.258176904562
310,691.2698941166644
311,691.2838141641804
312,691.2998745083472
313,691.3180004104431
314,691.3381056259832
315,691.3600931099566
316,691.3838557193335
317,691.409276905322
318,691.4362313965681
319,691.464585883631
320,691.4941997225718
321,691.5249256801661
322,691.5566107445763
323,691.5890970228769
324,691.622222740615
325,691.6558233495003
326,691.6897327390449
327,691.7237845385681
328,691.7578134892741
329,691.791656862938
330,691.825155903593
331,691.8581572696412
332,691.8905144535812
333,691.9220891540913
334,691.9527525724158
335,691.9823866045745
336,692.0108849033132
337,692.0381537872944
338,692.0641129785429
339,692.0886961524822
340,692.1118512882267
341,692.1335408107063
342,692.1537415216429
343,692.1724443236616
344,692.1896537495023
345,692.205387314278
346,692.2196747118895
347,692.2325568773139
348,692.2440849354214
349,692.2543190558085
350,692.2633272333884
351,692.2711840159913
352,692.2779692010963
353,692.2837665225504
354,692.2886623449989
355,692.2927443801285
356,692.2961004361482
357,692.2988172111279
358,692.3009791418503
359,692.3026673212195
360,692.3039584967978
361,692.3049241597425
362,692.3056297286938
363,692.3061338295406
364,692.3064876709112
365,692.3067345163682
366,692.306909255928
367,692.3070380796559
368,692.3071382539686
369,692.3072179984317
370,692.3072764593027
371,692.3073037759301
372,692.3072812361087
373,692.307181516425
374,692.3069690044133
375,692.306600200707
376,692.3060241997042
377,692.3051832456688
378,692.3040133584554
379,692.3024450205238
380,692.3004039153299
381,692.2978117064023
382,692.2945868457614
383,692.2906453997366
384,692.2859018804862
385,692.280270073531
386,692.2736638556912
387,692.265998003102
388,692.2571889929808
389,692.2471558029988
390,692.2358207089077
391,692.2231100777268
392,692.2089551525548
393,692.1932928248295
394,692.1760663885508
395,692.157226268848
396,692.1367307163706
397,692.1145464597719
398,692.0906493088982
399,692.0650246995735
400,692.0376681687262
401,692.0085857489206
402,691.9777942744038
403,691.9453215939458
404,691.9112066870773
405,691.8754996805775
406,691.8382617631462
407,691.7995649985124
408,691.759492039543
409,691.7181357468597
410,691.67559871473
411,691.631992705462
412,691.5874379929434
413,691.5420626176864
414,691.4960015590661
415,691.4493958324769
416,691.4023915176548
417,691.3551387205895
418,691.307790468691
419,691.2605015395875
420,691.2134272285011
421,691.1667220667632
422,691.1205385124133
423,691.0750256396622
424,691.0303278558537
425,690.986583674072
426,690.9439245684162
427,690.9024739367155
428,690.8623461913941
429,690.8236459940348
430,690.7864676434019
431,690.7508946194251
432,690.716999276841
433,690.6848426737778
434,690.6544745150057
435,690.6259331877332
436,690.5992458688472
437,690.5744286849947
438,690.5514869100402
439,690.5304151881833
440,690.5111977754498
441,690.4938087968171
442,690.4782125196601
443,690.4643636460269
444,690.4522076274227
445,690.4416810075431
446,690.4327118006896
447,690.425219915245
448,690.4191176319173
449,690.4143101458706
450,690.4106961807748
451,690.4081686808764
452,690.4066155838475
453,690.405920672654
454,690.4059645002534
455,690.4066253779438
456,690.407780416829
457,690.4093066114604
458,690.4110819547482
459,690.412986573351
460,690.4149038724872
461,690.416721678376
462,690.4183333656217
463,690.4196389559821
464,690.4205461742389
465,690.420971446711
466,690.4208408281568
467,690.4200908425405
468,690.418669221895
469,690.4165355258112
470,690.4136616230031
471,690.4100320170646
472,690.4056440017732
473,690.4005076372168
474,690.3946455459272
475,690.3880925368501
476,690.3808950723906
477,690.373110597874
478,690.3648067530117
479,690.3560604826433
480,690.3469570606502
481,690.3375890379571
482,690.3280551247858
483,690.3184590197054
484,690.3089082018657
485,690.2995127053065
486,690.2903838939642
487,690.2816332535729
488,690.273371214044
489,690.2657060150693
490,690.2587426288568
491,690.2525817551501
492,690.2473189029085
493,690.2430435695316
494,690.2398385229552
495,690.2377791857153
496,690.2369331149396
497,690.2373595695509
498,690.2391091559571
499,690.2422235451942
500,690.2467352565974
501,690.2526675048987
502,690.2600341091678
503,690.2688394633158
504,690.2790785686101
505,690.2907371280535
506,690.3037917003787
507,690.3182099093958
508,690.3339507047975
509,690.3509646738019
510,690.3691944072274
511,690.3885749261112
512,690.409034174337
513,690.4304935791837
514,690.4528686767828
515,690.4760697953776
516,690.5000027879578
517,690.524569807555
518,690.5496701213087
519,690.5752009611685
520,690.6010584095417
521,690.6271383179221
522,690.6533372550689
523,690.6795534776729
524,690.7056879111021
525,690.7316451224923
526,690.7573342649804
527,690.7826699715059
528,690.8075731795108
529,690.8319718725302
530,690.8558017286183
531,690.8790066674402
532,690.9015392881104
533,690.9233611896591
534,690.9444431665252
535,690.9647652735022
536,690.9843167580974
537,691.0030958627286
538,691.021109504016
539,691.0383728409936
540,691.0549087476242
541,691.0707472070718
542,691.0859246459976
543,691.1004832275416
544,691.1144701222811
545,691.1279367762562
546,691.1409381919929
547,691.1535322321299
548,691.1657789487184
549,691.1777399373063
550,691.1894777131678
551,691.2010551054298
552,691.2125346630597
553,691.223978066285
554,691.2354455390536
555,691.2469952619264
556,691.2586827886872
557,691.270560472603
558,691.2826769094361
559,691.2950764049227
560,691.3077984751997
561,691.3208773890706
562,691.3343417600615
563,691.3482141934346
564,691.3625109892803
565,691.3772418992094
566,691.3924099329686
567,691.40801121275
568,691.4240348754132
569,691.4404630247161
570,691.4572707366218
571,691.4744261210672
572,691.4918904434223
573,691.5096183086381
574,691.5275579112409
575,691.5456513547259
576,691.5638350436219
577,691.5820401497812
578,691.6001931516115
579,691.6182164426103
580,691.6360290048964
581,691.6535471434693
582,691.6706852755989
583,691.6873567666086
584,691.7034748000614
585,691.718953268578
586,691.7337076710253
587,691.7476560018055
588,691.7607196187
589,691.7728240775814
590,691.7838999241851
591,691.7938834332799
592,691.8027172838459
593,691.8103511569834
594,691.8167422434182
595,691.8218556511099
596,691.8256647102321
597,691.8281511801548
598,691.8293053679998
599,691.829126169365
600,691.8276210395433
601,691.8248058998689
602,691.82070498062
603,691.8153506001396
604,691.8087828796621
605,691.8010493943658
606,691.792204762558
607,691.7823101757607
608,691.7714328727719
609,691.7596455608176
610,691.7470257865051
611,691.733655258443
612,691.7196191230482
613,691.705005196244
614,691.689903156627
615,691.6744037094019
616,691.6585977334481
617,691.642575425124
618,691.6264254521129
619,691.6102341297128
620,691.5940846306804
621,691.5780562379024
622,691.5622236473731
623,691.5466563283574
624,691.5314179486813
625,691.516565874805
626,691.5021507568921
627,691.4882162078262
628,691.4747985830678
629,691.4619268668429
630,691.4496226696997
631,691.4379003418145
632,691.4267672040901
633,691.4162238949705
634,691.4062648264455
635,691.3968787393228
636,691.3880493453307
637,691.3797560406516
638,691.3719746714311
639,691.3646783275858
640,691.3578381381424
641,691.351424039694
642,691.3454054893576
643,691.339752095488
644,691.3344341443046
645,691.3294230083723
646,691.324691431996
647,691.3202136971356
648,691.3159656806579
649,691.3119248197348
650,691.3080700065382
651,691.3043814351322
652,691.3008404226767
653,691.2974292248318
654,691.294130862141
655,691.2909289698515
656,691.2878076782218
657,691.2847515248582
658,691.2817453965106
659,691.2787744964766
660,691.2758243353488
661,691.2728807452411
662,691.2699299187259
663,691.2669584733923
664,691.2639535422381
665,691.2609028896059
666,691.257795051846
667,691.2546195011171
668,691.2513668295793
669,691.2480289493126
670,691.2445993004371
671,691.2410730572324
672,691.2374473212816
673,691.2337212920193
674,691.2298964068754
675,691.2259764437237
676,691.221967577571
677,691.2178783830536
678,691.2137197758169
679,691.2095048891384
680,691.2052488864919
681,691.2009687161187
682,691.1966828196944
683,691.19241081208
684,691.1881731511828
685,691.1839908159844
686,691.1798850077632
687,691.175876885205
688,691.1719873390296
689,691.1682368066919
690,691.1646451231207
691,691.1612313993608
692,691.1580139173831
693,691.1550100265789
694,691.1522360263449
695,691.1497070208388
696,691.1474367369223
697,691.1454373033253
698,691.1437189960722
699,691.1422899606414
700,691.1411559247463
701,691.1403199173158
702,691.1397820096448
703,691.1395390937173
704,691.1395847101544
705,691.1399089343934
706,691.1404983253594
707,691.1413359370806
708,691.142401391161
709,691.1436710068402
710,691.1451179852946
711,691.1467126458602
712,691.1484227138932
713,691.1502136622345
714,691.1520491092663
715,691.1538912750802
716,691.155701493441
717,691.1574407725692
718,691.1590703942271
719,691.1605525389889
720,691.1618509253077
721,691.1629314500957
722,691.1637628187393
723,691.1643171530577
724,691.1645705668079
725,691.1645036993883
726,691.1641021983776
727,691.1633571405214
728,691.1622653807191
729,691.1608298209045
730,691.1590595938005
731,691.156970157569
732,691.1545832962069
733,691.151927019393
734,691.149035355956
735,691.1459480370655
736,691.1427100678974
737,691.1393711895547
738,691.135985236545
739,691.1326093990164
740,691.129303402775
741,691.1261286238414
742,691.1231471583345
743,691.1204208725865
744,691.1180104615152
745,691.1159745445742
746,691.1143688278629
747,691.1132453578009
748,691.1126518856162
749,691.1126313537136
750,691.1132215070228
751,691.1144546255746
752,691.1163573679077
753,691.118950707887
754,691.1222499411888
755,691.1262647340682
756,691.1309991872931
757,691.1364518915817
758,691.142615955875
759,691.149478995707
760,691.157023075806
761,691.1652246077839
762,691.1740542090282
763,691.183476533151
764,691.1934500865334
765,691.2039270488298
766,691.2148531161233
767,691.2261673845096
768,691.2378022917769
769,691.2496836361752
770,691.2617306915106
771,691.2738564345578
772,691.2859678944487
773,691.2979666265908
774,691.3097493076839
775,691.3212084438486
776,691.332233179929
777,691.3427101940161
778,691.3525246578936
779,691.3615612432882
780,691.3697051564114
781,691.376843187806
782,691.3828647685482
783,691.387663025749
784,691.3911358295903
785,691.393186821844
786,691.3937264140666
787,691.3926727435661
788,691.3899525756668
789,691.3855021401725
790,691.3792678885618
791,691.371207157915
792,691.3612887286015
793,691.3494932648218
794,691.3358136294202
795,691.320255066842
796,691.3028352511473
797,691.2835841998333
798,691.2625440585765
799,691.2397687664026
800,691.2153236149204
801,691.1892847187653
802,691.1617384167254
803,691.1327806234941
804,691.1025161501802
805,691.0710580080771
806,691.0385267058541
807,691.00504954625
808,690.9707599248468
809,690.9357966302787
810,690.9003031419186
811,690.8644269182232
812,690.8283186677406
813,690.7921315958832
814,690.756020623766
815,690.7201415803282
816,690.6846503744557
817,690.6497021575094
818,690.6154504865497
819,690.5820464953543
820,690.5496380772487
821,690.5183690831265
822,690.4883785395843
823,690.4597998941732
824,690.4327602960298
825,690.4073799198727
826,690.3837713397371
827,690.3620389568774
828,690.3422784844885
829,690.3245764895178
830,690.309009988124
831,690.2956460870721
832,690.2845416605837
833,690.2757430521096
834,690.2692857924
835,690.2651943280727
836,690.2634817585114
837,690.2641495828562
838,690.2671874617599
839,690.2725730004515
840,690.2802715621141
841,690.2902361245447
842,690.3024071973954
843,690.3167128203858
844,690.3330686639124
845,690.3513782520287
846,690.3715333236429
847,690.3934143416608
848,690.416891153287
849,690.4418237994549
850,690.4680634678961
851,690.4954535818196
852,690.5238310135219
853,690.5530274095504
854,690.5828706119269
855,690.6131861583734
856,690.6437988427659
857,690.6745343149006
858,690.7052206967453
859,690.7356901912804
860,690.765780659291
861,690.7953371380906
862,690.8242132745232
863,690.8522726445894
864,690.8793899347453
865,690.905451964361
866,690.9303585337972
867,690.9540230881638
868,690.9763731935557
869,690.9973508295528
870,691.016912507202
871,691.0350292244655
872,691.051686271993
873,691.0668829024055
874,691.0806318762973
875,691.0929588973593
876,691.1039019477348
877,691.1135105339499
878,691.1218448537326
879,691.1289748944075
880,691.1349794742868
881,691.1399452396615
882,691.143965631184
883,691.1471398340351
884,691.1495717260362
885,691.1513688367527
886,691.15264132907
887,691.1535010136731
888,691.1540604068379
889,691.154431842231
890,691.1547266466819
891,691.1550543873558
892,691.1555221937031
893,691.1562341533482
894,691.1572907786891
895,691.1587885415387
896,691.1608194759378
897,691.1634708522979
898,691.1668249273858
899,691.1709587734799
900,691.1759441868265
901,691.1818476717525
902,691.1887304936515
903,691.1966487918432
904,691.205653741617
905,691.2157917536024
906,691.2271046985205
907,691.2396301465368
908,691.253401612267
909,691.2684487983327
910,691.2847978320277
911,691.3024714914576
912,691.321489419718
913,691.3418683279646
914,691.3636221896685
915,691.3867624279943
916,691.4112980959699
917,691.4372360464823
918,691.4645810881706
