frame_number,force
0,597.2630600000463
1,597.2747229315185
2,597.2876524748009
3,597.3031038000465
4,597.3223088100374
5,597.3464639476603
6,597.376720706911
7,597.414184932819
8,597.4599287487121
9,597.515011367884
10,597.5804972395932
11,597.6574563440757
12,597.7469304845773
13,597.8498475592272
14,597.9668687856183
15,598.0981732437157
16,598.243216197783
17,598.4005191084411
18,598.5675405952308
19,598.7406449175353
20,598.9151567762768
21,599.0854931215277
22,599.2453852554785
23,599.3882150899857
24,599.5074720021775
25,599.5973029730169
26,599.6530956845642
27,599.672012804227
28,599.6533897283063
29,599.5989160830862
30,599.512545957832
31,599.400130483071
32,599.268832990412
33,599.1264433317833
34,598.9807204690139
35,598.8388502895615
36,598.70703376361
37,598.5901648083504
38,598.4915519004014
39,598.4126796337761
40,598.3530575956383
41,598.3102242118007
42,598.2799534218907
43,598.2566702355763
44,598.2340396319438
45,598.2056622628179
46,598.1657867519182
47,598.1099311440868
48,598.0353109690263
49,597.9410138571789
50,597.8279291783374
51,597.69850453279
52,597.5564343785692
53,597.4063775973223
54,597.2537497528022
55,597.1045650474349
56,596.9652549977949
57,596.8423919774499
58,596.7422845047756
59,596.6704596083774
60,596.6310895337546
61,596.6264492939596
62,596.6564988576295
63,596.7186625065304
64,596.8078385259062
65,596.916637602438
66,597.0358332069801
67,597.1550079317062
68,597.2633766264487
69,597.3507386219819
70,597.4084556153429
71,597.4303008770189
72,597.4130238282008
73,597.3565337785778
74,597.2636939741574
75,597.1397902189603
76,596.9917816599387
77,596.8274576618128
78,596.6546180990867
79,596.4803740553257
80,596.3106450941675
81,596.14990531501
82,596.001186467283
83,595.8662864784114
84,595.7460894172423
85,595.6409018734873
86,595.5507411324945
87,595.4755490738772
88,595.4153341539751
89,595.3702502390346
90,595.3406092846496
91,595.326818546121
92,595.3292481122362
93,595.3480560556259
94,595.3830037892851
95,595.4332870526085
96,595.4974072028658
97,595.5731131898813
98,595.6574394078215
99,595.7468424777653
100,595.8374140613954
101,595.9251352324803
102,596.0061478966418
103,596.0770366714611
104,596.1351198054115
105,596.1787383515541
106,596.2075204899768
107,596.2225817079935
108,596.2265963104891
109,596.2236609157582
110,596.2189003750623
111,596.2178445038124
112,596.2256859516609
113,596.2465639578389
114,596.2829958464449
115,596.3355272255292
116,596.4026246079422
117,596.4808058619093
118,596.5649908308073
119,596.6490369526757
120,596.7263923455779
121,596.7907702703503
122,596.8367490484246
123,596.8602325697866
124,596.8587491338307
125,596.8315946678865
126,596.7798272953179
127,596.7061080736436
128,596.6143844649556
129,596.5094376455461
130,596.3963447974023
131,596.2799197411542
132,596.1641868902609
133,596.051937470098
134,595.9444309995971
135,595.8413186008707
136,595.7408389479907
137,595.6402699866807
138,595.5365504695379
139,595.4269494045996
140,595.3096615416076
141,595.184234565985
142,595.0517792400743
143,594.9149576423853
144,594.7777705395899
145,594.6451795273734
146,594.52261434732
147,594.4154234086394
148,594.3283198371734
149,594.264872689182
150,594.2271065537082
151,594.2152850891611
152,594.2279362238306
153,594.2621234114969
154,594.3139030804739
155,594.3788663979261
156,594.452657476712
157,594.5313802057389
158,594.6118429781799
159,594.6916454251353
160,594.7691705115884
161,594.8435757269298
162,594.9148541558242
163,594.9839671684188
164,595.0529723184562
165,595.1250298049564
166,595.2041943122559
167,595.2949720207989
168,595.4017065026544
169,595.5279178216342
170,595.6757381220344
171,595.8455619233423
172,596.0359728126739
173,596.2439403769727
174,596.465221863736
175,596.6948699186296
176,596.927749778119
177,597.1589961544033
178,597.3843685703547
179,597.6004818098181
180,597.8049019867683
181,597.9961155995862
182,598.1733951946129
183,598.3365941613766
184,598.4859030161899
185,598.6215985757599
186,598.7438271269873
187,598.8524745806536
188,598.9471626750237
189,599.0273629566722
190,599.0925729533702
191,599.1424906016955
192,599.1771532889827
193,599.1970416198039
194,599.203157847286
195,599.1970780466118
196,599.180963603854
197,599.157514149632
198,599.1298520745523
199,599.1013418430804
200,599.0753627328039
201,599.0550737512838
202,599.0432239041771
203,599.0420477415656
204,599.0532472242722
205,599.0780317107415
206,599.1171907611276
207,599.1711889606842
208,599.2402685460806
209,599.3245259332056
210,599.423917022906
211,599.5381624354909
212,599.6665671205436
213,599.8078173144447
214,599.9598385070399
215,600.1197737932214
216,600.2840908541814
217,600.448784423465
218,600.6096290438218
219,600.7624437106805
220,600.9033369284944
221,601.0289073850577
222,601.1363929738447
223,601.2237848270843
224,601.2899328528398
225,601.3346536447833
226,601.3588200047712
227,601.3643846219604
228,601.3542873112704
229,601.3322203300894
230,601.3022679790738
231,601.2684752580769
232,601.2344185812804
233,601.2028456747892
234,601.1754350023303
235,601.1527123807912
236,601.1341540535656
237,601.1184891212306
238,601.1041781017988
239,601.089989626414
240,601.0755450199606
241,601.0616832393702
242,601.0505344747988
243,601.0452666438217
244,601.0495556019208
245,601.0669037437792
246,601.0999747410232
247,601.1501072752811
248,601.2171149244617
249,601.2993932529001
250,601.394267949008
251,601.4984528252028
252,601.6084647035349
253,601.7208802364281
254,601.8324053921406
255,601.9398152328296
256,602.0398674567886
257,602.1292924652428
258,602.2049305295646
259,602.2640316455918
260,602.3046648536969
261,602.3261255439108
262,602.3292107139572
263,602.3162657711026
264,602.2909777490055
265,602.2579631560229
266,602.2222395605919
267,602.18867022535
268,602.1614527739697
269,602.143714087806
270,602.1372795195913
271,602.142683459811
272,602.1594535813266
273,602.1866264130858
274,602.2233630366912
275,602.2694781549378
276,602.325711478777
277,602.3936551177951
278,602.475362145537
279,602.5727480250257
280,602.6869304347697
281,602.8176435451993
282,602.9628383735345
283,603.1185550826
284,603.2791164287801
285,603.4376372623824
286,603.5867841462916
287,603.7196670438577
288,603.8307125442715
289,603.9163656575284
290,603.9754975280989
291,604.0094484032784
292,604.021698728689
293,604.0172344633119
294,604.0017432144709
295,603.9808159879422
296,603.9593126432572
297,603.9409820983888
298,603.9283403490787
299,603.9227407112861
300,603.9245501881221
301,603.9333699885249
302,603.9482728211576
303,603.968040273441
304,603.9913700160265
305,604.0170156173882
306,604.0438415871428
307,604.0708066294387
308,604.0969031142236
309,604.1210814771861
310,604.1421925920962
311,604.1589901169425
312,604.170229747736
313,604.1748708915646
314,604.1723408368066
315,604.162791488805
316,604.1472825405161
317,604.1278519395437
318,604.107460990636
319,604.0898179095201
320,604.0790959271746
321,604.0795715936367
322,604.0952122864528
323,604.12924510549
324,604.183746972212
325,604.2592966418189
326,604.3547178218215
327,604.4669356583601
328,604.5909809025437
329,604.7201931393431
330,604.8466662372175
331,604.9619280961522
332,605.057766154308
333,605.1270433348633
334,605.1643424630179
335,605.1663389854631
336,605.1318937233251
337,605.0619292305271
338,604.9591760467999
339,604.8278496972584
340,604.6732750269073
341,604.5014524861415
342,604.3185823839668
343,604.1306088298279
344,603.94287029456
345,603.7599202245402
346,603.5855260190651
347,603.4228088430799
348,603.2744681567162
349,603.1430272474774
350,603.0310258840055
351,602.9410887155931
352,602.8758313335854
353,602.8376191061247
354,602.8282392004046
355,602.8485668455659
356,602.8983012375876
357,602.9758190038568
358,603.078152888033
359,603.2010665438157
360,603.3391816287842
361,603.4861276739451
362,603.6347157372265
363,603.7771634980676
364,603.9054089328725
365,604.0115337306471
366,604.0882759730696
367,604.1295654870243
368,604.1309966575661
369,604.0901718876588
370,604.0068818134752
371,603.8831100762245
372,603.7228587626118
373,603.5317988351064
374,603.3167656362056
375,603.0851431969473
376,602.8442085472471
377,602.6005239086289
378,602.3594559246727
379,602.1248743426875
380,601.899057673808
381,601.6828126119873
382,601.4757822451562
383,601.2768721232522
384,601.0846883358618
385,600.8978920041434
386,600.7154306519476
387,600.536663431805
388,600.3614115425323
389,600.1899465699669
390,600.022917441313
391,599.8612276632033
392,599.705892516564
393,599.5579110982613
394,599.4181775303648
395,599.2874430889809
396,599.1663384378883
397,599.0554618994646
398,598.9555149963213
399,598.8674264567368
400,598.7923886961127
401,598.7317654542659
402,598.6868952433532
403,598.6588569313843
404,598.6482527536776
405,598.6550297769732
406,598.6783467813698
407,598.7165062490858
408,598.7669861843378
409,598.8265987737071
410,598.8917636621785
411,598.9588316701248
412,599.0243699891653
413,599.0853452218757
414,599.13919700965
415,599.1838438899101
416,599.2176821093742
417,599.2396275543257
418,599.2492176343485
419,599.2467441727985
420,599.2333543543716
421,599.2110615309025
422,599.1826470615214
423,599.1514699563156
424,599.1212061659601
425,599.0955293060869
426,599.0777470955173
427,599.0704266566613
428,599.0750635505351
429,599.0918598561643
430,599.1196645119708
431,599.1560948976512
432,599.1978187309144
433,599.2409444643534
434,599.2814483284346
435,599.3155612995339
436,599.3400598912626
437,599.3524440721299
438,599.3510166196737
439,599.3348835362207
440,599.303887716509
441,599.258494623651
442,599.1996739384015
443,599.1288334556787
444,599.0478288012742
445,598.9590085725198
446,598.8652105948448
447,598.7696380377974
448,598.6756055763768
449,598.5862134410404
450,598.5040392901105
451,598.4309227255993
452,598.3678739945127
453,598.3150925653335
454,598.2720499710067
455,598.2375857503814
456,598.2099892850397
457,598.1870790795211
458,598.1663139850449
459,598.144960317309
460,598.1203082137768
461,598.0899027751398
462,598.0517412028079
463,598.0043921506648
464,597.9470172684129
465,597.8792995760182
466,597.8012977003661
467,597.71326593961
468,597.6155135052352
469,597.5083826306272
470,597.3923689707599
471,597.2683208106363
472,597.1376061439853
473,597.0021574764833
474,596.8643650616021
475,596.7268518712324
476,596.5922088366433
477,596.4627878806218
478,596.3406328423657
479,596.2275731613651
480,596.1254372746494
481,596.0363019759584
482,595.962695131438
483,595.9076924184458
484,595.8748756759258
485,595.8681514094844
486,595.8914611234218
487,595.9484326797207
488,596.042007742984
489,596.1740494059391
490,596.3449294009321
491,596.553134606591
492,596.7949782998847
493,597.0645031262446
494,597.3536232176428
495,597.6525134846779
496,597.9502349480231
497,598.2355695280166
498,598.4980073037362
499,598.7287870943061
500,598.921851976505
501,599.0745608722488
502,599.1880151792883
503,599.266924548614
504,599.3190256159917
505,599.3541440524399
506,599.383036004058
507,599.4161631227332
508,599.4625505091612
509,599.5288511229696
510,599.6187009721302
511,599.7324125902138
512,599.8670319080829
513,600.0167638339045
514,600.1737307085839
515,600.3289675657776
516,600.4735108602009
517,600.5994260216689
518,600.7006378808103
519,600.7734616991578
520,600.8167762374194
521,600.8318357718907
522,600.8217827957276
523,600.7909827785315
524,600.7443318861705
525,600.6866706840013
526,600.6223810762151
527,600.5551806229532
528,600.488082358402
529,600.4234622576972
530,600.3631639174816
531,600.308571385765
532,600.2606014338219
533,600.2196027026248
534,600.1851898752617
535,600.1560748894998
536,600.1299732949312
537,600.1036546565824
538,600.0731754095012
539,600.0342930263452
540,599.983022118974
541,599.9162647680512
542,599.8324346465242
543,599.7319908429539
544,599.6177924117773
545,599.4951863869405
546,599.3717700056883
547,599.2568246112671
548,599.1604827579962
549,599.0927374231591
550,599.0624225313554
551,599.0762893654427
552,599.1382828857836
553,599.2490967127131
554,599.4060603497842
555,599.6033810517209
556,599.8327190600199
557,600.084022998756
558,600.3465074407796
559,600.6096394097045
560,600.8640258116491
561,601.1021361294576
562,601.3188166561772
563,601.5115486873166
564,601.6804031081673
565,601.8276762328325
566,601.9572569777002
567,602.073842530706
568,602.1821500180806
569,602.2862559591522
570,602.3891577777842
571,602.4926130883849
572,602.5972679470838
573,602.7030265960915
574,602.8095552842537
575,602.9167764870344
576,603.0252142243645
577,603.1360961509996
578,603.251187048491
579,603.3723978013386
580,603.5012667071433
581,603.6384377009423
582,603.7832589831431
583,603.933595653741
584,604.0858952582428
585,604.235477350025
586,604.3769644189
587,604.504761815917
588,604.6135264869096
589,604.6985993988159
590,604.7563850328879
591,604.78465376766
592,604.7827398237146
593,604.7516079836789
594,604.6937627921483
595,604.6129879708637
596,604.5139418250162
597,604.4016800242297
598,604.2811993892764
599,604.1570779569736
600,604.0332368057085
601,603.9127976037123
602,603.7979867990946
603,603.6900506123453
604,603.5891768894613
605,603.4944468918318
606,603.4038505350782
607,603.3143942056457
608,603.2223179362088
609,603.1234216155212
610,603.0134787174286
611,602.8886980442785
612,602.7461908670601
613,602.5844119615773
614,602.403547993294
615,602.2058054060169
616,601.995514264855
617,601.7789562979535
618,601.56387117543
619,601.358675346502
620,601.1714996257101
621,601.0091866584047
622,600.8763869852212
623,600.7748734151326
624,600.7031783713878
625,600.6566417903662
626,600.6279089534607
627,600.6078286656135
628,600.5866083524562
629,600.5550339534358
630,600.5055741968072
631,600.433233989192
632,600.3360665102152
633,600.2152913892558
634,600.0750148204384
635,599.9216168191846
636,599.7629366383833
637,599.607407226111
638,599.4632556049602
639,599.3378392697066
640,599.2371646020798
641,599.1656206386309
642,599.1259346581251
643,599.1193187783726
644,599.1457520799624
645,599.2043369865755
646,599.2936656503842
647,599.4121229997263
648,599.5580550131267
649,599.7297626604723
650,599.9253339532917
651,600.1423713653322
652,600.3776957519352
653,600.6271131759942
654,600.8853195882499
655,601.1459904712127
656,601.4020650059675
657,601.6461972272399
658,601.8713208954663
659,602.0712692050729
660,602.2413947388479
661,602.3791192282808
662,602.4842991399804
663,602.5592666007625
664,602.6084510614489
665,602.6376037633594
666,602.6527713237195
667,602.6592351597968
668,602.660638317859
669,602.6584810801874
670,602.6520958404183
671,602.6391121006441
672,602.6163028411236
673,602.580595562864
674,602.5299816381134
675,602.4640945337678
676,602.3843361759141
677,602.2935656128243
678,602.1954781499933
679,602.0938667183767
680,601.9919639864006
681,601.8920215293581
682,601.7952013015822
683,601.7017535269672
684,601.6113708004466
685,601.5235776425088
686,601.4380454552944
687,601.3547859521537
688,601.274228950032
689,601.197208387404
690,601.1248714058078
691,601.0585143106692
692,600.9993517753621
693,600.9482395278807
694,600.9053891352438
695,600.8701318443896
696,600.8407970020841
697,600.814758957173
698,600.788677003294
699,600.7589130934111
700,600.7220628480259
701,600.6754877165695
702,600.6177179847496
703,600.5486246348107
704,600.4693196369086
705,600.3818138814423
706,600.2885256701009
707,600.191781739343
708,600.0934637546424
709,599.99490046648
710,599.8970040559777
711,599.8005584476795
712,599.7065371084248
713,599.6163517963693
714,599.53197042834
715,599.4558694650667
716,599.3908166422691
717,599.3395260841651
718,599.304276771217
719,599.2866125529621
720,599.2872290720633
721,599.3060930766937
722,599.3427510777245
723,599.3967129809998
724,599.4677768643746
725,599.556187599569
726,599.662572179939
727,599.7876572176623
728,599.9318376321246
729,600.0947071726468
730,600.2746652291012
731,600.4686868416289
732,600.6723033783886
733,600.8798060532795
734,601.0846563608371
735,601.280059988796
736,601.4596318762876
737,601.6180574614114
738,601.7516485702661
739,601.8587094795779
740,601.9396684588448
741,601.9969757668915
742,602.034800615446
743,602.0585717730179
744,602.0744057326041
745,602.0884629610614
746,602.1062801145368
747,602.1321487343369
748,602.1686315607698
749,602.2163032941503
750,602.2737702405759
751,602.3379771808784
752,602.4047626916492
753,602.469580776288
754,602.5282721603273
755,602.5777539633257
756,602.6165102488083
757,602.6448043430626
758,602.6645860345528
759,602.679124180934
760,602.6924493527818
761,602.708729635761
762,602.7317095712993
763,602.7643068916041
764,602.8084002192538
765,602.864793678
766,602.9333315843718
767,603.0131337691859
768,603.1029025980753
769,603.201227872225
770,603.3068131834247
771,603.4185724923422
772,603.535584042072
773,603.6569273875865
774,603.7814641076825
775,603.9076483708853
776,604.033456868585
777,604.1564985120846
778,604.2743083301018
779,604.3847659207238
780,604.4865300465448
781,604.5793675803225
782,604.6642816863615
783,604.7433980018313
784,604.819631999339
785,604.8962213964398
786,604.9762439283516
787,605.0622306619673
788,605.1559294001993
789,605.258205150239
790,605.3690234771478
791,605.4874623828679
792,605.6117293199495
793,605.7391979860514
794,605.866496513669
795,605.9896629301279
796,606.1043535961195
797,606.2060738286211
798,606.2904035386126
799,606.3531995120845
800,606.3907587127551
801,606.3999255843484
802,606.3781258655151
803,606.3233163176664
804,606.2338641923965
805,606.1084109505222
806,605.9458066736764
807,605.7451968083125
808,605.5062953006272
809,605.2298017567838
810,604.9178448431485
811,604.5743024527485
812,604.2048852886812
813,603.8169489646731
814,603.4190669841067
815,603.0204236619253
816,602.6300876632566
817,602.2562349048093
818,601.905412485569
819,601.5819523556978
820,601.2876320140225
821,601.0216403668862
822,600.7808592400642
823,600.5604279017123
824,600.3545178198771
825,600.1572078992804
826,599.9633274073042
827,599.7691361556655
828,599.572742153964
829,599.3742106394044
830,599.1753824962436
831,598.9794743042931
832,598.790559049494
833,598.6130266852572
834,598.4511104257178
835,598.3085401882756
836,598.1883407015338
837,598.0927374188918
838,598.0231000367248
839,597.9798635085373
840,597.962411702279
841,597.9689605697598
842,597.9965089261311
843,598.0409271588969
844,598.0972314759017
845,598.1600440160562
846,598.2241772678132
847,598.2852389791761
848,598.3401537039333
849,598.3875204515992
850,598.4277470180584
851,598.4629233156647
852,598.4964324919772
853,598.5323501461241
854,598.5747335364264
855,598.6269319218476
856,598.6910414470591
857,598.7675913606259
858,598.8555032400816
859,598.9523187131417
860,599.0546399041496
861,599.1586810467562
862,599.2608150938489
863,599.3580233081017
864,599.4481964096761
865,599.5302697075073
866,599.6041972158291
867,599.670784797431
868,599.7314140864048
869,599.7877016551543
870,599.8411490841055
871,599.8928406643205
872,599.9432338485227
873,599.9920690480917
874,600.0384056554585
875,600.080771848459
876,600.117398198805
877,600.1464944814556
878,600.166529890694
879,600.1764875254195
880,600.1760797845391
881,600.1659262258299
882,600.1477007587716
883,600.124245218733
884,600.0996237571486
885,600.0790653625662
886,600.0687275866106
887,600.0752364716078
888,600.1050227441985
889,600.1635576812683
890,600.2546482680228
891,600.379944192045
892,600.5387431258428
893,600.728099075521
894,600.9431784037567
895,601.1777716287022
896,601.4248515659433
897,601.6770807803001
898,601.9272151292582
899,602.1684018720512
900,602.3944085828225
901,602.5998403575767
902,602.7804042050794
903,602.9332453112743
904,603.0573096522908
905,603.1536178513005
906,603.2253130229378
907,603.2773883289125
908,603.316089850967
909,603.3480882995168
910,603.3795787033839
911,603.4154762243704
912,603.4588288878916
913,603.5104916429489
914,603.5690456537295
915,603.6309307722307
916,603.6907721617396
917,603.7418858112753
918,603.7769287999616
