frame_number,force
0,607.8585200000421
1,607.9708179405673
2,608.0851898194212
3,608.2034519900558
4,608.3269144412496
5,608.4561476932905
6,608.5907695189583
7,608.7292652766993
8,608.8688834447847
9,609.0056719880021
10,609.1347147593024
11,609.2505888690446
12,609.3480128726051
13,609.4226092134339
14,609.4716689813657
15,609.4947858502513
16,609.4942287952427
17,609.4749588700994
18,609.4442574278877
19,609.4110029534614
20,609.3846951235337
21,609.3743678453878
22,609.3875498158757
23,609.4294178200297
24,609.5022480452091
25,609.6052137905173
26,609.7345208508458
27,609.8838336289599
28,610.0449310313466
29,610.2085277357537
30,610.3651863973805
31,610.5062273258338
32,610.6245305644093
33,610.7151381854666
34,610.7755973653442
35,610.806022134869
36,610.8088912689652
37,610.7886429819056
38,610.751157997677
39,610.7032174036141
40,610.6519791743756
41,610.6044670587808
42,610.5670432356455
43,610.5448581230343
44,610.5413254482372
45,610.5577185958791
46,610.5929820135641
47,610.6437949840471
48,610.7048567332067
49,610.7693284879903
50,610.8293810406875
51,610.8768299766565
52,610.9038591962174
53,610.9038161680703
54,610.8720138008739
55,610.8064208552636
56,610.7080990256718
57,610.5812662814587
58,610.4329261499097
59,610.2720871143612
60,610.1086885400624
61,609.9524238698472
62,609.8116785107961
63,609.6927627328912
64,609.5995308999719
65,609.5333755690808
66,609.493509635203
67,609.4774193230757
68,609.481377514872
69,609.5009349579293
70,609.5313425996601
71,609.5678903983979
72,609.6061706476524
73,609.6422859247208
74,609.6730216831872
75,609.6959940767291
76,609.7097761664855
77,609.7140054673547
78,609.7094715426955
79,609.6981633969579
80,609.6832297437078
81,609.6687900731663
82,609.6595521336037
83,609.6602515289231
84,609.6750073491311
85,609.7067336575946
86,609.7567324348006
87,609.8245422491921
88,609.9080692719627
89,610.0039933706839
90,610.1084026405292
91,610.2175570066391
92,610.3286349515366
93,610.4403020740871
94,610.5529691513176
95,610.6686790697306
96,610.7906571852444
97,610.9226454977596
98,611.0681864694698
99,611.2300112645936
100,611.4096263698663
101,611.6071137791613
102,611.8211041828836
103,612.0488717507995
104,612.286522560927
105,612.5292753560806
106,612.7718353046885
107,613.0088350233
108,613.2352840068327
109,613.4469525699704
110,613.6406253059689
111,613.8141829230117
112,613.9665041747504
113,614.0972205857622
114,614.2063967897708
115,614.2942312963597
116,614.3608672385823
117,614.4063732208748
118,614.4309045878583
119,614.4349930391708
120,614.4198638672805
121,614.3876753916443
122,614.3416123924483
123,614.2858106751728
124,614.225117737171
125,614.1647089317153
126,614.1095970907257
127,614.0641047064724
128,614.0313993830922
129,614.0131986240979
130,614.0097139830701
131,614.0198422030385
132,614.0415515377482
133,614.0723719756564
134,614.109881148008
135,614.152086210205
136,614.1976392815018
137,614.245876884523
138,614.296712880743
139,614.3504240028986
140,614.407363838095
141,614.4676514561507
142,614.5309045933571
143,614.5960929656943
144,614.6615509973499
145,614.7251300522705
146,614.7844311575776
147,614.837059871406
148,614.8808688900725
149,614.9141735468592
150,614.9359276313672
151,614.9458427466705
152,614.944442975924
153,614.9330664657874
154,614.9138336226656
155,614.8895893144754
156,614.8638133523688
157,614.8404945446837
158,614.823968499941
159,614.8187163401734
160,614.8291172037077
161,614.8591533583317
162,614.9120829065359
163,614.990112599958
164,615.0941144262782
165,615.2234304280546
166,615.3757975161789
167,615.5473983285644
168,615.7330155491061
169,615.926251277764
170,616.1197797585361
171,616.3056269583801
172,616.4754974979345
173,616.6211792925542
174,616.7350414380977
175,616.8106097682983
176,616.8431698562972
177,616.8303158837896
178,616.7723461314083
179,616.6724214764655
180,616.5364563120698
181,616.372770712678
182,616.1915612255116
183,616.0042422591171
184,615.8226959011907
185,615.6584653534346
186,615.521939226507
187,615.4215936039334
188,615.3633711023189
189,615.3502644289845
190,615.3821346957083
191,615.4557503985386
192,615.5650023350262
193,615.7012425890089
194,615.8537135865035
195,616.0100699558496
196,616.157032766018
197,616.281226076352
198,616.3702114354264
199,616.413663165538
200,616.404546274593
201,616.340105562698
202,616.2224726072569
203,616.058750180545
204,615.8605220239908
205,615.642828800056
206,615.4227267854884
207,615.2175993320087
208,615.0434224404056
209,614.9131912507978
210,614.8356900684295
211,614.8147387610926
212,614.8489856697503
213,614.9322542110956
214,615.0543908449002
215,615.2025049114496
216,615.3624414731456
217,615.5202969698496
218,615.6637786024717
219,615.7832255360499
220,615.8721666544633
221,615.9273916883562
222,615.9486293553568
223,615.9379994367774
224,615.8993996273618
225,615.8379230239026
226,615.7593322433178
227,615.669578078298
228,615.5743445260698
229,615.4786128913298
230,615.3862552573222
231,615.2996875067913
232,615.2196308783235
233,615.145040658228
234,615.073246014786
235,615.0002996472607
236,614.9214813314065
237,614.8318708371427
238,614.7269121775925
239,614.6029101201307
240,614.4574149848502
241,614.2894697699879
242,614.099718226271
243,613.8903899954774
244,613.6651798371395
245,613.4290295555613
246,613.1878131546094
247,612.9479209216615
248,612.7157402987427
249,612.4970515021071
250,612.2964031031838
251,612.1165898198811
252,611.9583735325306
253,611.8205375774994
254,611.7002704302071
255,611.5937938438261
256,611.4971136501433
257,611.4067738706068
258,611.3205122669583
259,611.2377265837188
260,611.1596695057939
261,611.0893180293934
262,611.0309139367165
263,610.9892324728236
264,610.9686985217236
265,610.9725222018304
266,611.0020351572107
267,611.0563548315121
268,611.1324182686913
269,611.225355149961
270,611.329119346782
271,611.437257760047
272,611.5436729737376
273,611.6432459202937
274,611.7322213819502
275,611.8083129957298
276,611.8705491836336
277,611.918938641011
278,611.954060133697
279,611.9766740941874
280,611.9874297069135
281,611.9867136278693
282,611.9746569011636
283,611.9512844482217
284,611.9167609372108
285,611.8716658957568
286,611.8172274341943
287,611.7554625189989
288,611.6892048717078
289,611.6220280523029
290,611.558079550087
291,611.5018434877528
292,611.4578574371758
293,611.4304176942662
294,611.4233051510556
295,611.4395475342645
296,611.4812133865364
297,611.5492249949501
298,611.6431872744215
299,611.7612465247773
300,611.900006250995
301,612.0545384033189
302,612.2185371916265
303,612.3846534716631
304,612.5450080985294
305,612.6918290411631
306,612.8181216586602
307,612.9182779699669
308,612.9885507913212
309,613.027349921075
310,613.0353452920068
311,613.0153698554814
312,612.9721056930725
313,612.9115417595375
314,612.8402389760632
315,612.7645122346192
316,612.6896859949169
317,612.6195632701475
318,612.5561808089137
319,612.4998490576402
320,612.4494221316829
321,612.4027133970335
322,612.3569639679247
323,612.3092850826067
324,612.2570245025532
325,612.1980362048296
326,612.1308509677542
327,612.0547588810254
328,611.969833577132
329,611.8769422234075
330,611.7777708859984
331,611.6748496458539
332,611.5715182186282
333,611.4717657807992
334,611.3799136732342
335,611.3001654264766
336,611.2360991648715
337,611.1902059397632
338,611.1635759026022
339,611.155800920749
340,611.1651071145565
341,611.1886765518461
342,611.2230837096783
343,611.2647612559992
344,611.3104141836204
345,611.35731925729
346,611.4034781981685
347,611.4476325594072
348,611.4891828290259
349,611.5280692996936
350,611.5646643326264
351,611.5997032910379
352,611.6342530485484
353,611.6696924122828
354,611.7076734527931
355,611.7500514847421
356,611.7987947692156
357,611.8558861112945
358,611.9232050799085
359,612.0023599220157
360,612.0944519901441
361,612.1998021619321
362,612.3177156954724
363,612.4463702156921
364,612.5828698348203
365,612.7234478027942
366,612.8637651327841
367,612.9992548022544
368,613.1254749074924
369,613.238437409692
370,613.3348733233482
371,613.4123913510431
372,613.469497196893
373,613.5054744303116
374,613.5201756394723
375,613.513805197572
376,613.486768104091
377,613.4396183972095
378,613.3730952767083
379,613.2882096696237
380,613.1863390105138
381,613.0692945121853
382,612.9393409501005
383,612.7991706714057
384,612.6518498424069
385,612.5007563618484
386,612.3495151500015
387,612.20191616854
388,612.0617891036644
389,611.9328193274205
390,611.8183180373752
391,611.7209837136767
392,611.6426965477104
393,611.5843784265643
394,611.5459394847278
395,611.526314269437
396,611.523561755982
397,611.5349804228777
398,611.55719625932
399,611.5862174755524
400,611.6174872209921
401,611.6459808248127
402,611.6663882117354
403,611.6734072231623
404,611.662150918877
405,611.6286370511754
406,611.5702862291121
407,611.4863223090563
408,611.377961342824
409,611.2483084489747
410,611.1019575290246
411,610.9443811082507
412,610.781259650954
413,610.6179005153624
414,610.4588451428938
415,610.3076909389293
416,610.1670933130557
417,610.038885264416
418,609.9242549851276
419,609.8239323476007
420,609.7383400958353
421,609.6676762172557
422,609.6119147823273
423,609.5707298311479
424,609.5433544979197
425,609.5283949157493
426,609.5236335374012
427,609.5258786095634
428,609.530936892325
429,609.5337871373539
430,609.5289948124735
431,609.5113385477447
432,609.4765471500464
433,609.4220053297367
434,609.3472846999489
435,609.2543855147321
436,609.1476267098056
437,609.0331891334782
438,608.9183848685111
439,608.8107789654729
440,608.7173149431487
441,608.6435788446091
442,608.5932803922086
443,608.5679644019355
444,608.5669277597735
445,608.5873124070607
446,608.6243505681963
447,608.6717410049201
448,608.72213786447
449,608.7677338892385
450,608.8009058717811
451,608.8148660225644
452,608.8042487106429
453,608.7655684039104
454,608.6975005577652
455,608.6009476030852
456,608.4788595558456
457,608.3358022804937
458,608.1773175751899
459,608.0091810269279
460,607.8367016091092
461,607.6642008567827
462,607.494762140507
463,607.3302646081833
464,607.1716345252826
465,607.0191950053674
466,606.8729963590484
467,606.7330520661146
468,606.5994599919974
469,606.4724290826911
470,606.352245993601
471,606.2392116385785
472,606.1335731190309
473,606.0354770312327
474,605.9449653927048
475,605.8620220380127
476,605.7866621450668
477,605.7190410602244
478,605.6595395371165
479,605.6087732590865
480,605.5674894028906
481,605.5363490272925
482,605.5156370226862
483,605.5049782827413
484,605.5031552526319
485,605.5081027850408
486,605.5171020014982
487,605.5271309751312
488,605.535287953664
489,605.5391963711586
490,605.5373234499972
491,605.5291796613914
492,605.5153966522546
493,605.4976910812181
494,605.4787097497509
495,605.4617398383584
496,605.4502863104732
497,605.4475678470399
498,605.4560299552359
499,605.4769852647481
500,605.5104611238744
501,605.5552832271325
502,605.6093733432125
503,605.670198666257
504,605.7352813071772
505,605.8026626874959
506,605.8712251902326
507,605.9408070614772
508,606.01210544854
509,606.0864292482136
510,606.165400444643
511,606.2506821368523
512,606.3437557034828
513,606.4457330281242
514,606.5571954976023
515,606.6780749691359
516,606.8076054503421
517,606.9443743493109
518,607.0864941173332
519,607.2318975788406
520,607.3787304072041
521,607.5257767042716
522,607.6728200665578
523,607.8208305161635
524,607.9718981723421
525,608.1289081272536
526,608.2950293591862
527,608.4731289383498
528,608.6652170671401
529,608.8720075491016
530,609.0926597811555
531,609.3247426986403
532,609.5644164250632
533,609.8067758195152
534,610.0462704361626
535,610.277122350471
536,610.4936953746308
537,610.6908073571287
538,610.8640090173351
539,611.0098646293778
540,611.1262499217545
541,611.2126403609219
542,611.2703270063984
543,611.3024865559772
544,611.3140464892845
545,611.3113168853608
546,611.3013985590087
547,611.2914164900124
548,611.2876680117806
549,611.294814711682
550,611.3152686296162
551,611.3489030470578
552,611.3931518334801
553,611.4434760959097
554,611.4941075235591
555,611.5389394035576
556,611.572426183424
557,611.5903687100833
558,611.59050459971
559,611.5728751670447
560,611.5399689938861
561,611.4966322075087
562,611.4497147481336
563,611.407432966855
564,611.3784805120158
565,611.3709825408167
566,611.391431140565
567,611.4437510967223
568,611.5286295473715
569,611.6432091810274
570,611.7811988666797
571,611.9334013767102
572,612.0885962379946
573,612.2346533163184
574,612.3597108144568
575,612.4532535512384
576,612.5069739334754
577,612.5153640675823
578,612.4760441435728
579,612.3898600864205
580,612.2607785646583
581,612.0955881277083
582,611.9034099697857
583,611.695040401598
584,611.4821723614903
585,611.276554568085
586,611.0891437628017
587,610.9293029993146
588,610.804107082432
589,610.7178275794433
590,610.6716613292792
591,610.6637228694858
592,610.689265233409
593,610.7410711772767
594,610.8099834457815
595,610.8855819051122
596,610.9570178413622
597,611.0139678920452
598,611.0476037716586
599,611.051433176087
600,611.0218735131007
601,610.9584685680738
602,610.8637291541327
603,610.7426452431733
604,610.6019580291463
605,610.4492965812335
606,610.2922915843484
607,610.1377852508641
608,609.9912487583493
609,609.8564802395562
610,609.73559280563
611,609.6292417386152
612,609.5370054635779
613,609.4578235972933
614,609.3903971128751
615,609.3334724047642
616,609.285967903476
617,609.2469516581842
618,609.2155223746686
619,609.1906672546419
620,609.1711619250472
621,609.1555490548669
622,609.142199262774
623,609.1294331508883
624,609.115667566153
625,609.0995395223221
626,609.0799640054438
627,609.0561085698865
628,609.0273144347543
629,608.9930317755635
630,608.952832450047
631,608.9065161988577
632,608.8542763816778
633,608.7968706559803
634,608.735738974383
635,608.6730094869829
636,608.611352846671
637,608.553703887345
638,608.5029294505523
639,608.4615294670548
640,608.4314170691711
641,608.41377920385
642,608.40900015843
643,608.4166306545036
644,608.4353937738518
645,608.4632310764039
646,608.4974043538537
647,608.5346783195699
648,608.5716103520315
649,608.6049523406821
650,608.632124591912
651,608.6516725080381
652,608.6635928745226
653,608.6694349343409
654,608.6721343701895
655,608.6756005465393
656,608.6841242796136
657,608.7016976132257
658,608.7313473186354
659,608.774586136136
660,608.8310754662303
661,608.8985655753737
662,608.9731348524246
663,609.0496959599736
664,609.1226923208163
665,609.1868854975395
666,609.2381218700051
667,609.2739552078979
668,609.2940069505647
669,609.2999894122047
670,609.2953885413559
671,609.2848688868722
672,609.2735040103514
673,609.2659564636438
674,609.2657389425972
675,609.2746704376889
676,609.2925913594748
677,609.317343067505
678,609.3449825702208
679,609.3701994339893
680,609.3869079676656
681,609.3889777612084
682,609.3710343904464
683,609.3292304627436
684,609.261879888999
685,609.1698667317625
686,609.056764952014
687,608.9286282762561
688,608.7934476366727
689,608.6603411024755
690,608.538613376495
691,608.4368501736191
692,608.362174993935
693,608.3197208733211
694,608.3123076556426
695,608.3402910460816
696,608.4015552089484
697,608.4916412472294
698,608.6040285761833
699,608.7305993099903
700,608.8623024240397
701,608.9899926763838
702,609.1053609423394
703,609.2018231881439
704,609.2752250212142
705,609.3242560143849
706,609.3505295345648
707,609.3583390500289
708,609.3541367687548
709,609.3457993180455
710,609.3417597532181
711,609.3500996789115
712,609.3777030961547
713,609.4295696632004
714,609.5083694903616
715,609.6142939595386
716,609.7452203250615
717,609.8971673379993
718,610.0649737076334
719,610.2430843207275
720,610.4263000408549
721,610.6103533054396
722,610.792215146437
723,610.970108218953
724,611.1432719362729
725,611.311575236036
726,611.4750916412255
727,611.6337452580852
728,611.7871082314174
729,611.9343825257583
730,612.0745430688463
731,612.206572514195
732,612.3296958088627
733,612.4435359537096
734,612.5481566556106
735,612.6440064608371
736,612.7318038466674
737,612.812401874249
738,612.8866612491805
739,612.9553501527079
740,613.0190785987363
741,613.0782697914658
742,613.1331707639923
743,613.1838978792603
744,613.2304992185344
745,613.273014268071
746,613.3115290533349
747,613.3462419828683
748,613.3775537085817
749,613.4061794122407
750,613.4332676015631
751,613.4604957853728
752,613.490095856578
753,613.5247506632631
754,613.567318268676
755,613.6203902796262
756,613.6857609572634
757,613.7639422962208
758,613.8538722028107
759,613.9529155414102
760,614.057171292559
761,614.1620074998605
762,614.2626776766208
763,614.3548538714894
764,614.43496065557
765,614.5002935053582
766,614.5489972717868
767,614.5800109738932
768,614.5930471968005
769,614.5886085721742
770,614.5679974394526
771,614.5332668774813
772,614.4870820068909
773,614.4324887231096
774,614.372608118062
775,614.3102921777055
776,614.2478012364883
777,614.186587468352
778,614.1272616103699
779,614.0697684314054
780,614.0137260954441
781,613.9588357905936
782,613.9052561581723
783,613.8538515433702
784,613.8062526843702
785,613.7647069751154
786,613.7317337688555
787,613.7096319421893
788,613.6999154120257
789,613.7027820887745
790,613.7167434071725
791,613.7385312586547
792,613.7633439504308
793,613.7854113991367
794,613.79878548854
795,613.7982128025186
796,613.7799271778716
797,613.7422159797287
798,613.6856737849051
799,613.6131415982185
800,613.5293938184465
801,613.4406476324858
802,613.3539480200754
803,613.276472405067
804,613.2148190335115
805,613.1743618775217
806,613.1587420615353
807,613.1695329163639
808,613.2060944765078
809,613.2656314048145
810,613.3434672949626
811,613.4335333513601
812,613.5290397263282
813,613.623254604576
814,613.7102691361861
815,613.7856057780441
816,613.8465619670548
817,613.8922596380975
818,613.9234473328997
819,613.9421388911888
820,613.951174603638
821,613.9537798925361
822,613.9531803117378
823,613.9523062924233
824,613.9535959213074
825,613.958891998515
826,613.9694241237128
827,613.9858563807423
828,614.0083738722856
829,614.0367881767817
830,614.0706570901136
831,614.1094244882571
832,614.1525855934802
833,614.1998705137125
834,614.2514151369575
835,614.3078617596315
836,614.3703232940711
837,614.4401726393976
838,614.5186755940381
839,614.6065434241777
840,614.7035163675907
841,614.8080899633895
842,614.9174551498453
843,615.0276514713571
844,615.133867554504
845,615.2307998947439
846,615.3130055340124
847,615.3752347081307
848,615.412773501761
849,615.4218341829619
850,615.3999917344549
851,615.3466014736686
852,615.2630864991629
853,615.1529850585038
854,615.0216992041229
855,614.8759654078284
856,614.7231408797271
857,614.5704390869695
858,614.4242460857195
859,614.2896114705227
860,614.1699507831663
861,614.0669479650047
862,613.9806273385828
863,613.9095645184401
864,613.8511990323501
865,613.8021977760085
866,613.7588222130894
867,613.7172796010047
868,613.6740625404383
869,613.6262775869264
870,613.571940107348
871,613.5101971280162
872,613.4414500892494
873,613.3673712905272
874,613.2908126015261
875,613.2155921274372
876,613.1461479029562
877,613.0870876208238
878,613.042713978678
879,613.0166215174945
880,613.0114238855934
881,613.0286033636813
882,613.0684256804192
883,613.1298703764596
884,613.2105830771222
885,613.3069117028137
886,613.4141008204676
887,613.5266872387557
888,613.639088242821
889,613.7463157066959
890,613.8446967420564
891,613.9324541465537
892,614.0100143821657
893,614.0799688479985
894,614.1466936434852
895,614.2156955664243
896,614.2927793661395
897,614.3831411307686
898,614.4905043751087
899,614.6164214244243
900,614.759848848376
901,614.9170731692819
902,615.0820177459823
903,615.2469023169637
904,615.4031586328889
905,615.5424545391668
906,615.6576682946045
907,615.7436755691164
908,615.7978380966186
909,615.8201148750801
910,615.8127748355028
911,615.7797760903057
912,615.7259591991775
913,615.656239091143
914,615.5749573353964
915,615.4854958586328
916,615.3901886931012
917,615.2905115464965
918,615.187472797028
