frame_number,force
0,711.4448850915962
1,711.4313732991963
2,711.416233556541
3,711.3998327175237
4,711.3825657932116
5,711.3648442653807
6,711.3470835676217
7,711.3296900911118
8,711.3130480759045
9,711.2975068468837
10,711.283369023356
11,711.2708804834074
12,711.2602228827187
13,711.2515093493768
14,711.2447836509219
15,711.2400227907646
16,711.2371427505324
17,711.2360069577066
18,711.2364369484136
19,711.2382245598008
20,711.2411448444499
21,711.2449688117551
22,711.2494751126352
23,711.2544598903372
24,711.2597441884902
25,711.2651785113009
26,711.2706443530766
27,711.276052734473
28,711.2813399796491
29,711.2864611437011
30,711.2913816815977
31,711.2960681497584
32,711.3004789066698
33,711.3045558419238
34,711.3082180341078
35,711.311357926575
36,711.3138402291553
37,711.3155034279047
38,711.3161635888147
39,711.315620105745
40,711.3136631259705
41,711.310082465504
42,711.3046777904341
43,711.2972696789262
44,711.2877109711035
45,711.2758976625821
46,711.2617785382713
47,711.2453627382965
48,711.2267244884947
49,711.2060043713108
50,711.1834067849164
51,711.1591935735635
52,711.1336741173126
53,711.1071924042355
54,711.0801117960613
55,711.0527983760165
56,711.0256039293168
57,710.9988496835398
58,710.9728118495427
59,710.9477097646856
60,710.9236971676141
61,710.9008569316898
62,710.8791994301369
63,710.8586645198909
64,710.8391269175479
65,710.8204045742489
66,710.8022695455384
67,710.7844607315213
68,710.7666977310033
69,710.7486950110299
70,710.7301756980896
71,710.710884481359
72,710.6905992852734
73,710.6691414688427
74,710.6463843037415
75,710.6222593689794
76,710.5967603918233
77,710.5699441232555
78,710.5419280932186
79,710.5128854316271
80,710.4830372313121
81,710.4526430871414
82,710.421990449679
83,710.391383337853
84,710.3611308760691
85,710.3315361276331
86,710.3028857481079
87,710.2754409937254
88,710.2494305738436
89,710.2250457736715
90,710.202438175808
91,710.1817200949366
92,710.1629675074195
93,710.1462249221386
94,710.1315114043733
95,710.1188268588469
96,710.1081577160878
97,710.0994813656312
98,710.0927690017953
99,710.0879868873417
100,710.0850962876757
101,710.0840524296921
102,710.0848028102242
103,710.087285077061
104,710.0914245883555
105,710.0971316559188
106,710.1042984178796
107,710.1127953077568
108,710.1224672272414
109,710.1331297700825
110,710.1445660826455
111,710.1565250410559
112,710.1687213116384
113,710.1808376223254
114,710.1925293447853
115,710.2034313382643
116,710.2131669211575
117,710.2213587692289
118,710.2276414539696
119,710.2316752152495
120,710.2331604069253
121,710.2318518760089
122,710.2275723843842
123,710.2202241277905
124,710.2097974861024
125,710.1963763410481
126,710.1801396072726
127,710.1613590005167
128,710.1403933906345
129,710.1176802244474
130,710.0937244611405
131,710.0690853791801
132,710.0443615869963
133,710.0201745812722
134,709.9971512115268
135,709.975905449636
136,709.9570199411954
137,709.941027890731
138,709.9283958881991
139,709.919508372818
140,709.9146545618877
141,709.914018734508
142,709.9176746365424
143,709.9255844753036
144,709.9376025998365
145,709.9534835927792
146,709.9728941549108
147,709.9954278671999
148,710.0206217409155
149,710.0479734669246
150,710.0769583901106
151,710.1070453785243
152,710.1377109601868
153,710.1684514297327
154,710.1987930095821
155,710.2283004041209
156,710.256584106451
157,710.28330666513
158,710.3081879189767
159,710.331009038974
160,710.3516151127241
161,710.3699159949095
162,710.3858852161048
163,710.3995568505069
164,710.4110203696592
165,710.4204136525588
166,710.427914474892
167,710.4337309464095
168,710.4380914721079
169,710.441234827493
170,710.4434008291852
171,710.4448218779614
172,710.4457154542571
173,710.446277580043
174,710.4466773449211
175,710.4470527032139
176,710.447507745616
177,710.4481115126379
178,710.4488982316846
179,710.4498687231861
180,710.4509926744977
181,710.452211503163
182,710.4534415909139
183,710.454577757776
184,710.455496956614
185,710.4560622641203
186,710.4561272718655
187,710.4555409223333
188,710.4541527119458
189,710.4518180321538
190,710.4484032869602
191,710.4437903722529
192,710.4378801805931
193,710.4305950037359
194,710.4218799585336
195,710.4117037101714
196,710.4000587205153
197,710.386961088557
198,710.3724499296085
199,710.356586228565
200,710.3394511908626
201,710.3211442730704
202,710.3017812150988
203,710.2814923953079
204,710.2604216602518
205,710.238725540276
206,710.2165725697091
207,710.1941423385628
208,710.1716239046497
209,710.1492132693221
210,710.1271097436291
211,710.105511173053
212,710.0846081177909
213,710.0645771806328
214,710.0455737184823
215,710.0277241781599
216,710.0111183365258
217,709.9958018777817
218,709.9817699660842
219,709.9689625925364
220,709.957262344493
221,709.946494912219
222,709.936432299155
223,709.9267984450569
224,709.9172767869137
225,709.9075191641264
226,709.8971554779713
227,709.8858036555308
228,709.8730796577682
229,709.8586073958757
230,709.8420284394587
231,709.8230113593937
232,709.8012605043494
233,709.7765239764861
234,709.7486005422223
235,709.7173452138315
236,709.6826733171691
237,709.6445630257323
238,709.6030565129997
239,709.5582599485388
240,709.5103425094779
241,709.4595344713221
242,709.4061243816864
243,709.3504553473033
244,709.2929205361193
245,709.2339580353558
246,709.174045173123
247,709.1136923239303
248,709.0534361064804
249,708.9938317647604
250,708.935444450732
251,708.8788391756765
252,708.8245693945566
253,708.7731644722389
254,708.7251165538155
255,708.6808675543847
256,708.6407970640175
257,708.6052119157034
258,708.5743379987025
259,708.548314679394
260,708.5271920109024
261,708.510930808306
262,708.4994055608424
263,708.4924099532392
264,708.4896645005265
265,708.490825578007
266,708.4954950380684
267,708.503229690563
268,708.5135501890745
269,708.5259492279258
270,708.5398992598862
271,708.5548600952131
272,708.5702867492327
273,708.5856378055702
274,708.6003843734162
275,708.6140194869533
276,708.6260676242903
277,708.6360939944374
278,708.6437133445285
279,708.648598194086
280,708.6504865096903
281,708.6491888110265
282,708.644594539926
283,708.6366773230246
284,708.6254986345485
285,708.6112093473519
286,708.5940486971326
287,708.5743402641042
288,708.5524847545923
289,708.5289496479712
290,708.5042560563911
291,708.478963322033
292,708.45365195382
293,708.42890555921
294,708.4052925042896
295,708.3833481031287
296,708.3635581272864
297,708.3463443177255
298,708.3320524035413
299,708.3209429257367
300,708.3131849819433
301,708.3088528982637
302,708.3079257985652
303,708.3102900345586
304,708.315744416502
305,708.3240081368136
306,708.3347312243191
307,708.3475072826033
308,708.3618880927594
309,708.3773994183298
310,708.3935571663803
311,708.4098830293644
312,708.4259188351447
313,708.4412389929765
314,708.455460589083
315,708.4682508545582
316,708.4793319353618
317,708.4884831255029
318,708.4955408967922
319,708.5003971426758
320,708.5029961193504
321,708.5033306470968
322,708.5014381534212
323,708.4973970310916
324,708.49132359849
325,708.4833697916611
326,708.4737216217437
327,708.4625983610856
328,708.4502523536976
329,708.4369692775196
330,708.4230685933984
331,708.4089037939822
332,708.3948619713406
333,708.3813622169948
334,708.3688524509987
335,708.3578044042754
336,708.3487066341752
337,708.3420556536656
338,708.338345472354
339,708.3380559768839
340,708.3416405388202
341,708.3495130940723
342,708.3620348491236
343,708.379500836911
344,708.4021267505058
345,708.4300367391008
346,708.4632530596117
347,708.5016885648951
348,708.545142944717
349,708.5933034056126
350,708.6457500927306
351,708.7019661157809
352,708.7613516818158
353,708.8232416006829
354,708.8869252532612
355,708.9516679876217
356,709.0167329066709
357,709.0814021584034
358,709.1449970609069
359,709.2068965984754
360,709.2665539790032
361,709.3235110434165
362,709.3774103494499
363,709.4280046915728
364,709.4751636745369
365,709.5188768003804
366,709.5592524615838
367,709.5965123180983
368,709.6309807790576
369,709.663069693628
370,709.6932588091619
371,709.7220729432115
372,709.7500570474978
373,709.7777504407364
374,709.8056615016559
375,709.8342440330886
376,709.8638763253689
377,709.8948437267129
378,709.9273253535998
379,709.9613854535882
380,709.9969697812248
381,710.0339070800949
382,710.071915412858
383,710.1106127657321
384,710.1495311312805
385,710.188133114368
386,710.2258300244077
387,710.2620004922866
388,710.2960088866984
389,710.327223076305
390,710.3550312745698
391,710.3788578125377
392,710.3981777580557
393,710.4125303448069
394,710.4215311747057
395,710.4248831078594
396,710.4223856608515
397,710.41394262022
398,710.3995674941165
399,710.3793864335717
400,710.3536383942184
401,710.3226725244966
402,710.2869429096645
403,710.2470008190146
404,710.2034846449214
405,710.1571078980197
406,710.1086457915134
407,710.0589209240115
408,710.0087884048655
409,709.9591206532872
410,709.9107921329136
411,709.864664393017
412,709.8215718596997
413,709.7823087718159
414,709.7476174850212
415,709.7181781559761
416,709.6945996646726
417,709.677411576028
418,709.6670569772132
419,709.6638861384332
420,709.6681510799377
421,709.6800011977346
422,709.6994800655023
423,709.7265234401317
424,709.7609584148406
425,709.8025036184586
426,709.8507703864256
427,709.9052649545604
428,709.9653919235814
429,710.0304594316876
430,710.0996865638364
431,710.1722134654133
432,710.2471144310394
433,710.3234139647483
434,710.4001054890325
435,710.4761720437643
436,710.5506080531035
437,710.6224411502242
438,710.6907531264682
439,710.7546992223624
440,710.8135251508941
441,710.8665814418157
442,710.9133349004221
443,710.953377119014
444,710.9864300278693
445,711.0123484800914
446,711.0311199166207
447,711.0428612672173
448,711.0478133444535
449,711.0463330169707
450,711.0388834078467
451,711.0260223084325
452,711.0083889745188
453,710.9866894901426
454,710.9616809421756
455,710.9341547431418
456,710.9049195363449
457,710.874784159581
458,710.8445411163768
459,710.8149509532516
460,710.7867279257792
461,710.7605273531423
462,710.7369350274838
463,710.7164589046072
464,710.6995231289457
465,710.6864643287824
466,710.6775300363695
467,710.6728790108571
468,710.6725832347929
469,710.6766314655082
470,710.6849343622648
471,710.6973312372695
472,710.7135983660136
473,710.7334586373421
474,710.7565922076586
475,710.7826477530269
476,710.8112538860267
477,710.842030318983
478,710.874598370361
479,710.9085904139428
480,710.9436579369032
481,710.9794780474577
482,711.0157584518893
483,711.0522409712304
484,711.0887036006511
485,711.1249610580601
486,711.1608638224305
487,711.1962958142386
488,711.2311710076975
489,711.2654292694509
490,711.2990315822012
491,711.3319546462089
492,711.3641847848218
493,711.3957111547825
494,711.4265184158185
495,711.4565791401985
496,711.4858462890373
497,711.5142460913778
498,711.5416717018386
499,711.5679780893564
500,711.5929786722907
501,711.6164442129935
502,711.6381044068393
503,711.6576524608626
504,711.6747527563231
505,711.6890514299948
506,711.7001894444097
507,711.7078175309355
508,711.7116123086906
509,711.7112928583472
510,711.7066370143888
511,711.697496627329
512,711.6838110453448
513,711.6656180838778
514,711.6430618174475
515,711.6163966361181
516,711.5859871260008
517,711.5523034862254
518,711.515912463843
519,711.4774641599744
520,711.4376753937124
521,711.397310478959
522,711.3571602778549
523,711.3180203439105
524,711.2806689474629
525,711.2458457880854
526,711.2142321765319
527,711.1864333520521
528,711.1629633883259
529,711.1442329065551
530,711.1305396698067
531,711.1220621245182
532,711.1188560086119
533,711.1208541609442
534,711.1278696103802
535,711.1396018941156
536,711.1556463526219
537,711.1755059163047
538,711.1986047411032
539,711.2243030605722
540,711.2519128015279
541,711.2807137555519
542,711.3099702626627
543,711.3389483369222
544,711.3669329456683
545,711.3932448908798
546,711.4172566340867
547,711.4384065088461
548,711.4562109429878
549,711.4702744446628
550,711.480297208616
551,711.4860803183283
552,711.4875286284289
553,711.484651472992
554,711.477561365102
555,711.4664708241042
556,711.451687371254
557,711.4336066253585
558,711.4127034041743
559,711.3895208270511
560,711.3646575789373
561,711.3387536827292
562,711.3124752885349
563,711.2864990725103
564,711.2614968080493
565,711.2381205522119
566,711.2169887729933
567,711.1986737182729
568,711.1836903806652
569,711.1724874216001
570,711.1654402858675
571,711.1628464984561
572,711.1649229057164
573,711.1718045091261
574,711.1835445874473
575,711.2001159657367
576,711.221413455531
577,711.2472575640498
578,711.2773995119867
579,711.311527425172
580,711.3492733647961
581,711.3902207559713
582,711.4339118076662
583,711.4798546437947
584,711.5275300457464
585,711.5763979081322
586,711.6259036515826
587,711.6754848419896
588,711.724578160349
589,711.772626763361
590,711.8190880474316
591,711.8634418389757
592,711.9051989796635
593,711.9439101040653
594,711.9791741843019
595,712.0106462843994
596,712.0380440295304
597,712.061152534465
598,712.0798278249272
599,712.0939989558809
600,712.1036689688875
601,712.1089145911897
602,712.1098843752754
603,712.1067949996997
604,712.0999256997441
605,712.0896110853447
606,712.076232724252
607,712.0602097758434
608,712.041988794123
609,712.0220327206808
610,712.0008090888789
611,711.9787775300956
612,711.9563767901125
613,711.9340116075102
614,711.9120399425743
615,711.8907611566199
616,711.8704058515489
617,711.851128191956
618,711.8330015474302
619,711.8160180788819
620,711.8000924516404
621,711.7850693461174
622,711.7707340265961
623,711.7568249943733
624,711.7430476769077
625,711.7290881625504
626,711.714626180995
627,711.6993468421125
628,711.6829510203625
629,711.6651646071908
630,711.6457470467988
631,711.6244995689044
632,711.6012733462841
633,711.5759774767278
634,711.5485863021169
635,711.5191452889031
636,711.4877746675935
637,711.4546702957441
638,711.4201016196221
639,711.3844069374063
640,711.3479862825368
641,711.3112922057866
642,711.2748186944641
643,711.2390885219341
644,711.2046394489531
645,711.1720098262456
646,711.1417242127515
647,711.1142795973471
648,711.0901327068956
649,711.0696887408798
650,711.0532917292603
651,711.0412165860918
652,711.0336628436886
653,711.030750028545
654,711.0325147002966
655,711.0389092723777
656,711.0498027589076
657,711.0649834967014
658,711.0841637601102
659,711.1069861353909
660,711.1330315494563
661,711.1618288491754
662,711.1928657274335
663,711.2256006252434
664,711.2594750930253
665,711.2939260278287
666,711.3283972260418
667,711.3623497807
668,711.395270985296
669,711.4266815660615
670,711.4561412158774
671,711.4832525012442
672,711.50766326992
673,711.529067760287
674,711.5472067343044
675,711.561867084187
676,711.5728813995025
677,711.58012782873
678,711.583530249606
679,711.583058454456
680,711.5787279519421
681,711.5705991277858
682,711.5587757806653
683,711.543403284869
684,711.5246667002459
685,711.5027890397713
686,711.4780297177556
687,711.4506830538887
688,711.4210766314814
689,711.3895692684024
690,711.3565483445817
691,711.3224262692204
692,711.2876359861378
693,711.2526256031363
694,711.2178524531828
695,711.1837770716327
696,711.1508576360192
697,711.1195453574569
698,711.0902811618737
699,711.0634937892606
700,711.0395992178454
701,711.0190011147274
702,711.0020918228321
703,710.9892532430447
704,710.9808569212536
705,710.9772627313662
706,710.9788157308817
707,710.985840996946
708,710.9986364562811
709,711.0174638713655
710,711.0425382898204
711,711.0740164650183
712,711.1119849866857
713,711.1564490205259
714,711.2073225496799
715,711.2644208101909
716,711.3274552950211
717,711.3960314176956
718,711.469648781829
719,711.5477039802885
720,711.6294958866488
721,711.7142334711918
722,711.8010462243348
723,711.888997220189
724,711.9770986870208
725,712.0643297550747
726,712.1496559145139
727,712.2320496494922
728,712.3105116753355
729,712.3840921611843
730,712.4519112867945
731,712.5131785050291
732,712.5672099589947
733,712.6134435609517
734,712.6514512291232
735,712.6809477359571
736,712.7017956102445
737,712.7140056074054
738,712.7177324856208
739,712.7132662401789
740,712.701019470302
741,712.6815119811661
742,712.6553538792436
743,712.6232282738861
744,712.5858743644183
745,712.5440713124864
746,712.4986229923886
747,712.4503435805331
748,712.4000440288374
749,712.3485196546528
750,712.2965391594929
751,712.2448352533967
752,712.1940968179723
753,712.1449623699143
754,712.0980145490215
755,712.0537753923462
756,712.0127022214049
757,711.9751840477081
758,711.9415384550914
759,711.9120089422964
760,711.8867628021134
761,711.8658898207793
762,711.8494022537961
763,711.837236500308
764,711.8292567008641
765,711.8252602808076
766,711.8249853110368
767,711.8281194364398
768,711.8343100102177
769,711.8431749378161
770,711.8543135807535
771,711.8673169949403
772,711.8817768644981
773,711.8972927088456
774,711.9134771951223
775,711.9299596077117
776,711.9463876902282
777,711.9624282178303
778,711.977766814432
779,711.992107658234
780,712.0051737230173
781,712.0167080284673
782,712.0264760661945
783,712.0342692420978
784,712.0399089288883
785,712.0432505905825
786,712.0441874291956
787,712.042653128575
788,712.0386235110961
789,712.0321171612275
790,712.0231951582828
791,712.011959972502
792,711.9985534317016
793,711.9831535878187
794,711.9659703377696
795,711.9472397610192
796,711.9272173260267
797,711.9061703701797
798,711.8843704533984
799,711.8620861711828
800,711.8395767881267
801,711.8170867995915
802,711.7948414038538
803,711.7730428319475
804,711.7518674050613
805,711.7314630580837
806,711.7119469985599
807,711.6934032124259
808,711.6758796010589
809,711.6593845794823
810,711.6438830476758
811,711.6292918543979
812,711.6154751665237
813,711.6022403911559
814,711.5893353822955
815,711.5764476096275
816,711.5632057964203
817,711.5491842621254
818,711.5339098916024
819,711.5168713837924
820,711.4975302680655
821,711.4753331201115
822,711.4497244218765
823,711.42015957354
824,711.3861177213334
825,711.347114334817
826,711.3027137406223
827,711.2525418933113
828,711.1962994423357
829,711.1337747799524
830,711.0648564806891
831,710.9895444866108
832,710.9079594808727
833,710.8203500096398
834,710.7270970123257
835,710.6287154925628
836,710.5258530963058
837,710.4192853609547
838,710.309907376778
839,710.1987215884485
840,710.0868215145605
841,709.9753713137192
842,709.8655813487522
843,709.7586801515229
844,709.6558834733785
845,709.55836143552
846,709.4672051244502
847,709.383394210298
848,709.3077672205759
849,709.2409959760616
850,709.1835654484105
851,709.1357599921212
852,709.0976565716527
853,709.0691252768033
854,709.0498371149031
855,709.0392787701852
856,709.0367736993464
857,709.0415085919057
858,709.0525639178959
859,709.0689470921513
860,709.0896267387666
861,709.1135665900871
862,709.1397576299435
863,709.1672471852667
864,709.195163839625
865,709.2227373314732
866,709.2493129822046
867,709.2743605839439
868,709.2974779799861
869,709.3183897633069
870,709.3369416085671
871,709.3530907476893
872,709.3668930259074
873,709.3784869300803
874,709.3880750738526
875,709.3959038392992
876,709.4022420655493
877,709.4073597491115
878,709.4115077459611
879,709.4148995259974
880,709.4176960635607
881,709.4199948151156
882,709.4218233972665
883,709.4231381325559
884,709.4238272313831
885,709.4237181403262
886,709.4225885096954
887,709.420180212126
888,709.4162157792553
889,709.4104165018304
890,709.4025213079011
891,709.3923054409476
892,709.379597936441
893,709.3642969552528
894,709.3463821528624
895,709.3259234058784
896,709.3030853784613
897,709.27812762498
898,709.2514002133834
899,709.2233351886782
900,709.1944345038762
901,709.1652552316434
902,709.136392877787
903,709.1084635124088
904,709.0820853639113
905,709.0578605400432
906,709.0363575500824
907,709.0180952149435
908,709.0035284119482
909,708.9930359853764
910,708.986911058719
911,708.9853538813121
912,708.9884672543519
913,708.996254537757
914,709.0086202183062
915,709.0253729880643
916,709.0462312504374
917,709.0708309712452
