frame_number,force
0,711.3680708998571
1,711.3639342407371
2,711.3596300047232
3,711.3552081424793
4,711.3507192379213
5,711.3462137375578
6,711.341741132506
7,711.3373491118667
8,711.3330827066764
9,711.3289834472245
10,711.3250885623748
11,711.3214302546
12,711.3180350848304
13,711.3149234947755
14,711.3121094828085
15,711.309600437356
16,711.3073971228422
17,711.3054938077864
18,711.3038785200911
19,711.3025334090828
20,711.3014351881708
21,711.3005556281328
22,711.2998620705815
23,711.2993179339674
24,711.2988831894313
25,711.2985147900373
26,711.2981670438261
27,711.2977919280429
28,711.2973393480745
29,711.2967573501604
30,711.2959923027661
31,711.2949890680195
32,711.2936911903636
33,711.2920411315828
34,711.2899805769225
35,711.2874508264545
36,711.2843932729841
37,711.2807499568843
38,711.2764641818048
39,711.2714811742999
40,711.2657487736157
41,711.2592181409949
42,711.251844477137
43,711.24358773152
44,711.2344132808444
45,711.2242925493521
46,711.2132035424291
47,711.2011312654076
48,711.1880680015269
49,711.1740134285312
50,711.1589745632281
51,711.1429655352653
52,711.1260072022374
53,711.1081266266096
54,711.08935644164
55,711.0697341397162
56,711.0493013221222
57,711.0281029518468
58,711.0061866479922
59,710.983602052025
60,710.9604002865601
61,710.9366335201458
62,710.9123546458785
63,710.8876170749146
64,710.8624746382434
65,710.8369815839874
66,710.811192653331
67,710.7851632137221
68,710.7589494232342
69,710.7326083983407
70,710.7061983608088
71,710.6797787456665
72,710.6534102579687
73,710.6271548696873
74,710.6010757481638
75,710.5752371040741
76,710.5497039436306
77,710.5245417122677
78,710.4998158263369
79,710.4755911015028
80,710.4519310969669
81,710.4288974005776
82,710.4065488805468
83,710.3849409267581
84,710.3641247023583
85,710.3441464268275
86,710.3250467136725
87,710.3068599863558
88,710.2896139944652
89,710.273329449834
90,710.2580197987276
91,710.2436911385304
92,710.2303422755715
93,710.2179649087141
94,710.2065439146733
95,710.1960577066529
96,710.1864786383334
97,710.1777734311121
98,710.1699036125004
99,710.1628259641406
100,710.1564929853223
101,710.1508533803393
102,710.1458525760597
103,710.141433271678
104,710.1375360177361
105,710.1340998172537
106,710.1310627389984
107,710.1283625329847
108,710.1259372424793
109,710.1237258144812
110,710.1216687184161
111,710.1197085857949
112,710.1177908797094
113,710.1158645950438
114,710.1138829828345
115,710.1118042876324
116,710.1095924844846
117,710.1072180007009
118,710.1046584056634
119,710.101899049045
120,710.0989336238275
121,710.0957646259012
122,710.0924036784229
123,710.0888716888973
124,710.0851988113286
125,710.0814241943607
126,710.0775955085428
127,710.0737682603396
128,710.0700049130695
129,710.0663738410544
130,710.06294814311
131,710.0598043397518
132,710.0570209784618
133,710.0546771723923
134,710.0528510987729
135,710.051618484752
136,710.0510511109094
137,710.0512153647866
138,710.0521708779735
139,710.0539692823481
140,710.0566531243634
141,710.0602549770117
142,710.0647967833514
143,710.0702894536794
144,710.0767327239972
145,710.0841152690231
146,710.0924150494408
147,710.1015998612031
148,710.1116280470383
149,710.1224493286882
150,710.1340057208104
151,710.1462324910161
152,710.159059136279
153,710.1724103561928
154,710.1862070158284
155,710.2003670990579
156,710.2148066536568
157,710.2294407242576
158,710.2441842626084
159,710.2589529991794
160,710.2736642571604
161,710.2882376901423
162,710.3025959279154
163,710.3166651193859
164,710.3303753668811
165,710.343661052001
166,710.3564610593935
167,710.3687189108333
168,710.3803828266256
169,710.3914057328086
170,710.4017452298333
171,710.4113635322772
172,710.4202273831905
173,710.4283079450576
174,710.4355806727403
175,710.4420251779068
176,710.4476250946637
177,710.4523679517268
178,710.4562450503083
179,710.4592513423472
180,710.461385302131
181,710.4626487850917
182,710.4630468695125
183,710.4625876797629
184,710.4612821933264
185,710.4591440370152
186,710.4561892785939
187,710.4524362179395
188,710.4479051776264
189,710.4426182876567
190,710.4365992545552
191,710.4298731032792
192,710.4224658831382
193,710.4144043361147
194,710.4057155347325
195,710.3964265018283
196,710.386563823199
197,710.3761532588352
198,710.3652193545555
199,710.3537850556596
200,710.3418713273751
201,710.3294967923814
202,710.3166774005339
203,710.303426145912
204,710.2897528405169
205,710.2756639456545
206,710.2611624553066
207,710.2462478223872
208,710.2309159184714
209,710.2151590196312
210,710.1989658146481
211,710.1823214360089
212,710.1652075177149
213,710.1476022863317
214,710.1294806922948
215,710.1108145876703
216,710.0915729568982
217,710.0717222111914
218,710.0512265638669
219,710.030048506951
220,710.0081494039439
221,709.9854902013662
222,709.9620322489977
223,709.9377382092296
224,709.9125730290566
225,709.8865049437333
226,709.8595064809233
227,709.831555438811
228,709.8026358181459
229,709.7727386926946
230,709.7418630037162
231,709.7100162633807
232,709.6772151514563
233,709.6434859895344
234,709.6088650773222
235,709.5733988769515
236,709.5371440355133
237,709.5001672433083
238,709.4625449328931
239,709.4243628283104
240,709.3857153538901
241,709.346704910164
242,709.3074410241496
243,709.2680393838469
244,709.2286207707878
245,709.1893099072129
246,709.1502342345622
247,709.1115226380284
248,709.0733041289262
249,709.0357064931959
250,708.9988549121856
251,708.9628705635364
252,708.9278692164424
253,708.8939598446946
254,708.8612432894033
255,708.8298110088025
256,708.7997439539593
257,708.7711116060766
258,708.743971203739
259,708.7183671790991
260,708.694330813863
261,708.6718801202982
262,708.6510199467809
263,708.6317422984911
264,708.6140268526685
265,708.5978416382615
266,708.583143844831
267,708.5698807267231
268,708.5579905759729
269,708.5474037483841
270,708.5380437364894
271,708.5298282873788
272,708.5226705630485
273,708.5164803372483
274,708.5111652164189
275,708.5066318648003
276,708.502787208583
277,708.4995395938676
278,708.4967998778321
279,708.4944824391079
280,708.4925060985296
281,708.490794942378
282,708.4892790366541
283,708.4878950160323
284,708.4865865288963
285,708.4853045212251
286,708.484007345288
287,708.482660683666
288,708.481237286913
289,708.4797165343513
290,708.4780838384635
291,708.4763299205089
292,708.4744499885074
293,708.4724428511757
294,708.4703100043661
295,708.4680547288938
296,708.4656812380414
297,708.4631939087931
298,708.4605966240025
299,708.4578922446378
300,708.4550822237774
301,708.4521663688455
302,708.4491427557555
303,708.4460077966819
304,708.4427564606116
305,708.4393826424184
306,708.4358796725895
307,708.4322409551684
308,708.4284607140103
309,708.4245348177632
310,708.4204616464716
311,708.4162429606463
312,708.4118847362918
313,708.407397934247
314,708.4027991774839
315,708.3981113156716
316,708.3933638635208
317,708.3885933077007
318,708.3838432836352
319,708.3791646272176
320,708.3746153097921
321,708.3702602687097
322,708.366171147803
323,708.3624259599604
324,708.35910867928
325,708.3563087665912
326,708.3541206305787
327,708.352643026046
328,708.3519783902257
329,708.3522321173167
330,708.3535117697941
331,708.355926222279
332,708.3595847317857
333,708.3645959290535
334,708.3710667293598
335,708.3791011662116
336,708.3887991570442
337,708.4002552170729
338,708.4135571448179
339,708.4287847069435
340,708.4460083482109
341,708.4652879467179
342,708.4866716306398
343,708.5101946738415
344,708.5358784934019
345,708.5637297793465
346,708.5937397924239
347,708.6258838671008
348,708.6601211530773
349,708.6963946191369
350,708.734631328502
351,708.7747429783286
352,708.8166266823263
353,708.8601659661532
354,708.9052319381495
355,708.9516845928117
356,708.9993742036627
357,709.0481427667148
358,709.0978254629941
359,709.1482521155199
360,709.1992486215619
361,709.2506383448197
362,709.3022434538074
363,709.3538861913926
364,709.4053900563525
365,709.4565808733491
366,709.5072877263625
367,709.5573437344196
368,709.6065866575655
369,709.6548593348197
370,709.7020099719143
371,709.7478923102739
372,709.7923657168641
373,709.8352952379876
374,709.8765516604815
375,709.9160116207137
376,709.9535577950461
377,709.9890791972247
378,710.022471601348
379,710.0536381039587
380,710.0824898325399
381,710.1089467974462
382,710.1329388712015
383,710.1544068672397
384,710.173303681561
385,710.189595454459
386,710.2032627059506
387,710.2143014005778
388,710.2227239050037
389,710.2285598110561
390,710.2318566036475
391,710.2326801572991
392,710.2311150484189
393,710.2272646732629
394,710.2212511630688
395,710.2132150880238
396,710.2033149406549
397,710.1917263876919
398,710.1786412791231
399,710.1642664061076
400,710.1488220068982
401,710.1325400300237
402,710.1156621716225
403,710.098437707128
404,710.0811211414753
405,710.0639697103437
406,710.0472407728338
407,710.031189137022
408,710.016064355752
409,710.0021080273509
410,709.9895511377529
411,709.978611484568
412,709.9694912259915
413,709.962374595239
414,709.9574258143726
415,709.9547872327618
416,709.954577708314
417,709.9568912454083
418,709.9617959020148
419,709.9693329792774
420,709.9795165081492
421,709.9923330465106
422,710.0077417952971
423,710.0256750352577
424,710.046038879202
425,710.0687143291219
426,710.0935586246044
427,710.120406869451
428,710.1490739265229
429,710.1793565739104
430,710.2110359155748
431,710.2438800348359
432,710.2776468700748
433,710.3120872808275
434,710.3469482602158
435,710.3819762373304
436,710.4169204038698
437,710.4515359964813
438,710.4855874695317
439,710.5188514993428
440,710.5511197684888
441,710.5822014876395
442,710.6119256219722
443,710.6401427970555
444,710.666726864064
445,710.6915761080159
446,710.7146140882816
447,710.7357901082751
448,710.7550793187024
449,710.7724824637728
450,710.7880252823928
451,710.8017575783449
452,710.8137519763449
453,710.8241023849512
454,710.8329221924329
455,710.8403422277358
456,710.8465085244326
457,710.8515799290316
458,710.8557255957293
459,710.8591224091691
460,710.8619523769863
461,710.8644000347994
462,710.8666499050523
463,710.8688840458204
464,710.8712797188587
465,710.8740072009082
466,710.8772277578913
467,710.8810917971089
468,710.8857372101579
469,710.8912879206897
470,710.8978526533577
471,710.9055239386114
472,710.9143773614782
473,710.9244710545047
474,710.9358454283947
475,710.9485231288537
476,710.9625092046956
477,710.9777914703475
478,710.9943410441297
479,711.0121130416782
480,711.0310474042085
481,711.0510698455222
482,711.0720929062115
483,711.0940171039061
484,711.1167321649993
485,711.1401183204466
486,711.1640476493347
487,711.1883854585342
488,711.2129916910428
489,711.2377223555933
490,711.2624309654159
491,711.2869699685158
492,711.3111921497797
493,711.334951988107
494,711.3581069574467
495,711.3805187654764
496,711.4020545259069
497,711.4225878614807
498,711.4419999369617
499,711.4601804249963
500,711.4770284109292
501,711.4924532437589
502,711.5063753390456
503,711.518726936208
504,711.5294528073073
505,711.5385109071809
506,711.5458729474838
507,711.5515248726252
508,711.5554672146937
509,711.5577153055519
510,711.5582993257107
511,711.5572641711589
512,711.5546691212211
513,711.5505872930955
514,711.545104872821
515,711.5383201178547
516,711.5303421320303
517,711.5212894203003
518,711.5112882410255
519,711.5004707871773
520,711.4889732398191
521,711.4769337433409
522,711.4644903522551
523,711.4517789973368
524,711.438931517542
525,711.4260738035327
526,711.4133240965307
527,711.400791480568
528,711.3885745969873
529,711.3767605997995
530,711.3654243631008
531,711.354627948774
532,711.3444203416904
533,711.3348374572258
534,711.3259024210398
535,711.3176261137755
536,711.3100079636439
537,711.3030369592718
538,711.2966928473528
539,711.2909474777525
540,711.2857662628893
541,711.2811097249397
542,711.2769351087584
543,711.2731980366692
544,711.2698541734458
545,711.266860860856
546,711.2641786779175
547,711.2617728873233
548,711.2596147357693
549,711.2576825819725
550,711.2559628315754
551,711.254450664392
552,711.2531505456152
553,711.2520765173508
554,711.2512522703337
555,711.2507109976001
556,711.2504950315844
557,711.2506552653217
558,711.2512503604038
559,711.2523457500919
560,711.2540124541151
561,711.2563257303311
562,711.2593635959471
563,711.2632052555845
564,711.2679294738492
565,711.273612927038
566,711.2803285653006
567,711.2881440160334
568,711.2971200610233
569,711.3073092197272
570,711.3187544657983
571,711.331488094717
572,711.3455307511601
573,711.3608906191853
574,711.3775627779996
575,711.395528729494
576,711.4147561070904
577,711.4351985755716
578,711.4567959271448
579,711.4794743706124
580,711.5031470012733
581,711.5277144332496
582,711.5530655748031
583,711.5790785293966
584,711.605621609445
585,711.632554454815
586,711.659729251449
587,711.6869920444267
588,711.7141841352108
589,711.7411435485759
590,711.7677065533549
591,711.7937092213292
592,711.8189890068697
593,711.843386324508
594,711.8667460946838
595,711.8889192243039
596,711.9097639919414
597,711.9291473168921
598,711.9469459025364
599,711.9630472517697
600,711.9773505517655
601,711.9897674188533
602,712.0002224890309
603,712.0086538420234
604,712.0150132568018
605,712.0192663077861
606,712.0213923164293
607,712.0213841709706
608,712.0192480225443
609,712.0150028634021
610,712.0086799937121
611,712.0003223862649
612,711.9899839626911
613,711.9777287997833
614,711.9636302890706
615,711.9477702763222
616,711.9302382109904
617,711.9111303388866
618,711.8905489712809
619,711.868601855653
620,711.8454016576032
621,711.8210655453066
622,711.7957148532473
623,711.7694747933685
624,711.742474178683
625,711.7148451259179
626,711.6867227099403
627,711.6582445531758
628,711.6295503459714
629,711.6007813054234
630,711.5720795870988
631,711.5435876645349
632,711.515447685754
633,711.4878008056826
634,711.4607864811395
635,711.4345417062614
636,711.4092001663957
637,711.3848912986537
638,711.3617392623511
639,711.339861834754
640,711.3193692524416
641,711.3003630181038
642,711.2829346919395
643,711.2671646892305
644,711.2531211103628
645,711.2408586340425
646,711.2304175065432
647,711.2218226585522
648,711.2150829769995
649,711.2101907535298
650,711.2071213252799
651,711.205832918046
652,711.206266697371
653,711.2083470305089
654,711.2119819623256
655,711.2170639094344
656,711.2234705755727
657,711.2310660857398
658,711.2397023299037
659,711.2492205031114
660,711.2594528276112
661,711.270224440549
662,711.281355425449
663,711.2926629582319
664,711.3039635319635
665,711.3150752209116
666,711.3258199441487
667,711.336025691138
668,711.3455286756881
669,711.3541753898393
670,711.3618245344118
671,711.3683488066173
672,711.3736365276741
673,711.3775930967752
674,711.3801422630587
675,711.3812272130365
676,711.3808114738748
677,711.3788796296508
678,711.3754378389583
679,711.3705141340554
680,711.3641584806123
681,711.3564425844644
682,711.3474594437017
683,711.337322655115
684,711.3261654890775
685,711.3141397459062
686,711.3014144030586
687,711.2881740601055
688,711.274617188324
689,711.2609541927864
690,711.2474052965581
691,711.234198260009
692,711.2215659540097
693,711.2097438137806
694,711.1989672090766
695,711.1894687735025
696,711.1814757386991
697,711.1752073177282
698,711.1708721770946
699,711.1686660296291
700,711.1687693725468
701,711.171345387304
702,711.1765380103413
703,711.1844701773284
704,711.1952422402138
705,711.2089305572131
706,711.2255862599527
707,711.245234207367
708,711.2678721402098
709,711.2934700521622
710,711.3219697953078
711,711.3532849412858
712,711.3873009238697
713,711.4238754906717
714,711.4628394879296
715,711.5039979919931
716,711.5471317868535
717,711.591999174067
718,711.6383380932726
719,711.6858685277325
720,711.7342951678743
721,711.7833103057194
722,711.8325969326823
723,711.8818320097873
724,711.930689872402
725,711.9788457240538
726,712.0259791688302
727,712.0717777296912
728,712.1159402992923
729,712.1581804694802
730,712.198229686043
731,712.2358401780976
732,712.2707876165773
733,712.3028734611065
734,712.3319269573747
735,712.3578067491604
736,712.3804020725172
737,712.3996335059794
738,712.4154532622626
739,712.4278450250886
740,712.4368233565418
741,712.4424327188837
742,712.444746163837
743,712.4438637410227
744,712.4399106692226
745,712.4330353042678
746,712.4234069295852
747,712.4112133932279
748,712.3966586199097
749,712.3799600343522
750,712.361345935922
751,712.3410528604376
752,712.3193229567964
753,712.2964013998726
754,712.2725338590458
755,712.247964041802
756,712.2229313324937
757,712.1976685471101
758,712.1723998245282
759,712.1473386731197
760,712.1226861921047
761,712.0986294912867
762,712.0753403357614
763,712.0529740380657
764,712.031668610565
765,712.0115441810572
766,711.9927026666093
767,711.9752276937958
768,711.9591847471424
769,711.94462152066
770,711.9315684400126
771,711.9200393184371
772,711.9100321108799
773,711.9015297368907
774,711.8945009504741
775,711.8889012418823
776,711.8846737615248
777,711.8817502609506
778,711.8800520514067
779,711.8794909853643
780,711.8799704673099
781,711.8813864951884
782,711.8836287246917
783,711.8865815389231
784,711.8901250991527
785,711.8941363495921
786,711.898489950523
787,711.9030591201983
788,711.9077163760077
789,711.9123341753566
790,711.9167854615525
791,711.9209441187395
792,711.924685336582
793,711.9278858842551
794,711.9304242954871
795,711.9321809712119
796,711.9330382137632
797,711.932880215813
798,711.9315930343455
799,711.9290645796569
800,711.9251846416615
801,711.9198449668377
802,711.9129393942966
803,711.9043640574196
804,711.8940176538027
805,711.8818017804996
806,711.8676213277076
807,711.8513849238282
808,711.833005425526
809,711.8124004460673
810,711.7894929160503
811,711.7642116757082
812,711.7364921059682
813,711.7062768114943
814,711.6735163699894
815,711.6381701585037
816,711.600207260191
817,711.5596074444409
818,711.5163622016084
819,711.4704758036652
820,711.4219663560466
821,711.3708668039467
822,711.3172258569708
823,711.2611087988165
824,711.2025981549043
825,711.1417942013791
826,711.0788153098633
827,711.0137981268608
828,710.9468975814865
829,710.8782867050811
830,710.8081562397655
831,710.7367140140826
832,710.6641840700039
833,710.5908055327823
834,710.5168312217484
835,710.4425260057798
836,710.3681649113822
837,710.2940309941108
838,710.2204129859239
839,710.1476027329269
840,710.0758924416408
841,710.0055717586046
842,709.9369247168145
843,709.8702265916547
844,709.8057407187055
845,709.7437153366122
846,709.6843805285407
847,709.62794534224
848,709.5745951687168
849,709.5244894529197
850,709.4777597987147
851,709.4345085169359
852,709.39480765068
853,709.3586984973233
854,709.3261916327053
855,709.2972674290489
856,709.2718770435356
857,709.2499438392572
858,709.2313651863949
859,709.216014581662
860,709.2037440195348
861,709.1943865478896
862,709.187758940963
863,709.1836644238942
864,709.1818953874038
865,709.1822360399532
866,709.1844649570893
867,709.1883575005131
868,709.1936880898505
869,709.2002323171223
870,709.2077688977597
871,709.2160814528876
872,709.2249601163963
873,709.2342029602644
874,709.2436172363537
875,709.253020441929
876,709.2622412244189
877,709.2711201452743
878,709.2795103254742
879,709.2872779990929
880,709.2943030042475
881,709.3004792379828
882,709.3057150918526
883,709.3099338714483
884,709.3130741911539
885,709.3150903288516
886,709.3159525241621
887,709.3156472045456
888,709.3141771228122
889,709.3115613868454
890,709.3078353592668
891,709.3030504029504
892,709.2972734487986
893,709.2905863654818
894,709.2830851161318
895,709.2748786929506
896,709.2660878271968
897,709.2568434801991
898,709.2472851316202
899,709.2375588932028
900,709.2278154871497
901,709.2182081348535
902,709.2088904020044
903,709.2000140423264
904,709.1917268793692
905,709.1841707657403
906,709.1774796585872
907,709.1717778460065
908,709.1671783529175
909,709.1637815494128
910,709.1616739795879
911,709.1609274234104
912,709.161598199149
913,709.1637267102628
914,709.1673372377321
915,709.1724379755431
916,709.1790213037875
