frame_number,force
0,711.3737689988548
1,711.3705024547309
2,711.3670770030554
3,711.3635333630347
4,711.3599116816217
5,711.3562510335206
6,711.3525889067009
7,711.3489606833103
8,711.3453991260719
9,711.3419338819415
10,711.3385910175904
11,711.3353926036899
12,711.3323563650875
13,711.3294954107337
14,711.3268180514727
15,711.3243277077851
16,711.3220229051256
17,711.3198973517486
18,711.3179400915861
19,711.3161357219756
20,711.3144646631554
21,711.312903464473
22,711.3114251319382
23,711.3099994630401
24,711.3085933770922
25,711.307171232334
26,711.3056951243251
27,711.3041251634841
28,711.3024197325892
29,711.3005357277077
30,711.2984287888216
31,711.2960535295682
32,711.2933637782912
33,711.2903128435593
34,711.2868538151205
35,711.282939906087
36,711.2785248358564
37,711.2735632479483
38,711.2680111538075
39,711.2618263932086
40,711.2549691035005
41,711.247402191494
42,711.2390918015012
43,711.2300077706786
44,711.220124059742
45,711.2094191449904
46,711.1978763569942
47,711.1854841516382
48,711.1722363002981
49,711.1581319887204
50,711.1431758190865
51,711.1273777156805
52,711.1107527399816
53,711.0933208252067
54,711.0751064436906
55,711.0561382236506
56,711.0364485347035
57,711.0160730628759
58,710.9950503944374
59,710.9734216239044
60,710.9512299969703
61,710.9285205956583
62,710.905340070305
63,710.8817364197374
64,710.8577588172959
65,710.8334574774233
66,710.8088835555452
67,710.7840890718246
68,710.7591268470746
69,710.7340504383374
70,710.7089140633378
71,710.6837725060884
72,710.658680998738
73,710.6336950765151
74,710.6088704026507
75,710.5842625584328
76,710.5599267919397
77,710.5359177201861
78,710.5122889839112
79,710.4890928601286
80,710.4663798426042
81,710.444198203253
82,710.4225935476974
83,710.4016083768047
84,710.3812816648093
85,710.361648464777
86,710.3427395530236
87,710.324581124225
88,710.3071945480597
89,710.2905961970005
90,710.2747973529952
91,710.2598041969169
92,710.2456178787779
93,710.2322346607242
94,710.2196461204807
95,710.2078394006818
96,710.1967974896426
97,710.1864995219073
98,710.1769210917249
99,710.1680345776947
100,710.1598094803885
101,710.1522127759048
102,710.1452092873067
103,710.1387620737065
104,710.1328328343537
105,710.1273823229949
106,710.1223707664062
107,710.1177582810429
108,710.1135052838277
109,710.109572896908
110,710.1059233500624
111,710.102520385979
112,710.0993296718076
113,710.0963192165638
114,710.0934597904211
115,710.0907253397913
116,710.0880933911137
117,710.0855454356856
118,710.0830672870604
119,710.080649401255
120,710.0782871481949
121,710.0759810207086
122,710.0737367657468
123,710.0715654225388
124,710.0694832546596
125,710.0675115673055
126,710.0656764071621
127,710.0640081494448
128,710.0625409829314
129,710.0613123068788
130,710.0603620537134
131,710.0597319505865
132,710.0594647329174
133,710.0596033235848
134,710.0601899918747
135,710.0612655070124
136,710.0628683023159
137,710.0650336670118
138,710.0677929832896
139,710.0711730271191
140,710.075195352896
141,710.079875782254
142,710.0852240144781
143,710.0912433700689
144,710.0979306718377
145,710.1052762607434
146,710.1132641369273
147,710.1218722104595
148,710.1310726424283
149,710.140832256086
150,710.151112998804
151,710.1618724372022
152,710.1730642705136
153,710.1846388521426
154,710.1965437152736
155,710.2087241022595
156,710.22112349765
157,710.2336841620836
158,710.2463476609611
159,710.2590553791226
160,710.2717490112411
161,710.2843710177433
162,710.2968650375892
163,710.3091762514766
164,710.3212516916257
165,710.3330404972028
166,710.3444941175198
167,710.3555664681286
168,710.3662140472546
169,710.3763960207955
170,710.3860742828091
171,710.3952134955098
172,710.4037811099586
173,710.4117473679387
174,710.4190852872596
175,710.4257706348552
176,710.4317818922522
177,710.4371002159369
178,710.441709392246
179,710.4455957842761
180,710.4487482676336
181,710.4511581523047
182,710.4528190889644
183,710.4537269595418
184,710.4538797537222
185,710.4532774346652
186,710.4519217976882
187,710.449816324695
188,710.4469660351018
189,710.443377331521
190,710.4390578362853
191,710.4340162140512
192,710.4282619770617
193,710.4218052731698
194,710.4146566609892
195,710.4068268790613
196,710.3983266152176
197,710.3891662796913
198,710.3793557835762
199,710.3689043240663
200,710.3578201793822
201,710.346110518906
202,710.3337812363238
203,710.3208368134823
204,710.3072802197308
205,710.293112847363
206,710.2783344803706
207,710.2629432919505
208,710.2469358659415
209,710.2303072382681
210,710.2130509561329
211,710.1951591546243
212,710.1766226520789
213,710.1574310666151
214,710.1375729564577
215,710.1170359861925
216,710.0958071211819
217,710.0738728543387
218,710.051219472635
219,710.0278333721878
220,710.003701428062
221,709.9788114189253
222,709.9531525004692
223,709.9267157168811
224,709.8994945363079
225,709.8714853940925
226,709.8426882275229
227,709.8131069881719
228,709.7827501211668
229,709.7516310030271
230,709.7197683303665
231,709.6871864515354
232,709.6539156331058
233,709.6199922532098
234,709.5854589140023
235,709.5503644663569
236,709.5147639421325
237,709.4787183930525
238,709.4422946390991
239,709.4055649315733
240,709.3686065361101
241,709.3315012401689
242,709.2943347895027
243,709.2571962594936
244,709.2201773693013
245,709.1833717482042
246,709.1468741636484
247,709.1107797196378
248,709.0751830326872
249,709.0401773909155
250,709.005853900814
251,708.9723006270503
252,708.9396017338114
253,708.9078366406327
254,708.8770792097672
255,708.8473969847823
256,708.8188505006997
257,708.7914926843681
258,708.7653683600774
259,708.7405138707328
260,708.7169568208125
261,708.6947159444481
262,708.673801099042
263,708.6542133803417
264,708.6359453492787
265,708.6189813560409
266,708.6032979442882
267,708.5888643188333
268,708.5756428636262
269,708.5635897021176
270,708.5526552964832
271,708.5427850841664
272,708.5339201499257
273,708.5259979296717
274,708.5189529391674
275,708.5127175169074
276,708.5072225678739
277,708.5023982947569
278,708.4981749054419
279,708.4944832887626
280,708.4912556530093
281,708.4884261221364
282,708.4859312828492
283,708.4837106733568
284,708.4817072034895
285,708.4798674965565
286,708.4781421449051
287,708.4764858733939
288,708.4748576088384
289,708.4732204589905
290,708.4715416100137
291,708.4697921549587
292,708.4679468675043
293,708.4659839364624
294,708.4638846780373
295,708.4616332440148
296,708.4592163438009
297,708.4566229962022
298,708.4538443235285
299,708.4508733966952
300,708.4477051363901
301,708.4443362728758
302,708.4407653656601
303,708.4369928833592
304,708.4330213428675
305,708.428855505334
306,708.4245026247231
307,708.4199727425698
308,708.4152790189427
309,708.4104380849566
310,708.4054703985759
311,708.4004005845162
312,708.3952577404361
313,708.3900756940735
314,708.3848931986638
315,708.3797540568468
316,708.3747071668973
317,708.3698064892739
318,708.365110934773
319,708.3606841775234
320,708.3565943977806
321,708.3529139615456
322,708.3497190451352
323,708.3470892118911
324,708.3451069460287
325,708.3438571469242
326,708.3434265864803
327,708.3439033319703
328,708.3453761365287
329,708.3479337991877
330,708.3516644956167
331,708.3566550794322
332,708.3629903530184
333,708.3707523072608
334,708.380019331414
335,708.3908653967601
336,708.4033592205
337,708.4175634197151
338,708.4335336687832
339,708.4513178755791
340,708.4709553907974
341,708.4924762618734
342,708.5159005409191
343,708.5412376565141
344,708.5684858618127
345,708.5976317748082
346,708.6286500291199
347,708.6615030541369
348,708.6961410012505
349,708.7325018280561
350,708.7705115450294
351,708.8100846208639
352,708.8511245357643
353,708.8935244671923
354,708.9371680888768
355,708.9819304611543
356,709.0276789901257
357,709.0742744351298
358,709.1215719473955
359,709.1694221259286
360,709.2176720791776
361,709.2661664827223
362,709.3147486238865
363,709.3632614233936
364,709.4115484220655
365,709.4594547182932
366,709.5068278412581
367,709.5535185466839
368,709.5993815263183
369,709.6442760290746
370,709.6880663996185
371,709.7306225468948
372,709.7718203591295
373,709.8115420835941
374,709.8496766896941
375,709.8861202325534
376,709.9207762311024
377,709.953556070814
378,709.9843794380633
379,710.0131747907806
380,710.0398798672022
381,710.064442229737
382,710.0868198347871
383,710.106981613824
384,710.1249080470695
385,710.140591708321
386,710.1540377580243
387,710.1652643629878
388,710.1743030252251
389,710.1811988072332
390,710.1860104446357
391,710.1888103395246
392,710.1896844298109
393,710.1887319315479
394,710.186064952237
395,710.1818079734827
396,710.1760972010957
397,710.1690797802266
398,710.160912873174
399,710.151762599138
400,710.1418028390297
401,710.1312139135173
402,710.1201811463458
403,710.1088933266545
404,710.0975410860077
405,710.0863152099391
406,710.0754049076392
407,710.0649960638617
408,710.055269495025
409,710.0463992300338
410,710.0385508370562
411,710.0318798192598
412,710.0265301034203
413,710.0226326439634
414,710.0203041613564
415,710.019646029221
416,710.0207433207055
417,710.0236640222253
418,710.0284584215838
419,710.0351586774707
420,710.0437785775653
421,710.054313491494
422,710.0667405220796
423,710.0810188545316
424,710.0970902995226
425,710.1148800230343
426,710.134297454039
427,710.1552373609846
428,710.1775810892512
429,710.2011979529709
430,710.2259467743726
431,710.2516775612623
432,710.2782333086714
433,710.3054519050883
434,710.3331681176209
435,710.3612156243524
436,710.3894290575959
437,710.4176460203953
438,710.4457090403134
439,710.4734674277586
440,710.5007790099728
441,710.527511716361
442,710.553544995753
443,710.5787710503262
444,710.6030958736537
445,710.626440082555
446,710.6487395355045
447,710.6699457344871
448,710.690026011225
449,710.7089635015751
450,710.7267569135744
451,710.7434200959915
452,710.7589814160619
453,710.7734829574692
454,710.7869795525279
455,710.7995376658356
456,710.8112341498114
457,710.8221548945606
458,710.8323933951358
459,710.8420492592604
460,710.8512266789118
461,710.8600328897676
462,710.8685766420544
463,710.8769667038524
464,710.8853104146375
465,710.8937123042924
466,710.902272790662
467,710.9110869664701
468,710.9202434851582
469,710.9298235557677
470,710.939900057927
471,710.9505367869876
472,710.9617878359584
473,710.973697116745
474,710.9862980197003
475,710.9996132077504
476,711.0136545393812
477,711.0284231135232
478,711.0439094282037
479,711.0600936435318
480,711.0769459394302
481,711.0944269602688
482,711.1124883404756
483,711.1310733050922
484,711.1501173372931
485,711.1695489032246
486,711.1892902248106
487,711.2092580931997
488,711.2293647174218
489,711.2495186026227
490,711.2696254497964
491,711.2895890661027
492,711.3093122737516
493,711.3286978067728
494,711.3476491877241
495,711.3660715787533
496,711.3838726025348
497,711.4009631291727
498,711.4172580263195
499,711.4326768715932
500,711.4471446280655
501,711.4605922842567
502,711.4729574595591
503,711.4841849745271
504,711.4942273830465
505,711.5030454600532
506,711.510608635103
507,711.5168953600735
508,711.5218933990582
509,711.5256000292666
510,711.5280221426583
511,711.529176239021
512,711.5290883023376
513,711.5277935537499
514,711.5253360766143
515,711.5217683119797
516,711.5171504257082
517,711.5115495518467
518,711.5050389220465
519,711.4976968975866
520,711.489605926507
521,711.4808514514107
522,711.4715207936894
523,711.461702038962
524,711.451482947847
525,711.4409499158721
526,711.4301870052519
527,711.4192750684366
528,711.4082909787498
529,711.3973069783337
530,711.386390149889
531,711.3756020171326
532,711.3649982782763
533,711.3546286755331
534,711.3445370011451
535,711.3347612367346
536,711.3253338179097
537,711.316282010757
538,711.3076283829032
539,711.2993913508002
540,711.291585786832
541,711.2842236730518
542,711.2773147904151
543,711.2708674314729
544,711.2648891206204
545,711.2593873216005
546,711.2543701103814
547,711.2498467936514
548,711.2458284567581
549,711.2423284279347
550,711.2393626483549
551,711.2369499406967
552,711.2351121719944
553,711.2338743089744
554,711.233264365877
555,711.233313245816
556,711.2340544766874
557,711.2355238423635
558,711.2377589109834
559,711.2407984650729
560,711.2446818422995
561,711.2494481999961
562,711.2551357203441
563,711.2617807754251
564,711.2694170715872
565,711.2780747911366
566,711.2877797477661
567,711.2985525718769
568,711.3104079427934
569,711.3233538847747
570,711.3373911411044
571,711.3525126359436
572,711.3687030290419
573,711.3859383655794
574,711.4041858231525
575,711.4234035594469
576,711.4435406656527
577,711.4645372305761
578,711.4863245180782
579,711.5088252562002
580,711.5319540316309
581,711.5556177800906
582,711.5797163624726
583,711.6041432174676
584,711.6287860832756
585,711.6535277833315
586,711.6782470724332
587,711.7028195389853
588,711.7271185566931
589,711.751016276836
590,711.774384651464
591,711.7970964778599
592,711.8190264536895
593,711.8400522295422
594,711.8600554421356
595,711.8789227096678
596,711.8965465723637
597,711.9128263658765
598,711.9276690207395
599,711.9409897847045
600,711.9527128646413
601,711.9627719816026
602,711.9711108302052
603,711.9776834347832
604,711.9824543998161
605,711.985399057836
606,711.9865035208744
607,711.9857646407676
608,711.9831898815931
609,711.9787971065282
610,711.9726142819857
611,711.9646791035068
612,711.955038550203
613,711.9437483772052
614,711.9308725580333
615,711.9164826907429
616,711.900657383555
617,711.8834816374954
618,711.8650462437187
619,711.8454472094935
620,711.8247852193202
621,711.8031651289556
622,711.7806954831146
623,711.7574880435544
624,711.733657312861
625,711.7093200401205
626,711.684594697766
627,711.6596009240901
628,711.6344589321933
629,711.6092888918366
630,711.5842102940574
631,711.5593413086204
632,711.5347981415855
633,711.5106943951528
634,711.4871404258959
635,711.4642426930876
636,711.4421030887833
637,711.4208182461541
638,711.4004788297567
639,711.3811688171962
640,711.3629647838386
641,711.345935201755
642,711.3301397635244
643,711.3156287424413
644,711.302442402705
645,711.290610475067
646,711.2801517141471
647,711.2710735527055
648,711.2633718658034
649,711.2570308546798
650,711.2520230569254
651,711.2483094865038
652,711.2458399046402
653,711.2445532210498
654,711.2443780247517
655,711.2452332440548
656,711.2470289344263
657,711.2496671900444
658,711.2530431713559
659,711.2570462388389
660,711.261561182426
661,711.2664695349282
662,711.2716509551009
663,711.2769846622954
664,711.2823509014195
665,711.287632415186
666,711.2927159005218
667,711.2974934271853
668,711.3018637987046
669,711.3057338384549
670,711.3090195864229
671,711.3116473942468
672,711.3135549076293
673,711.314691927191
674,711.3150211417534
675,711.3145187312302
676,711.3131748381189
677,711.3109939053713
678,711.3079948745493
679,711.3042112345792
680,711.2996909112876
681,711.2944959919118
682,711.2887022850321
683,711.2823987220136
684,711.2756866089184
685,711.2686787377255
686,711.2614983642584
687,711.2542780593761
688,711.24715844025
689,711.2402867893353
690,711.2338155697424
691,711.2279008475815
692,711.2227006348453
693,711.2183731704339
694,711.2150751613719
695,711.2129600097836
696,711.2121760526258
697,711.2128648404354
698,711.2151594788538
699,711.2191830530155
700,711.2250471508287
701,711.2328504971814
702,711.2426777071414
703,711.2545981627417
704,711.268665015974
705,711.2849143206352
706,711.3033642972603
707,711.3240147375749
708,711.3468465565264
709,711.3718215005237
710,711.3988820209034
711,711.4279513228905
712,711.4589336019955
713,711.4917144802645
714,711.5261616524883
715,711.5621257469559
716,711.5994413979147
717,711.6379285201185
718,711.6773937714689
719,711.7176321875481
720,711.7584289708097
721,711.7995614168626
722,711.840800959844
723,711.881915317002
724,711.9226707090565
725,711.9628341291248
726,712.0021756304665
727,712.040470602242
728,712.0775020021678
729,712.1130625148403
730,712.1469566048509
731,712.1790024353787
732,712.2090336256728
733,712.2369008234714
734,712.2624730701081
735,712.2856389374023
736,712.3063074174593
737,712.3244085500163
738,712.3398937780859
739,712.3527360319741
740,712.3629295528675
741,712.3704894767013
742,712.3754512039428
743,712.3778695807304
744,712.3778179133556
745,712.3753868336893
746,712.3706830297809
747,712.3638278551945
748,712.3549558333232
749,712.3442130770948
750,712.3317556465998
751,712.3177478654679
752,712.3023606130477
753,712.2857696066387
754,712.2681536871852
755,712.2496931220229
756,712.2305679386976
757,712.2109563043119
758,712.1910329646998
759,712.1709677569385
760,712.1509242089123
761,712.1310582416401
762,712.1115169914058
763,712.0924377665756
764,712.0739471490715
765,712.0561602454749
766,712.03918008861
767,712.0230971868672
768,712.0079892151479
769,711.9939208376522
770,711.9809436488531
771,711.9690962165345
772,711.9584042111326
773,711.948880608282
774,711.9405259549071
775,711.9333286922166
776,711.9272655311969
777,711.9223018782409
778,711.9183923109799
779,711.9154811064993
780,711.9135028242955
781,711.912382943678
782,711.9120385505826
783,711.9123790638107
784,711.9133069871679
785,711.9147186724144
786,711.9165050784525
787,711.9185525149906
788,711.9207433637048
789,711.9229567746637
790,711.9250693380337
791,711.9269557303778
792,711.928489333141
793,711.9295428202907
794,711.9299887130989
795,711.9296999023666
796,711.9285501419785
797,711.9264145221949
798,711.923169934563
799,711.9186955401944
800,711.912873249413
801,711.9055882164423
802,711.8967293504793
803,711.8861898435697
804,711.8738677139679
805,711.8596663609353
806,711.8434951251568
807,711.8252698489612
808,711.8049134309988
809,711.7823563699975
810,711.7575372927791
811,711.7304034643595
812,711.7009112820455
813,711.6690267585892
814,711.6347260001685
815,711.5979956834514
816,711.5588335326495
817,711.5172487925522
818,711.4732626880536
819,711.4269088560876
820,711.3782337331902
821,711.3272968811771
822,711.2741712340188
823,711.2189432506141
824,711.1617129614945
825,711.1025939028988
826,711.0417129372855
827,710.9792099618204
828,710.915237504079
829,710.8499601994941
830,710.7835541421297
831,710.7162061011061
832,710.6481125982028
833,710.579478845858
834,710.5105175481754
835,710.44144757043
836,710.3724924847222
837,710.303879000862
838,710.2358352925169
839,710.1685892295761
840,710.1023665294523
841,710.0373888432451
842,709.9738717968503
843,709.91202301144
844,709.8520401323393
845,709.7941089004044
846,709.7384013048403
847,709.6850738593137
848,709.6342660429184
849,709.58609894401
850,709.5406741391507
851,709.4980728324489
852,709.4583552730577
853,709.421560461032
854,709.3877061444833
855,709.3567891037936
856,709.3287857110878
857,709.3036527453412
858,709.2813284363299
859,709.2617337054635
860,709.2447735689793
861,709.2303386682024
862,709.2183068914092
863,709.2085450522065
864,709.200910591187
865,709.1952532716952
866,709.1914168463964
867,709.1892406774676
868,709.1885612982132
869,709.1892139072629
870,709.1910337883501
871,709.193857649089
872,709.1975248716154
873,709.201878667992
874,709.206767135713
875,709.2120442131977
876,709.2175705393743
877,709.2232142237795
878,709.2288515351443
879,709.2343675185812
880,709.2396565531867
881,709.2446228608171
882,709.2491809723173
883,709.253256151204
884,709.2567847692862
885,709.2597146258427
886,709.2620052017749
887,709.2636278408648
888,709.2645658502357
889,709.2648145111157
890,709.264380989835
891,709.2632841384192
892,709.2615541746941
893,709.2592322337196
894,709.2563697852246
895,709.2530279148845
896,709.2492764706832
897,709.2451930798024
898,709.2408620468177
899,709.2363731499937
900,709.2318203579154
901,709.2273004919757
902,709.2229118604344
903,709.2187528879208
904,709.2149207628496
905,709.2115101251397
906,709.2086118162619
907,709.2063117114983
908,709.2046896511563
909,709.2038184846019
910,709.203763238339
911,709.204580416481
912,709.2063174392687
913,709.2090122232621
914,709.2126929051544
915,709.21737770928
916,709.2230749570238
917,709.2297832150289
