frame_number,force
0,823.1461200094899
1,823.192422579097
2,823.238856217955
3,823.285551060189
4,823.3326353853716
5,823.3802347284276
6,823.4284710292671
7,823.4774618294912
8,823.5273195214611
9,823.5781506539688
10,823.6300552981179
11,823.683126476424
12,823.7374496574939
13,823.7931023178847
14,823.8501535718177
15,823.9086638685349
16,823.968684756642
17,824.0302587148741
18,824.0934190489312
19,824.1581898538925
20,824.2245860410484
21,824.2926134268671
22,824.36226888045
23,824.4335405246243
24,824.5064079852764
25,824.5808426840284
26,824.6568081707753
27,824.7342604942559
28,824.8131486099804
29,824.8934148251394
30,824.974995279452
31,825.0578204592965
32,825.1418157403014
33,825.2269019518627
34,825.3129959565521
35,825.4000112377591
36,825.4878584891778
37,825.576446199533
38,825.6656812259251
39,825.7554693499009
40,825.8457158115074
41,825.9363258176421
42,826.0272050222275
43,826.1182599773874
44,826.2093985563538
45,826.3005303494602
46,826.3915670343215
47,826.48242272093
48,826.5730142725357
49,826.6632616035806
50,826.753087956105
51,826.8424201556442
52,826.9311888467868
53,827.019328707441
54,827.1067786397017
55,827.1934819343238
56,827.2793864052527
57,827.3644444901751
58,827.4486133125167
59,827.531854699956
60,827.6141351548506
61,827.6954257734517
62,827.775702113376
63,827.8549440117165
64,827.9331353584158
65,828.0102638306385
66,828.0863205942185
67,828.1612999784998
68,828.2351991313092
69,828.3080176610034
70,828.3797572717061
71,828.4504213958858
72,828.5200148263554
73,828.5885433490005
74,828.6560133783222
75,828.7224315991499
76,828.7878046184815
77,828.8521386312805
78,828.9154391038078
79,828.9777104781479
80,829.0389559017809
81,829.0991769857288
82,829.1583735935673
83,829.2165436618949
84,829.2736830513578
85,829.3297854262355
86,829.3848421599716
87,829.4388422643183
88,829.4917723411022
89,829.5436165573644
90,829.5943566460063
91,829.6439719349132
92,829.6924394078262
93,829.7397337998798
94,829.7858277297129
95,829.8306918685199
96,829.8742951445872
97,829.9166049801377
98,829.9575875562467
99,829.9972081015611
100,830.0354312013142
101,830.0722211238648
102,830.1075421619033
103,830.1413589844161
104,830.1736369940973
105,830.204342684042
106,830.2334439877809
107,830.260910617716
108,830.2867143881839
109,830.3108295204842
110,830.3332329282993
111,830.3539044827766
112,830.372827256816
113,830.3899877478067
114,830.4053760776387
115,830.4189861688474
116,830.4308158963821
117,830.440867215331
118,830.4491462654513
119,830.4556634532713
120,830.4604335119487
121,830.4634755384465
122,830.4648130073354
123,830.4644737607946
124,830.462489974974
125,830.4588981034049
126,830.4537387983478
127,830.4470568107599
128,830.4389008688909
129,830.4293235346872
130,830.4183810367041
131,830.4061330783701
132,830.3926426211491
133,830.3779756433757
134,830.3622008770873
135,830.3453895262946
136,830.3276149701899
137,830.3089524542017
138,830.2894787716109
139,830.2692719390051
140,830.2484108695149
141,830.226975047812
142,830.205044210277
143,830.1826980327317
144,830.1600158265677
145,830.1370762420753
146,830.1139569758549
147,830.0907344780488
148,830.0674836546614
149,830.0442775600338
150,830.0211870746563
151,829.9982805645149
152,829.9756235204892
153,829.9532781796252
154,829.9313031336807
155,829.9097529334595
156,829.8886776995598
157,829.8681227509429
158,829.8481282621102
159,829.8287289579614
160,829.8099538533529
161,829.7918260428703
162,829.7743625456321
163,829.7575742093924
164,829.7414656770384
165,829.7260354167104
166,829.7112758146855
167,829.6971733282842
168,829.6837086945958
169,829.670857190081
170,829.6585889361982
171,829.6468692467378
172,829.6356590128329
173,829.6249151211866
174,829.6145909002244
175,829.6046365884434
176,829.5949998196895
177,829.5856261211413
178,829.5764594209188
179,829.567442563315
180,829.5585178307207
181,829.5496274719945
182,829.5407142369562
183,829.5317219158445
184,829.5225958812888
185,829.513283628953
186,829.5037353119371
187,829.4939042633823
188,829.4837475012465
189,829.4732262085964
190,829.4623061821022
191,829.4509582412659
192,829.4391585915711
193,829.4268891359311
194,829.4141377299468
195,829.4008983773879
196,829.3871713632731
197,829.372963323077
198,829.3582872474079
199,829.343162421272
200,829.3276142957861
201,829.3116742888017
202,829.2953795104276
203,829.2787724105101
204,829.2619003477117
205,829.2448150833244
206,829.2275722067677
207,829.2102305033985
208,829.1928512780986
209,829.1754976493595
210,829.1582338282728
211,829.1411243958626
212,829.1242335912634
213,829.1076246222533
214,829.091359008226
215,829.0754959640268
216,829.0600918316895
217,829.0451995662618
218,829.0308682814233
219,829.0171428600681
220,829.0040636340569
221,828.9916661358666
222,828.9799809231589
223,828.9690334759796
224,828.9588441656679
225,828.949428294207
226,828.9407962019707
227,828.9329534402767
228,828.9259010030509
229,828.9196356098386
230,828.9141500309939
231,828.9094334453868
232,828.9054718212947
233,828.90224831217
234,828.8997436606182
235,828.897936605887
236,828.8968042917792
237,828.896322672753
238,828.8964669160308
239,828.8972117969868
240,828.8985320839593
241,828.900402907124
242,828.9028001046813
243,828.9057005390166
244,828.9090823759666
245,828.9129253215718
246,828.9172108120677
247,828.9219221539684
248,828.9270446122304
249,828.9325654461109
250,828.9384738943035
251,828.944761112457
252,828.9514200667393
253,828.9584453866337
254,828.9658331789915
255,828.9735808041899
256,828.981686614864
257,828.990149658635
258,828.9989693484798
259,829.0081451074201
260,829.0176759973506
261,829.0275603443822
262,829.0377953742845
263,829.0483768708958
264,829.0592988676766
265,829.0705533787007
266,829.0821301717621
267,829.0940165840876
268,829.1061973805668
269,829.1186546548364
270,829.1313677743791
271,829.1443133717441
272,829.1574653847346
273,829.1707951484779
274,829.1842715415029
275,829.1978611863967
276,829.211528703668
277,829.2252370155707
278,829.2389476951774
279,829.252621354896
280,829.266218067627
281,829.2796978128187
282,829.2930209388459
283,829.306148632514
284,829.3190433861405
285,829.331669452654
286,829.343993279307
287,829.3559839108657
288,829.367613353805
289,829.3788568943139
290,829.389693364514
291,829.4001053525653
292,829.410079352827
293,829.4196058521957
294,829.4286793488089
295,829.4372982999039
296,829.4454649970004
297,829.4531853689116
298,829.4604687162395
299,829.4673273842617
300,829.4737763835219
301,829.47983296851
302,829.4855161848004
303,829.4908463943976
304,829.4958447880709
305,829.5005328924324
306,829.5049320789022
307,829.509063081842
308,829.5129455333763
309,829.5165975218853
310,829.5200351798318
311,829.5232723053683
312,829.5263200216879
313,829.5291864782157
314,829.531876597995
315,829.5343918755583
316,829.5367302290356
317,829.5388859093094
318,829.540849467912
319,829.5426077844097
320,829.5441441535031
321,829.5454384320024
322,829.5464672458575
323,829.5472042569816
324,829.5476204883361
325,829.5476847038805
326,829.5473638382219
327,829.5466234696805
328,829.5454283299903
329,829.5437428434434
330,829.5415316874347
331,829.5387603650989
332,829.5353957796627
333,829.5314067998082
334,829.5267648057526
335,829.5214442067389
336,829.5154229221946
337,829.5086828205884
338,829.5012101113247
339,829.4929956854778
340,829.4840354011562
341,829.4743303094932
342,829.4638868180617
343,829.4527167898095
344,829.4408375770014
345,829.4282719906433
346,829.415048206237
347,829.401199606771
348,829.3867645642613
349,829.3717861624642
350,829.356311865455
351,829.3403931387793
352,829.3240850310709
353,829.3074457242388
354,829.2905360599435
355,829.2734190494466
356,829.2561593731126
357,829.2388228750231
358,829.2214760577941
359,829.2041855830263
360,829.1870177832908
361,829.1700381913041
362,829.1533110907947
363,829.1368990921494
364,829.1208627347082
365,829.1052601166432
366,829.0901465527122
367,829.0755742597369
368,829.0615920691688
369,829.048245165636
370,829.0355748504558
371,829.0236183300466
372,829.0124085305396
373,829.001973940959
374,828.9923384878355
375,828.9835214442935
376,828.9755373770721
377,828.9683961358181
378,828.9621028900444
379,828.9566582196996
380,828.9520582649396
381,828.9482949394886
382,828.9453562101831
383,828.9432264429382
384,828.9418868125688
385,828.9413157709807
386,828.9414895656487
387,828.9423827982807
388,828.943969012306
389,828.9462212974265
390,828.9491128997826
391,828.9526178268438
392,828.9567114367691
393,828.9613710027697
394,828.9665762440482
395,828.9723098159958
396,828.9785577533388
397,828.9853098607865
398,828.9925600467643
399,829.0003065973884
400,829.0085523898484
401,829.017305045945
402,829.026577026793
403,829.0363856686997
404,829.046753158882
405,829.057706448966
406,829.0692771047425
407,829.0815010926129
408,829.0944185059128
409,829.1080732364547
410,829.1225125971296
411,829.1377869003843
412,829.153948995785
413,829.1710537686172
414,829.189157601088
415,829.208317798103
416,829.2285919803493
417,829.2500374480468
418,829.2727105188229
419,829.2966658425738
420,829.3219556954256
421,829.3486292549943
422,829.3767318604134
423,829.4063042624701
424,829.4373818710184
425,829.4699940087447
426,829.5041631825753
427,829.5399043862787
428,829.5772244497698
429,829.6161214521485
430,829.656584216424
431,829.698591903571
432,829.742113721344
433,829.7871087591733
434,829.8335259555894
435,829.8813042003208
436,829.9303725699327
437,829.9806506930751
438,830.0320492384873
439,830.0844705161387
440,830.1378091800352
441,830.1919530206376
442,830.2467838351133
443,830.3021783642993
444,830.358009286002
445,830.4141462548009
446,830.4704569785607
447,830.5268083214614
448,830.5830674227203
449,830.6391028194269
450,830.6947855612281
451,830.7499903043462
452,830.8045963726504
453,830.8584887738099
454,830.911559158434
455,830.9637067095086
456,831.014838948798
457,831.064872446819
458,831.1137334242526
459,831.161358235549
460,831.2076937296418
461,831.2526974870282
462,831.2963379358097
463,831.3385943510528
464,831.3794567421501
465,831.4189256322554
466,831.4570117329777
467,831.4937355172077
468,831.5291266938809
469,831.563223590483
470,831.5960724512832
471,831.6277266609376
472,831.6582459042282
473,831.6876952736019
474,831.71614433687
475,831.7436661778875
476,831.7703364232751
477,831.7962322685314
478,831.8214315172112
479,831.846011647021
480,831.8700489165767
481,831.8936175264402
482,831.9167888481552
483,831.9396307348653
484,831.9622069257446
485,831.9845765535264
486,832.0067937605312
487,832.0289074247736
488,832.0509609945161
489,832.0729924270264
490,832.0950342250972
491,832.1171135629561
492,832.1392524915842
493,832.161468212438
494,832.1837734084511
495,832.2061766219987
496,832.2286826707806
497,832.2512930937828
498,832.2740066202825
499,832.2968196548021
500,832.3197267695713
501,832.3427211939817
502,832.3657952891252
503,832.3889409957268
504,832.4121502454003
505,832.4354153273933
506,832.4587292053067
507,832.4820857805413
508,832.5054801012175
509,832.5289085166678
510,832.5523687782237
511,832.5758600873639
512,832.5993830929472
513,832.6229398403617
514,832.6465336766861
515,832.6701691170961
516,832.6938516787018
517,832.7175876887364
518,832.7413840744078
519,832.7652481415599
520,832.7891873486165
521,832.8132090813884
522,832.8373204333362
523,832.8615279948367
524,832.8858376541945
525,832.9102544127572
526,832.9347822163196
527,832.9594238046107
528,832.9841805800022
529,833.0090524957437
530,833.034037963029
531,833.05913377514
532,833.0843350461334
533,833.1096351612322
534,833.1350257361163
535,833.1604965827657
536,833.1860356807775
537,833.2116291552204
538,833.2372612643778
539,833.2629144021471
540,833.2885691198148
541,833.3142041705499
542,833.3397965780349
543,833.3653217290204
544,833.3907534886432
545,833.4160643371725
546,833.4412255273453
547,833.4662072620677
548,833.490978892266
549,833.5155091340592
550,833.5397663037465
551,833.5637185684607
552,833.5873342091915
553,833.6105818908641
554,833.6334309317596
555,833.6558515630162
556,833.6778151693475
557,833.6992945045632
558,833.720263879182
559,833.7406993212696
560,833.7605787145789
561,833.779881919361
562,833.7985908807811
563,833.8166897281995
564,833.8341648666612
565,833.8510050607902
566,833.8672015111989
567,833.8827479240111
568,833.8976405746773
569,833.9118783679257
570,833.9254628961728
571,833.9383984984083
572,833.9506923203127
573,833.9623543745249
574,833.9733975977791
575,833.9838378992703
576,833.9936941929385
577,834.0029884063304
578,834.0117454600527
579,834.0199932133231
580,834.0277623719027
581,834.0350863549597
582,834.0420011178169
583,834.0485449286815
584,834.0547580995014
585,834.0606826733986
586,834.0663620728508
587,834.0718407136012
588,834.0771635897001
589,834.0823758359214
590,834.0875222753333
591,834.0926469616107
592,834.0977927268875
593,834.1030007459892
594,834.108310126701
595,834.1137575335657
596,834.119376849839
597,834.125198879074
598,834.1312510851325
599,834.1375573677936
600,834.1441378706113
601,834.151008818109
602,834.1581823808093
603,834.1656665688663
604,834.1734651575968
605,834.1815776500197
606,834.1899992819037
607,834.1987210739069
608,834.20772993369
609,834.2170088087868
610,834.2265368887006
611,834.2362898523684
612,834.2462401552328
613,834.2563573489745
614,834.2666084263423
615,834.2769581829906
616,834.2873695874576
617,834.2978041497336
618,834.3082222789176
619,834.3185836215534
620,834.3288473740438
621,834.3389725647661
622,834.3489183040608
623,834.3586440027639
624,834.3681095617547
625,834.3772755356259
626,834.3861032728705
627,834.3945550331482
628,834.4025940800532
629,834.4101847465673
630,834.4172924706361
631,834.4238837996189
632,834.4299263637334
633,834.4353888194663
634,834.4402407646292
635,834.4444526278587
636,834.4479955368465
637,834.450841170913
638,834.4529616043845
639,834.4543291475113
640,834.4549161913341
641,834.4546950621176
642,834.4536378901065
643,834.4517164966262
644,834.4489023026878
645,834.4451662609356
646,834.4404788112274
647,834.4348098589021
648,834.4281287742409
649,834.4204044115419
650,834.4116051462363
651,834.4016989285216
652,834.3906533520175
653,834.3784357355916
654,834.3650132156812
655,834.3503528459267
656,834.334421701429
657,834.317186986157
658,834.2986161431734
659,834.2786769680002
660,834.2573377254839
661,834.234567269885
662,834.2103351670661
663,834.1846118171857
664,834.1573685761662
665,834.1285778738993
666,834.0982133267726
667,834.0662498422646
668,834.0326637142213
669,833.9974327084773
670,833.9605361393584
671,833.9219549382829
672,833.881671716282
673,833.8396708226358
674,833.7959384017408
675,833.7504624498885
676,833.7032328733923
677,833.6542415500948
678,833.6034823977101
679,833.5509514540294
680,833.4966469749411
681,833.4405695560691
682,833.3827222824308
683,833.3231109079167
684,833.2617440632032
685,833.1986334879542
686,833.1337942815845
687,833.0672451665021
688,832.9990087581012
689,832.9291118361165
690,832.8575856118723
691,832.7844659856597
692,832.709793788254
693,832.6336150003881
694,832.5559809437608
695,832.4769484372647
696,832.3965799128
697,832.3149434858196
698,832.2321129760717
699,832.1481678739715
700,832.0631932482686
701,831.9772795914927
702,831.8905226008627
703,831.8030228936573
704,831.7148856575196
705,831.6262202378963
706,831.5371396665286
707,831.4477601363454
708,831.3582004293359
709,831.268581305107
710,831.1790248587595
711,831.0896538574175
712,831.0005910653607
713,830.9119585681733
714,830.8238771066113
715,830.7364654310945
716,830.6498396879705
717,830.5641128490124
718,830.479394195836
719,830.3957888705451
720,830.3133975021095
721,830.2323159145363
722,830.1526349187385
723,830.0744401863833
724,829.9978122013739
725,829.9228262826091
726,829.8495526699887
727,829.7780566642981
728,829.7083988105874
729,829.6406351138568
730,829.5748172752461
731,829.5109929364689
732,829.4492059198386
733,829.389496450981
734,829.3319013512772
735,829.2764541872173
736,829.2231853645812
737,829.1721221574684
738,829.1232886660218
739,829.0767057014829
740,829.0323906016662
741,828.9903569831031
742,828.9506144376535
743,828.9131681816406
744,828.8780186654781
745,828.8451611524985
746,828.814585277631
747,828.7862745990283
748,828.760206157627
749,828.736350060003
750,828.7146690983843
751,828.6951184190277
752,828.677645247842
753,828.6621886811341
754,828.648679549485
755,828.6370403631676
756,828.627185347157
757,828.6190205718476
758,828.6124441819604
759,828.6073467216662
760,828.6036115499868
761,828.601115338114
762,828.5997286396521
763,828.5993165254947
764,828.5997392763297
765,828.6008531269575
766,828.6025110573415
767,828.6045636256216
768,828.6068598386183
769,828.609248055985
770,828.6115769250642
771,828.6136963441904
772,828.6154584520212
773,828.6167186391898
774,828.6173365761877
775,828.6171772482327
776,828.6161119844782
777,828.6140194660015
778,828.6107866949759
779,828.6063099063929
780,828.6004954041051
781,828.5932603052754
782,828.5845331812133
783,828.5742545869255
784,828.5623774754501
785,828.548867495844
786,828.5337031756586
787,828.5168759899024
788,828.4983903186937
789,828.4782632953195
790,828.456524546076
791,828.4332158239223
792,828.408390539533
793,828.3821131950955
794,828.3544587275347
795,828.3255117686973
796,828.2953658306155
797,828.2641224243072
798,828.2318901204085
799,828.1987835592489
800,828.1649224172902
801,828.1304303372217
802,828.0954338309633
803,828.0600611674713
804,828.0244412588793
805,827.9887025582885
806,827.9529719810125
807,827.9173738593947
808,827.8820289400585
809,827.8470534315225
810,827.812558109332
811,827.7786474852661
812,827.7454190469326
813,827.7129625740138
814,827.6813595373415
815,827.65068258689
816,827.6209951346535
817,827.5923510375959
818,827.5647943837866
819,827.5383593816199
820,827.5130703486171
821,827.4889417936828
822,827.4659785852535
823,827.4441761973702
824,827.4235210258569
825,827.4039907672161
826,827.3855548534782
827,827.3681749368416
828,827.3518054181908
829,827.3363940136477
830,827.3218823537785
831,827.3082066108469
832,827.2952981498443
833,827.2830841983181
834,827.271488528439
835,827.2604321432084
836,827.2498339584415
837,827.2396114738768
838,827.2296814297863
839,827.2199604480958
840,827.2103656580641
841,827.2008153062626
842,827.1912293498085
843,827.1815300308598
844,827.1716424291878
845,827.1614949884304
846,827.1510200107696
847,827.1401541143832
848,827.128838647993
849,827.1170200571822
850,827.1046501979948
851,827.0916865948001
852,827.0780926413167
853,827.0638377453429
854,827.0488974186613
855,827.0332533141808
856,827.0168932132466
857,826.9998109670062
858,826.9820063960713
859,826.96348515254
860,826.9442585486012
861,826.9243433570138
862,826.9037615904583
863,826.8825402683083
864,826.8607111797878
865,826.8383106509473
866,826.8153793196474
867,826.791961919102
868,826.7681070675992
869,826.7438670600003
870,826.7192976553371
871,826.6944578542085
872,826.6694096597478
873,826.644217816575
874,826.6189495232014
875,826.593674114589
876,826.5684627128098
877,826.5433878449406
878,826.5185230286105
879,826.4939423272183
880,826.4697198787771
881,826.4459294044118
882,826.4226437043191
883,826.399934149871
884,826.377870180112
885,826.3565188094755
886,826.3359441518797
887,826.3162069650353
888,826.2973642179539
889,826.2794686841638
890,826.262568562614
891,826.2467071275271
892,826.2319224079263
893,826.2182468977128
894,826.2057072979255
895,826.1943242935599
896,826.1841123673998
897,826.1750796523588
898,826.1672278220036
899,826.1605520170081
900,826.1550408041519
901,826.1506761645292
902,826.1474335086798
903,826.1452817178874
904,826.144183212459
905,826.1440940493026
906,826.1449640525473
907,826.1467369819644
908,826.1493507440699
909,826.1527376496582
910,826.1568247191494
911,826.161534034199
912,826.1667831316456
913,826.1724854348281
914,826.1785507173798
915,826.1848855949629
916,826.1913940405393
917,826.1979779188307
918,826.2045375358329
