acceleration,velocity,displacement
0.05887884191475992,0.0,0.0
0.05580224415741428,5.73405430360871e-05,2.8670271518043552e-08
0.052658327931459525,0.000111570829080524,1.1312595757634912e-07
0.049388983677145996,0.00016259448488482677,2.502086145590245e-07
0.04595409592855688,0.0002102660246876782,4.36638869345277e-07
0.04233900707964492,0.0002544125761917791,6.689781697850057e-07
0.03855930252044911,0.00029486173099182615,9.436153233768083e-07
0.03466167102491946,0.00033147221776451044,1.2567822977549766e-06
0.03072033450894179,0.00036416322053144107,1.6046000169029523e-06
0.026829425187346025,0.00039293810037958497,1.9831506773584652e-06
0.0230922832022106,0.0004178989545743633,2.3885692048354396e-06
0.019609006508969122,0.00043924959942995317,2.817143481837598e-06
0.01646395466817182,0.00045728608001852365,3.2654113215618365e-06
0.013715184893198859,0.000472375649799209,3.730242186470703e-06
0.011387520528809904,0.00048492700251021335,4.208893512625414e-06
0.009469924948703695,0.0004953557252489702,4.699034876505006e-06
0.007916594447415971,0.0005040489849470301,5.198737231603006e-06
0.006650494594817103,0.0005113325294681466,5.706427988810595e-06
0.0055682385586452825,0.0005174418960448778,6.220815201567107e-06
0.004545871444561267,0.0005224989510464811,6.740785625112787e-06
0.0034457296063946713,0.000526494751571959,7.265282476422007e-06
0.0021247246752013295,0.000529279978712757,7.793169841564366e-06
0.000444097321704791,0.0005305643897112101,8.323092025776349e-06
-0.0017198305488677762,0.0005299265230976286,8.85333748218077e-06
-0.00446475061017296,0.0005268342325181082,9.381717859988638e-06
-0.00785229528155037,0.0005206757095722465,9.905472831033815e-06
-0.011899787066474276,0.0005107996683982342,1.0421210520019056e-05
-0.01657476625024147,0.0004965623917398763,1.0924891550088112e-05
-0.021793250826991694,0.0004773783832012597,1.141186193755868e-05
-0.027422627006071718,0.000452770444284728,1.1876936351301675e-05
-0.0332897321078243,0.00042241426472778,1.2314528705807929e-05
-0.03919403378064613,0.0003861723817835448,1.271882202906359e-05
-0.04492503877394318,0.0003441128455062501,1.3083964642708489e-05
-0.05028236227333488,0.00029650914498261107,1.340427563795292e-05
-0.0550963082661857,0.0002438198097128508,1.367444011530065e-05
-0.05924637406942827,0.0001866484685450438,1.3889674254429598e-05
-0.06267492287294667,0.00012568782007385635,1.4045842398739047e-05
-0.06539363116197784,6.16535430563941e-05,1.4139513080304173e-05
-0.06748134673440435,-4.783945891797002e-06,1.416794787888647e-05
-0.06907345078359242,-7.306134465079538e-05,1.4129025233615175e-05
-0.07034431827272816,-0.00014277022917895567,1.4021109446700299e-05
-0.07148571635473569,-0.00021368524649268761,1.3842881708864478e-05
-0.07268463400452636,-0.00028577042167231867,1.3593153874781974e-05
-0.07410377545765674,-0.00035916462640341024,1.3270686350744109e-05
-0.07586686824394129,-0.00043414994825420925,1.2874029063415299e-05
-0.07804958247566708,-0.0005111081736140134,1.2401400002481188e-05
-0.08067578921392879,-0.0005904708594588114,1.1850610485944776e-05
-0.08371836125697342,-0.0006726679346942625,1.1219041088868238e-05
-0.08710369877222343,-0.0007580789647088609,1.0503667639166677e-05
-0.09071936505037831,-0.0008469904966201618,9.701132908502166e-06
-0.09442429954631222,-0.0009395623289185071,8.807856495732831e-06
-0.0980609037198078,-0.0010358049305515672,7.820172865997793e-06
-0.10146802483174643,-0.0011355693948273443,6.734485703308338e-06
-0.10449374704627068,-0.0012385502807663528,5.547425865511489e-06
-0.10700705225866496,-0.0013443006804188206,4.256000384918902e-06
-0.10890768400376737,-0.0014522580485500367,2.8577210204344735e-06
-0.11013363708669774,-0.0015617787090952693,1.3507026416118204e-06
-0.1106655237507338,-0.0016721782895139851,-2.6627585769280697e-07
-0.1105269914947117,-0.001782774547136708,-1.9937522760181536e-06
-0.10978080240211087,-0.0018929284440851193,-3.831603771629067e-06
-0.10852102713210067,-0.002002079358852225,-5.77910767309774e-06
-0.10686253286878865,-0.0021097711388526697,-7.835032921950187e-06
-0.1049292163971757,-0.002215667013485652,-9.997751998119348e-06
-0.1028423559878302,-0.0023195527996781548,-1.2265361904701252e-05
-0.10071028956528402,-0.002421329122454712,-1.4635802865767685e-05
-0.09862044672653356,-0.002520994490600621,-1.710696467229535e-05
-0.09663445405497917,-0.002618621940991377,-1.967677288809135e-05
-0.0947865670440732,-0.002714332451540903,-2.234325008435749e-05
-0.09308521368291718,-0.002808268341904398,-2.5104550481080138e-05
-0.0915171128074202,-0.0029005695051495667,-2.795896940460712e-05
-0.09005327968186116,-0.0029913547013942074,-3.0904931507879005e-05
-0.08865620046276797,-0.003080709441466522,-3.394096357930937e-05
-0.08728745000159956,-0.0031686812666987057,-3.7065658933391986e-05
-0.08591495562964035,-0.003255282469514326,-4.02776408014985e-05
-0.08451898796192622,-0.003340499441310109,-4.3575531756910716e-05
-0.08309593629374842,-0.003424306903437946,-4.6957934929284745e-05
-0.08165917837434371,-0.003506684460771992,-5.0423430611389714e-05
-0.08023686520347191,-0.0035876324825609,-5.397058908305616e-05
-0.07886693766411931,-0.0036671843839946954,-5.7597997516333956e-05
-0.07758995940631376,-0.003745412832529912,-6.130429612459626e-05
-0.07644051486369836,-0.003822428069664918,-6.508821657569367e-05
-0.07543826951948639,-0.0038983674618565103,-6.894861434145438e-05
-0.07458034572757223,-0.003973376769480039,-7.288448645712266e-05
-0.07383700297348861,-0.00404758544383057,-7.689496756377796e-05
-0.07315219270923617,-0.0041210800416719325,-8.097930030652921e-05
-0.07244934163217821,-0.004193880808842639,-8.513678073178649e-05
-0.07164128912998304,-0.00426592612422372,-8.936668419831968e-05
-0.07064238771020712,-0.0043370679626438145,-9.366818124175344e-05
-0.06938060795541132,-0.004407079460476623,-9.804025495331366e-05
-0.0678077186516252,-0.004475673623780142,-0.00010248163149544204
-0.06590589853282242,-0.004542530432372366,-0.00010699073352351828
-0.06368961360861948,-0.004607328188443087,-0.000111565662833926
-0.06120245359786838,-0.004669774222046331,-0.0001162042140391707
-0.058509641222386645,-0.004729630269456458,-0.0001209039162849221
-0.055687749437493606,-0.004786728964786399,-0.00012566209590204354
-0.05281362813774095,-0.0048409796535740166,-0.00013047595021122374
-0.04995461208905992,-0.004892363773687417,-0.00013534262192485446
-0.04716172752729236,-0.004940921943495593,-0.00014025926478344598
-0.044466871938961934,-0.0049867362432287204,-0.00014522309387680814
-0.041883961004655995,-0.005029911659700529,-0.00015023141782827276
-0.03941311944912573,-0.00507056019992742,-0.00015528165375808673
-0.03704648190520105,-0.005108790000604583,-0.00016037132885835274
-0.03477420201718032,-0.005144700342565774,-0.00016549807402993792
-0.032589705611755934,-0.005178382296380242,-0.00017065961534941092
-0.030493792532656203,-0.005209924045452448,-0.00017585376852032728
-0.02849755633009338,-0.005239419719883822,-0.00018107844040299542
-0.0266239777778759,-0.005266980486937807,-0.00018633164050640624
-0.024907563645492875,-0.005292746257649491,-0.0001916115038786999
-0.023391101924783782,-0.0053168955904346294,-0.00019691632480274196
-0.0221189772618065,-0.005339650630027924,-0.00020224459791297325
-0.0211274775361782,-0.0053612738574269165,-0.00020759506015670067
-0.020433669962024035,-0.0053820544311760175,-0.00021296672430100213
-0.020025255785698047,-0.005402283894049878,-0.0002183588934636151
-0.01985398987642501,-0.005422223516880939,-0.0002237711471690805
-0.019834680770532066,-0.005442067852204418,-0.00022920329285362317
-0.01985066035546119,-0.005461910522767415,-0.0002346552820411091
-0.01976524966806296,-0.0054817184777791765,-0.0002401270965413824
-0.01943745040744618,-0.005501319827816931,-0.00024561861569418045
-0.01873918318295969,-0.005520408144612134,-0.00025112947968039496
-0.017571154498620484,-0.005538563313452924,-0.00025665896540942747
-0.01587486291432015,-0.005555286322159394,-0.0002622058902272336
-0.013639064127068265,-0.005570043285680088,-0.00026776855503115335
-0.010899970034738051,-0.005582312802760991,-0.0002733447330753739
-0.007735532838934472,-0.005591630554197828,-0.0002789317047538533
-0.004255278126366085,-0.005597625959680478,-0.00028452633301079245
-0.0005879098689495328,-0.005600047553678136,-0.00029012516976747175
0.003131136225805601,-0.005598775940499708,-0.00029572458151456066
0.006770863779117864,-0.005593824940497246,-0.0003013208819550591
0.0102143764767546,-0.005585332320369309,-0.0003069104605854924
0.013367480644609823,-0.005573541391808627,-0.0003124898974415814
0.016166683149331784,-0.005558774309911656,-0.0003180560552924415
0.018586460065663352,-0.005541397738304158,-0.00032360614131654944
0.020644815538794225,-0.005521782100501929,-0.0003291377312359525
0.02240545047369591,-0.005500256967495684,-0.0003346487507699513
0.023974790249878652,-0.005477066847133896,-0.00034013741267726607
0.02549289098444411,-0.005452333006516734,-0.0003456021126040914
0.027118619746756153,-0.0054260272511511345,-0.0003510412927329253
0.02901093974223874,-0.005397962471406637,-0.0003564532875942042
0.031309058166894284,-0.00536780247245207,-0.0003618361700661336
0.034114353126109026,-0.0053350907668055685,-0.0003671876166857624
0.03747658100859033,-0.0052992952997382185,-0.0003725048097190343
0.041386235316121636,-0.005259863891575863,-0.0003777843893146913
0.04577421138965194,-0.005216283668222976,-0.00038302246309459073
0.05051901085680787,-0.005168137057099746,-0.0003882146734572521
0.05546055685466618,-0.005115147273244009,-0.00039335631562242395
0.06041858217912672,-0.005057207703727112,-0.0003984424931109095
0.06521294489113068,-0.004994391940191984,-0.0004034682929328691
0.06968325256493858,-0.004926943841463949,-0.00040842896082369704
0.07370551977909195,-0.004855249455291934,-0.00041332005747207496
0.07720392269769212,-0.004779794734053542,-0.0004181375795667477
0.08015617846847325,-0.004701114683470459,-0.0004228780342755097
0.08259200715254592,-0.0046197405906599496,-0.0004275384619125749
0.08458542256237145,-0.004536151875802491,-0.00043211640814580613
0.08624260344766337,-0.004450737862797474,-0.0004366098530151061
0.08768734416589172,-0.004363772888990696,-0.0004410171083910002
0.08904577800348377,-0.004275406327906009,-0.00044533669799944856
0.09043173552178446,-0.0041856675711433745,-0.00044956723494897325
0.09193397658504228,-0.004094484715089961,-0.00045370731109208994
0.09360648259889498,-0.0040017144854979925,-0.0004577554106923839
0.09546286107003985,-0.003907179813663525,-0.0004617098578419647
0.09747563987957282,-0.0038107105631887185,-0.00046556880303039085
0.09958072129979083,-0.0037121823825990367,-0.00046933024950328474
0.1016864975467943,-0.003611548773175744,-0.0004729921150811721
0.10368633253765537,-0.003508862358133519,-0.00047655232064682673
0.1054725991204485,-0.003404282892304467,-0.0004800088932720457
0.10695031677059882,-0.0032980714343589434,-0.0004833600704353774
0.10804861347689798,-0.003190571969235195,-0.0004866043921371745
0.10872870804919858,-0.0030821833084721468,-0.0004897407697760282
0.10898774433275152,-0.0029733250822811716,-0.0004927685239714049
0.108858386936694,-0.002864402016646449,-0.0004956873875208687
0.1084045453400881,-0.002755770550508058,-0.000498497473804446
0.10771399790827525,-0.002647711278883876,-0.0005011992147191419
0.1068890019142936,-0.0025404097789725917,-0.0005037932752480701
0.1060360621514604,-0.002433947246939715,-0.0005062804537610263
0.10525587072627704,-0.002328301280500846,-0.0005086615780247465
0.10463421146125926,-0.002223356239407078,-0.0005109374067847005
0.10423454354546928,-0.002118921861903714,-0.0005131085458353558
0.10409300006184523,-0.0020147580901000565,-0.0005151753858113577
0.10421639815807601,-0.0019106033909900959,-0.0005171380665519028
0.10458341332324819,-0.0018062034852494337,-0.0005189964699900226
0.10514854806327027,-0.0017013375045561744,-0.0005207502404849253
0.10584827840463233,-0.0015958390913222232,-0.0005223988287828645
0.10660879338821781,-0.0014896105554257982,-0.0005239415536062385
0.10735473122656941,-0.0013826287931184046,-0.0005253776732805106
0.10801806646755102,-0.0012749423942713444,-0.0005267064588742055
0.1085459443278241,-0.0011666603888736567,-0.000527927260265778
0.10890607484561608,-0.0010579343792869367,-0.0005290395576498583
0.10908850657838906,-0.0009489370885749341,-0.0005300429933837892
0.10910321266222907,-0.000839841228954625,-0.0005309373825425539
0.10897379770367445,-0.0007308027237716733,-0.000531722704518917
0.1087285951520692,-0.0006219515273438014,-0.0005323990816444747
0.10839121339070933,-0.0005133916230724121,-0.0005329667532196829
0.10797282080173001,-0.0004052096059761924,-0.0005334260538342072
0.10746793329756886,-0.000297489228926543,-0.0005337774032516586
0.10685448364326514,-0.000190328020456126,-0.0005340213118763499
0.10609804974719585,-8.385175376089549e-05,-0.0005341584017634584
0.10515948343730638,2.177701283135564e-05,-0.0005341894391339231
0.10400458496600623,0.00012635904703301197,-0.000534115371103991
0.102613834792442,0.0002296682569122361,-0.0005339373574520184
0.10098988065045136,0.0003314701146336828,-0.0005336567882662454
0.0991608474789633,0.00043154547869839015,-0.0005332752804695794
0.09717848887731333,0.0005297151468765285,-0.0005327946501567919
0.09511132067385673,0.0006258600516521135,-0.0005322168625575275
0.09303392638356318,0.0007199326751808234,-0.000531543966194111
0.09101454816593894,0.0008119569124555745,-0.0005307780214002929
0.08910363190197178,0.0009020160024895299,-0.0005299210349428203
0.08732580505462612,0.0009902307209678288,-0.0005289749115810916
0.08567682580544045,0.001076732036397862,-0.0005279414302024088
0.08412578934192701,0.0011616333439715457,-0.0005268222475122242
0.08262177094422307,0.0012450071241146207,-0.000525618927278181
0.08110334055280964,0.0013268696798631372,-0.0005243329888761922
0.07950901872331786,0.001407175859501201,-0.00052296596610651
0.07778671805067297,0.0014858237278881964,-0.0005215194663128153
0.0759005016549107,0.0015626673377409882,-0.0005199952207800007
0.07383354975295095,0.001637534363444919,-0.0005183951199294077
0.07158697834587444,0.0017102446274943318,-0.0005167212304339381
0.06917504289538158,0.0017806256381149598,-0.0005149757953011335
0.06661817468376333,0.0018485222469045322,-0.0005131612213586237
0.06393589306878572,0.0019137992807808067,-0.0005112800605947811
0.06114152629623886,0.001976337990463319,-0.000509334991959159
0.058239942490051155,0.002036028724856464,-0.000507328808601499
0.055228655728233406,0.002092763023965606,-0.000505264412727088
0.05210202732021107,0.002146428365489828,-0.0005031448170323604
0.04885772302053607,0.002196908240660202,-0.0005009731487292853
0.04550404238686202,0.002244089123363901,-0.0004987526500472733
0.04206637115428443,0.002287874330134474,-0.0004964866683205241
0.038591004025907684,0.00232820301772457,-0.0004941786296465946
0.03514499927453089,0.0023650710193747894,-0.000491831992628045
0.031811522364236136,0.002398549280194173,-0.0004894501824782605
0.028681183886794224,0.002428795633319688,-0.00048703651002150354
0.02584088800638439,0.0024560566692662772,-0.00048459408387021056
0.02336231963845944,0.002480658273088699,-0.00048212572639903307
0.021292224504202952,0.00250298554516003,-0.00047963390448990873
0.019646160219624127,0.0025234547375219438,-0.00047712068434856776
0.01840662918776091,0.0025424811322256363,-0.000474587716413694
0.017525620243134234,0.002560447256941084,-0.0004720362522191106
0.016930711563458843,0.0025776754228443804,-0.00046946719087921786
0.016533205102071912,0.002594407381177146,-0.0004668811494772071
0.016236524231125763,0.0026107922458437445,-0.00046427854966369665
0.015943437853400588,0.0026268822268860075,-0.00046165971242733176
0.015561446521085563,0.0026426346690732504,-0.00045902495397935215
0.015006563576099098,0.0026579186741218425,-0.0004563746773077546
0.014206344330396648,0.0026725251280750903,-0.00045370945540665613
0.01310305267013338,0.0026861798265753554,-0.0004510301029293309
0.011657349129984423,0.0026985600274754143,-0.00044833773300230554
0.009852185466647331,0.0027093147947737303,-0.00044563379559118096
0.007696054228222789,0.0027180889146211653,-0.0004429200937364835
0.005224554140558767,0.002724549218805556,-0.00044019877466977016
0.0024993701090614668,0.0027284111809303658,-0.0004374722944699022
-0.00039593199091862214,0.0027294628999894373,-0.0004347433574294423
-0.0033634944299820763,0.002727583186778987,-0.00043201483438605806
-0.006301739332563642,0.002722750569897714,-0.0004292896675077197
-0.009117746382245615,0.0027150408270403092,-0.00042657077180925066
-0.011739591563608605,0.002704612158067382,-0.0004238609453166968
-0.014126553182373823,0.0026916790856943906,-0.0004211627996948159
-0.016275391166417085,0.002676478113519995,-0.0004184787210952087
-0.018221634721828455,0.0026592296005758724,-0.00041581086723816075
-0.020035656392526434,0.002640100955018695,-0.00041316120196036347
-0.021813998061846526,0.0026191761277915087,-0.00041053156341895836
-0.023666923645983433,0.0025964356669375935,-0.0004079237575215938
-0.025703618199736853,0.0025717503960147334,-0.00040533966449011766
-0.02801686308241724,0.0025448901553736564,-0.00040278134421442346
-0.030669270247137927,0.0025155470887088787,-0.0004002511255923822
-0.03368306119268198,0.0024833709229889686,-0.00039775166658653327
-0.03703483982416407,0.0024480119724805457,-0.00039528597513879853
-0.04065603787079091,0.002409166533633068,-0.00039285738588574175
-0.044439043951138985,0.0023666189927221033,-0.00039046949312256416
-0.04824849718766008,0.002320275222152704,-0.00038812604601512674
-0.05193660178351819,0.0022701826726671146,-0.00038583081706771685
-0.05536060276812759,0.002216534070391292,-0.00038358745869618765
-0.058400019086630665,0.002159653759463913,-0.00038139936478126003
-0.060971000168356,0.0020999682498364196,-0.00037926955377660986
-0.06303535956726136,0.002037965069968611,-0.00037720058711670736
-0.06460272536361378,0.0019741460275031733,-0.00037519453156797147
-0.0657258153495946,0.001908981757146569,-0.0003732529676756466
-0.06649037466620661,0.0018428736621386684,-0.00037137703996600397
-0.06700205878549959,0.0017761274454128153,-0.0003695675394122282
-0.06737251202609637,0.0017089401600070173,-0.0003678250056095183
-0.06770649223067975,0.0016414006578786293,-0.00036614983520057544
-0.06809131166439418,0.0015735017559310924,-0.00036454238399367055
-0.06858917737688364,0.0015051615114104536,-0.0003630030523599998
-0.06923246252932265,0.0014362506914573504,-0.0003615323462585659
-0.07002176103695125,0.0013666235796742135,-0.0003601309091230001
-0.07092672422608015,0.001296149337042698,-0.00035879952266464163
-0.071889801606451,0.0012247410741264323,-0.00035753907745905705
-0.07283276890433234,0.0011523797888710406,-0.0003563505170275583
-0.07366540311430714,0.0010791307028617208,-0.00035523476178169193
-0.07429529619205301,0.0010051503532085408,-0.0003541926212536568
-0.07463781347952705,0.0009306837983727507,-0.00035322470417786616
-0.07462535526029734,0.0008560522140028385,-0.0003523313361716784
-0.07421509295161438,0.0007816319898968826,-0.00035151249406972855
-0.07339430692710366,0.0007078272899575237,-0.00035076776442980134
-0.07218258913082505,0.0006350388419285593,-0.0003500963313638583
-0.07063055999121577,0.0005636322673675389,-0.0003494969958092103
-0.06881528275226882,0.0004939093459957966,-0.0003489682250025286
-0.06683306120332781,0.00042608517401799835,-0.0003485082277425217
-0.06479057080723437,0.0003602733580127173,-0.00034811504847650636
-0.06279522445863338,0.0002964804603797834,-0.0003477866715673101
-0.060945512498645986,0.0002346100919011437,-0.00034752112629116963
-0.059322037807202285,0.00017447631674821957,-0.00034731658308684494
-0.05798007172287859,0.00011582526198317914,-0.00034717143229747924
-0.0569444741464934,5.836298904849314e-05,-0.0003470843381719634
-0.05620767023526624,1.7869168576133224e-06,-0.00034705426321901035
