frame_number,force
0,693.051303943818
1,693.0580646420284
2,693.0643758088057
3,693.0703092828775
4,693.0759430268697
5,693.0813600410038
6,693.0866472488133
7,693.0918943735312
8,693.0971928250246
9,693.102634618475
10,693.1083113447462
11,693.1143132092092
12,693.120728152188
13,693.1276410594247
14,693.1351330639038
15,693.1432809330439
16,693.1521565318222
17,693.1618263549113
18,693.1723511269995
19,693.1837854752531
20,693.196177677886
21,693.2095694878034
22,693.2239960225177
23,693.2394857044997
24,693.2560602329022
25,693.2737345685697
26,693.2925169177564
27,693.3124087049679
28,693.3334045323411
29,693.355492133049
30,693.3786523389184
31,693.4028590942864
32,693.4280795540496
33,693.454274301093
34,693.4813977080346
35,693.5093984546231
36,693.5382201996823
37,693.5678023969816
38,693.5980812357507
39,693.6289906759886
40,693.6604635373982
41,693.6924325936493
42,693.7248316243216
43,693.7575963844316
44,693.7906654625596
45,693.8239810098478
46,693.8574893302741
47,693.8911413256546
48,693.9248927881337
49,693.9587045319562
50,693.9925423574431
51,694.0263768430733
52,694.0601829657238
53,694.0939395552799
54,694.1276285988719
55,694.1612344205599
56,694.19474277207
57,694.2281398778332
58,694.2614114816414
59,694.2945419406379
60,694.3275134051888
61,694.3603051136001
62,694.392892821644
63,694.4252483788504
64,694.4573394561618
65,694.4891294237979
66,694.5205773755304
67,694.5516382957117
68,694.5822633654701
69,694.6124004003862
70,694.6419944017601
71,694.6709881910745
72,694.6993230903739
73,694.7269396147719
74,694.7537781543609
75,694.7797796349407
76,694.8048861550462
77,694.8290415987688
78,694.8521922207229
79,694.8742871939937
80,694.8952791069447
81,694.9151243924308
82,694.9337836741466
83,694.9512220197378
84,694.9674090985746
85,694.9823192517952
86,694.9959314897495
87,695.0082294351365
88,695.0192012297135
89,695.0288394197044
90,695.0371408295938
91,695.0441064261815
92,695.0497411673689
93,695.0540538265881
94,695.057056784976
95,695.0587657871827
96,695.0591996603058
97,695.0583799977969
98,695.056330811949
99,695.0530781608214
100,695.0486497587626
101,695.0430745840961
102,695.0363825019043
103,695.0286039215575
104,695.0197695058711
105,695.0099099434934
106,694.9990557917836
107,694.9872373942711
108,694.9744848727878
109,694.9608281889812
110,694.9462972635499
111,694.9309221339741
112,694.9147331240526
113,694.8977609954446
114,694.8800370563948
115,694.8615932147109
116,694.8424619759273
117,694.8226763997275
118,694.8022700369687
119,694.781276874859
120,694.759731317307
121,694.7376682212995
122,694.715123000778
123,694.692131799715
124,694.6687317271047
125,694.6449611383201
126,694.6208599405251
127,694.5964698961261
128,694.5718348976014
129,694.547001187249
130,694.5220174940996
131,694.4969350577676
132,694.471807509237
133,694.4466905858651
134,694.4216416723629
135,694.3967191768662
136,694.3719817666762
137,694.3474874989902
138,694.3232928871946
139,694.2994519443638
140,694.276015244395
141,694.2530290383351
142,694.2305344597943
143,694.2085668511887
144,694.1871552423804
145,694.1663220114841
146,694.1460827502927
147,694.126446344746
148,694.1074152689407
149,694.0889860832276
150,694.0711501222363
151,694.0538943527068
152,694.0372023699813
153,694.0210554873962
154,694.0054338609498
155,693.9903175880739
156,693.9756877246283
157,693.9615271748906
158,693.9478214211977
159,693.9345590700806
160,693.921732199387
161,693.9093364964317
162,693.8973711804753
163,693.8858387036822
164,693.8747442263916
165,693.8640948708526
166,693.8538987746513
167,693.8441639851937
168,693.8348972504275
169,693.8261027633616
170,693.81778091179
171,693.8099270773174
172,693.8025305245751
173,693.7955734225519
174,693.7890300428743
175,693.7828661824102
176,693.7770388575743
177,693.7714963125666
178,693.7661783714394
179,693.7610171442262
180,693.7559380728844
181,693.7508612786248
182,693.7457031542394
183,693.7403781366157
184,693.7348005944832
185,693.7288867706568
186,693.7225567240082
187,693.7157362240386
188,693.7083585603347
189,693.7003662389095
190,693.691712544968
191,693.6823629550861
192,693.6722963813481
193,693.6615062281229
194,693.650001241202
195,693.6378061291254
196,693.6249619363979
197,693.6115261478003
198,693.5975725047467
199,693.5831905214343
200,693.5684846994293
201,693.553573450411
202,693.5385877452123
203,693.5236695124121
204,693.5089698123714
205,693.4946468146551
206,693.4808636101579
207,693.4677858943041
208,693.4555795631742
209,693.4444082693353
210,693.4344309885182
211,693.4257996513365
212,693.41865689352
213,693.41313397202
214,693.4093488840537
215,693.4074047141618
216,693.4073882230396
217,693.4093686835255
218,693.4133969649072
219,693.4195048663372
220,693.4277047030432
221,693.4379891540711
222,693.4503313846786
223,693.4646854566294
224,693.4809870333228
225,693.4991543748566
226,693.5190896049136
227,693.5406802205988
228,693.5638008079939
229,693.5883149181105
230,693.6140770496532
231,693.6409346788861
232,693.6687302771044
233,693.6973032648403
234,693.7264918654503
235,693.7561348333361
236,693.7860730421407
237,693.8161509272921
238,693.846217784445
239,693.8761289280446
240,693.9057467121443
241,693.9349414111624
242,693.9635919539182
243,693.9915865013683
244,694.0188228579237
245,694.0452087084418
246,694.0706616767243
247,694.0951092044079
248,694.1184882516211
249,694.1407448258716
250,694.1618333551488
251,694.181715932076
252,694.2003614624127
253,694.217744750337
254,694.2338455466538
255,694.2486475785305
256,694.2621375736757
257,694.2743042892849
258,694.2851375561888
259,694.294627349781
260,694.3027629001732
261,694.309531855172
262,694.3149195122477
263,694.3189081386229
264,694.3214763996855
265,694.322598915307
266,694.3222459635936
267,694.3203833524635
268,694.3169724789533
269,694.3119705923638
270,694.3053312710035
271,694.2970051160701
272,694.2869406619736
273,694.2750854992223
274,694.2613876021085
275,694.2457968487423
276,694.2282667160828
277,694.208756127216
278,694.1872314217328
279,694.1636684124022
280,694.1380544816608
281,694.1103906601157
282,694.0806936203845
283,694.0489975175823
284,694.015355611279
285,693.979841607283
286,693.942550658594
287,693.903599966132
288,693.8631289262302
289,693.8212987856867
290,693.7782917835877
291,693.7343097769901
292,693.689572363513
293,693.6443145308632
294,693.5987838824627
295,693.5532375059137
296,693.5079385630955
297,693.4631526871945
298,693.4191442741645
299,693.376172752706
300,693.3344889063351
301,693.2943313072037
302,693.2559229121459
303,693.2194678720882
304,693.1851486137081
305,693.1531232591769
306,693.1235234494343
307,693.0964526278361
308,693.0719848280777
309,693.0501639965756
310,693.0310038647017
311,693.0144883682664
312,693.0005725910542
313,692.9891841902896
314,692.9802252495671
315,692.9735745004846
316,692.9690898544393
317,692.966611185388
318,692.9659633004384
319,692.9669590294651
320,692.9694023602899
321,692.9730915438703
322,692.9778220951683
323,692.9833896212627
324,692.9895924200646
325,692.996233809179
326,693.003124160591
327,693.0100826289295
328,693.0169385680782
329,693.0235326346594
330,693.0297175810646
331,693.0353587481852
332,693.0403342776001
333,693.0445350700402
334,693.047864518833
335,693.0502380458886
336,693.0515824670201
337,693.0518352134021
338,693.0509434352966
339,693.0488630129627
340,693.0455574996746
341,693.0409970238313
342,693.0351571801305
343,693.028017941411
344,693.0195626210325
345,693.0097769106574
346,692.998648012683
347,692.9861638831155
348,692.9723125994739
349,692.9570818679464
350,692.9404586843456
351,692.9224291645967
352,692.9029785610253
353,692.8820914790726
354,692.8597523052272
355,692.8359458508104
356,692.8106582068071
357,692.7838777920712
358,692.7555965632052
359,692.7258113422193
360,692.694525209269
361,692.6617489038058
362,692.6275021805158
363,692.5918150752204
364,692.5547290440951
365,692.5162979426124
366,692.4765888108786
367,692.4356824339691
368,692.3936736503019
369,692.3506713865222
370,692.3067984035807
371,692.2621907468324
372,692.2169969034098
373,692.171376681501
374,692.1254998352795
375,692.0795444628985
376,692.0336952034797
377,691.9881412569093
378,691.9430742519323
379,691.898685993872
380,691.8551661303853
381,691.8126997788293
382,691.7714651604132
383,691.7316312844697
384,691.6933557229764
385,691.6567825143815
386,691.6220402390097
387,691.5892403135351
388,691.558475553109
389,691.5298190421851
390,691.5033233405683
391,691.4790200363815
392,691.4569196481312
393,691.4370118745244
394,691.4192661901246
395,691.4036327840159
396,691.3900438347857
397,691.3784151065029
398,691.3686478370513
399,691.3606308749884
400,691.3542430078505
401,691.3493554163423
402,691.3458341854991
403,691.3435428037363
404,691.342344581898
405,691.3421049274656
406,691.3426934153811
407,691.3439856071561
408,691.3458645842767
409,691.3482221795172
410,691.3509599071286
411,691.3539896053559
412,691.3572338105287
413,691.3606258827374
414,691.364109902073
415,691.3676403548641
416,691.3711816330772
417,691.3747073758526
418,691.3781996864388
419,691.3816482579687
420,691.3850494387483
421,691.3884052655397
422,691.3917224938626
423,691.3950116561645
424,691.3982861780788
425,691.4015615775054
426,691.4048547621779
427,691.4081834323525
428,691.411565589363
429,691.4150191487614
430,691.4185616558045
431,691.4222100968398
432,691.4259807915267
433,691.4298893417299
434,691.4339506089647
435,691.438178695655
436,691.4425869122263
437,691.4471877161925
438,691.4519926102254
439,691.457011989078
440,691.4622549341403
441,691.4677289665237
442,691.4734397790253
443,691.4793909716453
444,691.485583816251
445,691.4920170756399
446,691.49868690063
447,691.5055868245565
448,691.5127078673505
449,691.5200387528273
450,691.5275662346847
451,691.5352755193366
452,691.5431507669819
453,691.5511756468338
454,691.5593339188721
455,691.5676100130279
456,691.5759895771256
457,691.5844599663324
458,691.5930106483286
459,691.6016335000182
460,691.6103229745304
461,691.6190761227715
462,691.6278924623801
463,691.636773697874
464,691.6457233069633
465,691.6547460167027
466,691.6638471973531
467,691.6730322016471
468,691.6823056749613
469,691.6916708598832
470,691.7011289167233
471,691.7106782782289
472,691.7203140520326
473,691.730027480058
474,691.7398054615186
475,691.7496301448817
476,691.7594785940229
477,691.7693225353624
478,691.779128194797
479,691.7888562328098
480,691.7984617829956
481,691.8078945963174
482,691.8170992925477
483,691.8260157205862
484,691.8345794304828
485,691.8427222632868
486,691.8503730693436
487,691.8574585674152
488,691.8639043529234
489,691.8696360545815
490,691.8745806283407
491,691.8786677695955
492,691.8818314205678
493,691.8840113486392
494,691.8851547695333
495,691.885217983803
496,691.8841679871475
497,691.8819840082667
498,691.8786589248718
499,691.8742005104001
500,691.8686324719457
501,691.8619952538896
502,691.8543465987749
503,691.8457618716711
504,691.8363341626288
505,691.826174183966
506,691.8154099762282
507,691.8041864286229
508,691.7926646080641
509,691.7810208801633
510,691.7694458001483
511,691.758142754147
512,691.7473263411323
513,691.7372204992364
514,691.7280563915531
515,691.7200700737998
516,691.7134999723957
517,691.708584209853
518,691.7055578232117
519,691.7046499269143
520,691.7060808740513
521,691.7100594711519
522,691.7167803004417
523,691.7264211982164
524,691.7391409321467
525,691.7550771185213
526,691.7743444211653
527,691.7970330709177
528,691.823207734702
529,691.8529067488952
530,691.8861417184322
531,691.9228974751779
532,691.963132387344
533,692.006779013952
534,692.0537451012507
535,692.1039149186571
536,692.1571509286673
537,692.2132957782939
538,692.2721745890408
539,692.3335975076704
540,692.3973624626683
541,692.4632580567569
542,692.5310665193605
543,692.6005666449195
544,692.671536649085
545,692.743756880539
546,692.8170123309179
547,692.8910948920575
548,692.9658053202932
549,693.0409548802892
550,693.1163666537908
551,693.1918765113339
552,693.2673337565162
553,693.3426014604628
554,693.4175565066028
555,693.4920893651743
556,693.5661036188415
557,693.6395152679833
558,693.7122518525647
559,693.7842514314071
560,693.8554614570096
561,693.92583757669
562,693.9953423833404
563,694.0639441360561
564,694.1316154728787
565,694.19833214223
566,694.264071784053
567,694.328812794203
568,694.3925333032179
569,694.4552102925137
570,694.5168188614924
571,694.5773316528637
572,694.6367184406342
573,694.6949458820746
574,694.751977429823
575,694.8077733943583
576,694.8622911409642
577,694.9154853987072
578,694.9673086539157
579,695.0177116006225
580,695.0666436253031
581,695.1140533086465
582,695.1598889296669
583,695.2040989585669
584,695.2466325276961
585,695.2874398743646
586,695.3264727516777
587,695.3636848035098
588,695.3990319013114
589,695.4324724455864
590,695.4639676398931
591,695.4934817456264
592,695.5209823210979
593,695.5464404411163
594,695.5698308870494
595,695.5911322953572
596,695.6103272549044
597,695.6274023473235
598,695.6423481288199
599,695.655159057712
600,695.6658333806778
601,695.674372999127
602,695.6807833413017
603,695.6850732651378
604,695.6872550133327
605,695.6873442358457
606,695.6853600861807
607,695.6813253886041
608,695.6752668672947
609,695.6672154263581
610,695.6572064699003
611,695.6452802515454
612,695.6314822412584
613,695.6158634934178
614,695.5984809945422
615,695.5793979644707
616,695.5586840841531
617,695.5364156276341
618,695.5126754828472
619,695.4875530505859
620,695.4611440107493
621,695.4335499425043
622,695.404877785582
623,695.3752391351583
624,695.3447493704512
625,695.3135266252312
626,695.281690615875
627,695.249361347378
628,695.2166577179647
629,695.1836960403434
630,695.1505884969101
631,695.1174415503014
632,695.0843543386014
633,695.0514170930193
634,695.0187096220499
635,694.9862999083923
636,694.9542428630343
637,694.9225792759956
638,694.8913349966305
639,694.8605203689824
640,694.830129940291
641,694.8001424547928
642,694.7705211413283
643,694.7412143004283
644,694.7121561913839
645,694.6832682113799
646,694.6544603497068
647,694.6256328934915
648,694.5966783580092
649,694.5674836129665
650,694.5379321733955
651,694.5079066176758
652,694.4772910867205
653,694.4459738115783
654,694.413849613928
655,694.3808223236571
656,694.3468070579376
657,694.3117323075027
658,694.275541780334
659,694.2381959628525
660,694.1996733742031
661,694.1599715066394
662,694.1191074577004
663,694.0771182641449
664,694.0340609464616
665,693.9900122712602
666,693.945068237594
667,693.8993432903416
668,693.8529692604358
669,693.806094032554
670,693.7588799485436
671,693.7115019668571
672,693.6641456090941
673,693.6170047305702
674,693.5702791526525
675,693.5241721933411
676,693.4788881324916
677,693.4346296495702
678,693.391595272962
679,693.34997688058
680,693.309957294319
681,693.2717080158038
682,693.2353871532413
683,693.2011375843894
684,693.1690853890497
685,693.1393385711116
686,693.1119860808344
687,693.087097144905
688,693.0647209118004
689,693.0448864182721
690,693.0276028771473
691,693.012860278199
692,693.0006302846676
693,692.9908673988432
694,692.9835103603352
695,692.9784837310602
696,692.9756996152786
697,692.9750594641723
698,692.9764559200072
699,692.9797746589676
700,692.9848961920717
701,692.991697583548
702,693.0000540492902
703,693.0098404048275
704,693.0209323412349
705,693.0332075170096
706,693.0465464620314
707,693.0608332944017
708,693.0759562529116
709,693.091808049888
710,693.108286052714
711,693.1252923075867
712,693.1427334263444
713,693.1605203649076
714,693.1785681261932
715,693.1967954194162
716,693.2151243032494
717,693.2334798355438
718,693.2517897499548
719,693.2699841800204
720,693.2879954500987
721,693.3057579465141
722,693.3232080732938
723,693.3402842894736
724,693.3569272195924
725,693.373079823435
726,693.3886876060233
727,693.4036988481882
728,693.4180648437971
729,693.431740138573
730,693.4446827710465
731,693.4568545152401
732,693.4682211197423
733,693.4787525328544
734,693.4884230995434
735,693.4972117123101
736,693.5051018950865
737,693.5120817982731
738,693.5181440854011
739,693.523285698245
740,693.5275074961276
741,693.5308137739718
742,693.5332116711819
743,693.5347104907977
744,693.5353209561483
745,693.5350544384609
746,693.5339221909869
747,693.5319346227711
748,693.5291006399233
749,693.5254270762492
750,693.5209182299546
751,693.5155755194602
752,693.5093972677943
753,693.5023786195503
754,693.494511587615
755,693.4857852220057
756,693.476185891916
757,693.4656976719045
758,693.4543028199846
759,693.4419823284803
760,693.4287165220663
761,693.4144856765201
762,693.3992706376794
763,693.3830534294652
764,693.3658178484541
765,693.3475500489889
766,693.3282391273601
767,693.307877715046
768,693.2864625877472
769,693.263995289742
770,693.2404827652915
771,693.2159379835547
772,693.1903805411932
773,693.1638372263004
774,693.1363425273191
775,693.1079390705667
776,693.0786779686962
777,693.0486190585362
778,693.0178310006137
779,692.9863912077108
780,692.9543855707353
781,692.9219079592731
782,692.8890594897987
783,692.8559475725227
784,692.822684763002
785,692.7893874522942
786,692.7561744292508
787,692.7231653458972
788,692.6904791181092
789,692.6582322998984
790,692.6265374759649
791,692.5955017197319
792,692.565225163066
793,692.5357997207367
794,692.5073080071498
795,692.4798224745911
796,692.4534047916063
797,692.428105467391
798,692.403963713847
799,692.3810075248634
800,692.3592539470235
801,692.3387095179415
802,692.3193708538223
803,692.3012253726672
804,692.2842521423391
805,692.2684228433262
806,692.2537028346228
807,692.2400523077866
808,692.2274275102334
809,692.2157820167523
810,692.2050680289323
811,692.1952376835924
812,692.186244351257
813,692.178043903733
814,692.1705959254774
815,692.1638648358661
816,692.1578208804493
817,692.152440944266
818,692.1477091443232
819,692.1436171709028
820,692.1401643631598
821,692.1373575186485
822,692.1352104473739
823,692.1337432896537
824,692.1329816250174
825,692.1329554065234
826,692.1336977588377
827,692.1352436776754
828,692.1376286653774
829,692.1408873366765
830,692.1450520308528
831,692.1501514683616
832,692.1562094887149
833,692.1632439015596
834,692.1712654756888
835,692.1802770828622
836,692.1902730071085
837,692.2012384277041
838,692.2131490856134
839,692.2259711466952
840,692.2396612767182
841,692.254166939886
842,692.2694269229509
843,692.2853720731761
844,692.3019262251422
845,692.3190072831477
846,692.3365284241813
847,692.3543993893867
848,692.3725278365688
849,692.3908207307588
850,692.4091857542468
851,692.4275327219077
852,692.4457749903426
853,692.463830848257
854,692.481624871169
855,692.4990892189663
856,692.5161648525368
857,692.532802646035
858,692.5489643732908
859,692.5646235493149
860,692.5797661101092
861,692.594390915329
862,692.6085100583033
863,692.6221489679385
864,692.635346290538
865,692.6481535487864
866,692.660634588074
867,692.6728648322177
868,692.6849303777682
869,692.6969269572851
870,692.7089587979857
871,692.7211373954342
872,692.7335802152421
873,692.7464093303591
874,692.7597499975465
875,692.773729174657
876,692.7884739807087
877,692.8041101026288
878,692.8207601562768
879,692.8385420167615
880,692.8575671435883
881,692.8779389350179
882,692.8997511485345
883,692.9230864211539
884,692.9480149198341
885,692.974593152059
886,693.00286296723
887,693.0328507757399
888,693.064567003692
889,693.0980057919699
890,693.1331449437321
891,693.1699461238378
892,693.208355312572
893,693.2483035113789
894,693.2897076901002
895,693.3324719542517
896,693.3764888995497
897,693.4216411138001
898,693.467802786248
899,693.5148413896327
900,693.562619406145
901,693.6109960718878
902,693.6598291135591
903,693.7089764466915
904,693.7582978015105
905,693.8076562459015
906,693.8569195861111
907,693.9059616396682
908,693.9546633849836
909,694.0029139949226
910,694.0506117587338
911,694.0976648911402
912,694.1439922209015
913,694.189523744822
914,694.2342010295721
915,694.2779774458
916,694.3208182262509
917,694.3627003467494
918,694.4036122307205
