frame_number,force
0,693.0522036459159
1,693.0588775498337
2,693.0650905798
3,693.0709159757579
4,693.0764332743643
5,693.0817271843551
6,693.0868864334321
7,693.0920026061041
8,693.0971689932023
9,693.102479475169
10,693.1080274598975
11,693.1139048925671
12,693.1202013511354
13,693.1270032361442
14,693.1343930560937
15,693.1424488019404
16,693.151243400674
17,693.1608442405709
18,693.1713127671301
19,693.1827041537343
20,693.1950670510967
21,693.2084434143221
22,693.2228683982669
23,693.238370304507
24,693.2549705598566
25,693.2726837074159
26,693.2915173948295
27,693.3114723496872
28,693.3325423393707
29,693.354714123232
30,693.377967418341
31,693.4022749124798
32,693.4276023642989
33,693.4539088276515
34,693.4811470263738
35,693.5092638915047
36,693.5382012598831
37,693.5678967230745
38,693.5982846064901
39,693.6292970474648
40,693.6608651291798
41,693.6929200198294
42,693.7253940671088
43,693.758221806026
44,693.7913408497011
45,693.8246926446318
46,693.8582230804275
47,693.891882947217
48,693.9256282331872
49,693.9594202536957
50,693.9932256045694
51,694.0270159353237
52,694.0607675423827
53,694.0944607888391
54,694.1280793667808
55,694.1616094292916
56,694.1950386295003
57,694.228355112073
58,694.2615465068027
59,694.2945989722712
60,694.3274963300227
61,694.3602193196272
62,694.3927449955571
63,694.425046278396
64,694.4570916651695
65,694.488845097555
66,694.5202659839471
67,694.5513093715075
68,694.5819262644076
69,694.6120640801704
70,694.6416672253126
71,694.6706777583529
72,694.6990361010435
73,694.726681762333
74,694.7535540512085
75,694.7795927673019
76,694.8047388666224
77,694.8289351018939
78,694.8521266336764
79,694.8742616026684
80,694.895291648379
81,694.9151723569121
82,694.9338636218488
83,694.9513299073591
84,694.9675404113547
85,694.9824691366892
86,694.9960948863138
87,695.0084012016008
88,695.0193762626328
89,695.0290127663444
90,695.0373077927006
91,695.0442626608886
92,695.0498827697219
93,695.0541774127205
94,695.0571595595756
95,695.0588455996806
96,695.059255047197
97,695.0584102095828
98,695.0563358233745
99,695.05305866336
100,695.0486071347552
101,695.0430108626186
102,695.0363002973271
103,695.0285063567334
104,695.0196601227248
105,695.0097926043572
106,694.998934575184
107,694.9871164890698
108,694.9743684745841
109,694.9607204024178
110,694.9462020135801
111,694.9308430881954
112,694.9146736268813
113,694.8977240134221
114,694.8800251326858
115,694.8616084302137
116,694.8425059144741
117,694.8227501155114
118,694.8023740234598
119,694.7814110358554
120,694.7598949421251
121,694.7378599671564
122,694.7153408859941
123,694.6923732114581
124,694.6689934470317
125,694.6452393886973
126,694.6211504522893
127,694.596767999043
128,694.5721356313366
129,694.5472994308324
130,694.5223081098616
131,694.4972130442916
132,694.4720681563508
133,694.4469296235296
134,694.4218554048717
135,694.3969045941881
136,694.3721366259562
137,694.347610370948
138,694.323383164136
139,694.299509808551
140,694.2760415974907
141,694.2530253944533
142,694.2305028063324
143,694.2085094831453
144,694.1870745773815
145,694.1662203941747
146,694.145962255815
147,694.1263085914906
148,694.1072612506321
149,694.0888160298787
150,694.0709633987518
151,694.0536894028622
152,694.0369767119012
153,694.0208057643306
154,694.005155948225
155,693.9900067540043
156,693.9753388403506
157,693.9611349657905
158,693.9473807509063
159,693.9340652468378
160,693.9211812937751
161,693.9087256589728
162,693.8966989472414
163,693.8851052777761
164,693.8739517229528
165,693.8632475134652
166,693.8530030321147
167,693.8432286397133
168,693.8339333910837
169,693.8251237016442
170,693.8168020186145
171,693.8089655432262
172,693.8016050469579
173,693.7947038259175
174,693.788236840564
175,693.7821700906371
176,693.7764602751831
177,693.7710547821696
178,693.7658920392437
179,693.7609022365508
180,693.7560084068352
181,693.7511278226658
182,693.7461736517727
183,693.7410568026394
184,693.7356878923456
185,693.7299792730779
186,693.7238470599897
187,693.7172131110981
188,693.7100069197813
189,693.7021673906223
190,693.6936444772479
191,693.6844006644084
192,693.6744122760597
193,693.6636705892266
194,693.6521827323946
195,693.639972347259
196,693.6270799925015
197,693.6135632677159
198,693.5994966374054
199,693.5849709420845
200,693.5700925949262
201,693.5549824740064
202,693.5397745290003
203,693.5246141265416
204,693.5096561612002
205,693.4950629611651
206,693.4810020212532
207,693.4676436011493
208,693.4551582325395
209,693.4437141839561
210,693.4334749367389
211,693.4245967287222
212,693.4172262215053
213,693.4114983407515
214,693.4075343281717
215,693.4054400312692
216,693.4053044450658
217,693.4071985112537
218,693.4111741758098
219,693.4172637057459
220,693.4254792687353
221,693.4358127846906
222,693.4482360629911
223,693.4627012392327
224,693.4791415187693
225,693.4974722219147
226,693.5175921118342
227,693.5393849748858
228,693.5627214144098
229,693.5874608105081
230,693.6134533896828
231,693.6405423418047
232,693.6685659221075
233,693.697359484983
234,693.7267574105449
235,693.7565948981736
236,693.7867096118464
237,693.8169431715437
238,693.8471424925501
239,693.8771609772707
240,693.9068595619804
241,693.9361076162451
242,693.9647836881753
243,693.9927760856007
244,694.0199832826672
245,694.0463141436682
246,694.0716879598298
247,694.0960342979631
248,694.1192926624921
249,694.1414119776925
250,694.162349906967
251,694.1820720373531
252,694.2005509642436
253,694.2177653103734
254,694.2336987065257
255,694.2483387534824
256,694.2616759787679
257,694.273702799025
258,694.2844124989655
259,694.293798239054
260,694.3018521049946
261,694.3085642133082
262,694.3139218899973
263,694.3179089424171
264,694.3205050456039
265,694.321685263682
266,694.3214197269178
267,694.3196734859192
268,694.316406563966
269,694.3115742245005
270,694.3051274641384
271,694.2970137350428
272,694.2871778960683
273,694.2755633887397
274,694.2621136300586
275,694.2467736092058
276,694.2294916700574
277,694.2102214557674
278,694.1889239849285
279,694.165569820784
280,694.1401412847817
281,694.1126346538546
282,694.0830622714724
283,694.0514545003733
284,694.0178614485391
285,693.9823544036609
286,693.9450269123489
287,693.9059954416297
288,693.8653995669432
289,693.823401645317
290,693.7801859516936
291,693.7359572751336
292,693.6909389883303
293,693.6453706216837
294,693.5995049932419
295,693.5536049642518
296,693.5079399026941
297,693.4627819440002
298,693.418402140446
299,693.375066587132
300,693.3330326014171
301,693.2925450180735
302,693.2538326527958
303,693.2171049874083
304,693.1825491382671
305,693.1503271766745
306,693.120573869744
307,693.0933949011506
308,693.0688656176495
309,693.0470303328789
310,693.0279022044728
311,693.0114636816612
312,692.9976674989451
313,692.9864381716084
314,692.9776739359156
315,692.9712490723691
316,692.9670165506658
317,692.9648109343502
318,692.9644514790539
319,692.9657453522893
320,692.9684908979071
321,692.9724808661504
322,692.9775055315464
323,692.9833556270819
324,692.9898250355012
325,692.9967131955704
326,693.0038271980897
327,693.010983559124
328,693.0180096652763
329,693.0247448897717
330,693.031041382465
331,693.0367645447224
332,693.0417932102017
333,693.0460195599536
334,693.0493488022233
335,693.0516986461199
336,693.0529985974908
337,693.053189105333
338,693.0522205863413
339,693.0500523539048
340,693.0466514778516
341,693.0419916033844
342,693.0360517607712
343,693.0288151990536
344,693.0202682751959
345,693.0103994248348
346,692.9991982348797
347,692.986654634569
348,692.9727582203215
349,692.9574977293228
350,692.9408606771251
351,692.922833175777
352,692.9033999495499
353,692.8825445636041
354,692.8602498769023
355,692.8364987242132
356,692.8112748221206
357,692.7845638804489
358,692.7563548857764
359,692.7266415108942
360,692.6954235948203
361,692.6627086338008
362,692.6285132269155
363,692.5928644291336
364,692.555800973238
365,692.5173743252352
366,692.4776495381213
367,692.4367058708991
368,692.394637144384
369,692.3515518110181
370,692.3075727224293
371,692.2628365870006
372,692.2174931206571
373,692.1717039060031
374,692.1256409845101
375,692.0794852102935
376,692.0334243924513
377,691.9876512507176
378,691.942361210935
379,691.8977500729861
380,691.8540115912597
381,691.8113350131608
382,691.7699026228573
383,691.7298873355418
384,691.6914503841351
385,691.6547391392488
386,691.6198851066231
387,691.5870021517574
388,691.5561850026256
389,691.5275080734779
390,691.5010246375142
391,691.4767663606766
392,691.4547431988452
393,691.4349436570524
394,691.4173354087644
395,691.4018662723452
396,691.3884655377988
397,691.3770456278421
398,691.3675040634115
399,691.3597256877752
400,691.3535850895382
401,691.3489491559374
402,691.3456796843221
403,691.3436359795434
404,691.3426773662451
405,691.342665548254
406,691.3434667538748
407,691.3449536166252
408,691.3470067559915
409,691.3495160412684
410,691.3523815397426
411,691.355514163592
412,691.3588360359305
413,691.362280597213
414,691.3657924721214
415,691.3693271174998
416,691.3728502758139
417,691.376337264676
418,691.3797721374638
419,691.3831467502299
420,691.3864597671582
421,691.389715634512
422,691.3929235535646
423,691.3960964848969
424,691.3992502157695
425,691.4024025164961
426,691.4055724022138
427,691.4087795069427
428,691.4120435706349
429,691.4153840377732
430,691.418819765065
431,691.4223688313492
432,691.4260484337843
433,691.429874844821
434,691.4338634003118
435,691.4380284926502
436,691.4423835499352
437,691.4469409865007
438,691.4517121110161
439,691.4567069814
440,691.4619342051366
441,691.4674006963131
442,691.4731114106322
443,691.4790690841846
444,691.4852740027466
445,691.4917238280105
446,691.4984135054541
447,691.5053352740961
448,691.5124787908337
449,691.5198313730776
450,691.5273783548757
451,691.5351035439785
452,691.5429897602371
453,691.5510194299792
454,691.5591752072744
455,691.5674405914772
456,691.5758005108676
457,691.5842418437151
458,691.5927538496273
459,691.6013284857323
460,691.6099605853268
461,691.6186478824072
462,691.6273908745262
463,691.6361925279048
464,691.6450578404779
465,691.6539932876918
466,691.6630061802821
467,691.6721039630896
468,691.6812934816744
469,691.6905802413853
470,691.6999676815188
471,691.709456483754
472,691.7190439291071
473,691.7287233131366
474,691.7384834264295
475,691.7483081060896
476,691.7581758638061
477,691.768059597755
478,691.7779263977108
479,691.7877374523232
480,691.7974480642215
481,691.8070077755639
482,691.816360605752
483,691.8254454033034
484,691.8341963150795
485,691.8425433795319
486,691.8504132553707
487,691.857730098898
488,691.8644165989863
489,691.8703951691897
490,691.8755892856274
491,691.8799249508855
492,691.8833322599614
493,691.8857470430459
494,691.8871125579744
495,691.887381199435
496,691.8865161836766
497,691.8844931602865
498,691.8813016993269
499,691.876946604123
500,691.8714490083274
501,691.864847230513
502,691.8571973774355
503,691.8485737024962
504,691.8390687346721
505,691.8287931953952
506,691.8178757177747
507,691.8064623740798
508,691.794716005116
509,691.7828153337505
510,691.7709538391975
511,691.759338371213
512,691.7481874936747
513,691.7377295610847
514,691.7282005434881
515,691.7198416229027
516,691.7128965908352
517,691.7076090852123
518,691.704219714324
519,691.7029631213326
520,691.704065045566
521,691.7077394381383
522,691.7141856881337
523,691.7235860100861
524,691.7361030373813
525,691.7518776643467
526,691.7710271805902
527,691.7936437381921
528,691.8197931820557
529,691.8495142587169
530,691.8828182050299
531,691.919688709888
532,691.9600822403437
533,692.0039287258721
534,692.0511325976152
535,692.1015741801857
536,692.1551114303674
537,692.2115820098521
538,692.2708056681212
539,692.3325868961106
540,692.3967177931157
541,692.4629810741313
542,692.5311531380709
543,692.6010071194169
544,692.6723158523024
545,692.7448546820269
546,692.8184040639788
547,692.8927518970045
548,692.9676955493003
549,693.0430435482576
550,693.1186169192454
551,693.1942501715604
552,693.2697919418986
553,693.3451053141023
554,693.4200678365173
555,693.4945712575277
556,693.5685210018671
557,693.6418354178081
558,693.7144448340653
559,693.7862904693163
560,693.8573232344145
561,693.9275024595821
562,693.9967945710034
563,694.0651717380146
564,694.1326105141476
565,694.1990904998171
566,694.2645930590757
567,694.3291001255051
568,694.3925931297597
569,694.4550520727832
570,694.5164547586766
571,694.5767761946945
572,694.6359881628613
573,694.6940589643923
574,694.75095333271
575,694.806632504624
576,694.86105443284
577,694.914174116046
578,694.9659440175485
579,695.0163145434245
580,695.0652345562778
581,695.1126519063905
582,695.1585139647652
583,695.2027681437404
584,695.2453623939546
585,695.2862456710902
586,695.3253683683739
587,695.362682710776
588,695.398143108524
589,695.4317064729615
590,695.4633325030653
591,695.4929839513669
592,695.5206268730678
593,695.5462308544586
594,695.5697692102364
595,695.5912191372245
596,695.6105618144426
597,695.6277824436373
598,695.6428702287092
599,695.6558182986662
600,695.666623587847
601,695.6752866960146
602,695.681811755313
603,695.6862063304682
604,695.6884813748403
605,695.6886512583903
606,695.6867338742929
607,695.6827508212532
608,695.676727652109
609,695.6686941771126
610,695.6586848105428
611,695.6467389494832
612,695.6329013719782
613,695.6172226376494
614,695.5997594680175
615,695.5805750789215
616,695.5597394367327
617,695.5373294146885
618,695.5134288330445
619,695.4881283717099
620,695.4615253437355
621,695.4337233154354
622,695.4048315595155
623,695.3749643330709
624,695.3442399803723
625,695.312779868826
626,695.280707174303
627,695.2481455370522
628,695.2152176096636
629,695.1820435158235
630,695.1487392378532
631,695.1154149553258
632,695.0821733653796
633,695.0491080243054
634,695.0163017565167
635,694.983825179408
636,694.9517353906816
637,694.9200748595896
638,694.8888705566486
639,694.8581333486434
640,694.8278576780019
641,694.7980215394064
642,694.768586762723
643,694.7394996083851
644,694.7106916759708
645,694.6820811178923
646,694.6535741406298
647,694.6250667690572
648,694.5964468458833
649,694.5675962364857
650,694.538393206548
651,694.5087149334828
652,694.4784401037241
653,694.4474515408466
654,694.4156388065543
655,694.3829007162611
656,694.3491477112179
657,694.3143040304604
658,694.2783096305701
659,694.2411218115838
660,694.2027165236333
661,694.1630893471386
662,694.1222561526718
663,694.0802534510483
664,694.0371384429616
665,693.9929887758451
666,693.947902014289
667,693.901994827224
668,693.8554018915448
669,693.8082745126646
670,693.7607789705057
671,693.7130946119906
672,693.6654117224288
673,693.6179292142795
674,693.5708521726093
675,693.5243892952149
676,693.4787502652754
677,693.4341430959635
678,693.3907714876176
679,693.3488322388368
680,693.3085127558011
681,693.2699887092745
682,693.2334218912404
683,693.1989583180925
684,693.1667266151409
685,693.1368367031691
686,693.1093787979971
687,693.0844227307224
688,693.0620175963425
689,693.0421917366897
690,693.0249530577455
691,693.0102896725724
692,692.9981708515053
693,692.9885482516562
694,692.9813573875444
695,692.9765192946236
696,692.9739423315314
697,692.9735240681296
698,692.9751532122643
699,692.9787115324481
700,692.9840757340243
701,692.9911192463645
702,692.9997138820698
703,693.0097313363152
704,693.0210445039294
705,693.0335286018874
706,693.0470620933962
707,693.0615274146613
708,693.0768115074801
709,693.0928061628985
710,693.1094081848842
711,693.1265193884914
712,693.1440464546167
713,693.1619006715233
714,693.179997597829
715,693.1982566806468
716,693.2166008578816
717,693.2349561686642
718,693.253251393406
719,693.2714177451554
720,693.2893886327162
721,693.3070995096097
722,693.3244878135275
723,693.3414929931313
724,693.3580566134117
725,693.3741225249594
726,693.3896370771735
727,693.4045493547158
728,693.418811422534
729,693.4323785740677
730,693.4452095831186
731,693.4572669588732
732,693.4685171983582
733,693.4789310253897
734,693.4884836009123
735,693.4971546858189
736,693.5049287341919
737,693.5117948938519
738,693.5177468935915
739,693.5227828031299
740,693.5269046611864
741,693.5301179763297
742,693.5324311131623
743,693.5338545841485
744,693.5344002755595
745,693.5340806425661
746,693.5329079107294
747,693.5308933185934
748,693.5280464305674
749,693.524374542994
750,693.5198822009164
751,693.5145708392099
752,693.5084385580067
753,693.5014800366064
754,693.4936865829566
755,693.4850463106932
756,693.4755444344356
757,693.4651636738803
758,693.4538847539012
759,693.4416869806516
760,693.4285488668859
761,693.4144487788059
762,693.3993655829992
763,693.3832792818721
764,693.3661716350406
765,693.3480267709757
766,693.3288317979631
767,693.3085774249628
768,693.2872585995402
769,693.2648751624555
770,693.2414325103159
771,693.2169422521422
772,693.1914228433039
773,693.1649001796901
774,693.1374081350023
775,693.1089890239952
776,693.0796939731241
777,693.0495831759571
778,693.0187260042607
779,692.9872009404478
780,692.955095298038
781,692.9225047063123
782,692.8895323517195
783,692.856287987477
784,692.8228867387127
785,692.7894477385145
786,692.7560926300574
787,692.7229439671927
788,692.6901235472069
789,692.6577507158646
790,692.6259406915134
791,692.5948029577135
792,692.5644397728007
793,692.534944841489
794,692.5064021878324
795,692.4788852601639
796,692.4524562874994
797,692.4271658935123
798,692.4030529592761
799,692.3801447132764
800,692.3584570215863
801,692.337994853212
802,692.3187529012839
803,692.3007163458577
804,692.2838617470197
805,692.2681580576672
806,692.253567743845
807,692.2400479970017
808,692.2275520183347
809,692.2160303532166
810,692.2054322544401
811,692.1957070544873
812,692.1868055269796
813,692.1786812153723
814,692.1712917023709
815,692.1645997855809
816,692.1585745154191
817,692.1531920460488
818,692.1484362543198
819,692.1442990948705
820,692.1407806761338
821,692.137889056849
822,692.1356397741935
823,692.1340551237504
824,692.133163219862
825,692.1329968724256
826,692.1335923203366
827,692.1349878610093
828,692.1372224124264
829,692.1403340434142
830,692.1443585101013
831,692.1493278384904
832,692.155268991719
833,692.1622026555056
834,692.1701421677255
835,692.1790926098178
836,692.1890500712223
837,692.2000010954619
838,692.2119223181622
839,692.2247803110201
840,692.2385316475671
841,692.2531232030865
842,692.2684926909511
843,692.284569423162
844,692.3012752689513
845,692.3185257766695
846,692.3362314223338
847,692.3542989513086
848,692.3726327844604
849,692.3911364648251
850,692.4097141254433
851,692.4282719636542
852,692.4467197099698
853,692.4649720784937
854,692.4829501812923
855,692.5005828843177
856,692.5178080800586
857,692.5345738524351
858,692.5508395114783
859,692.5665764778828
860,692.5817689998682
861,692.5964146861651
862,692.6105248388736
863,692.6241245699402
864,692.6372526886493
865,692.6499613571798
866,692.6623155248191
867,692.6743921638767
868,692.6862793378056
869,692.6980751332586
870,692.709886483626
871,692.7218279044876
872,692.7340201543766
873,692.7465888285705
874,692.7596628894282
875,692.7733731347198
876,692.787850605764
877,692.8032249391755
878,692.8196226699398
879,692.8371655013206
880,692.8559685681505
881,692.8761387293631
882,692.8977729282744
883,692.92095665582
884,692.9457625483303
885,692.9722491512551
886,693.0004598808578
887,693.0304222119839
888,693.0621471106872
889,693.0956287207996
890,693.1308443087073
891,693.1677544700262
892,693.2063036007099
893,693.2464206302632
894,693.2880200061428
895,693.3310029069409
896,693.3752586500914
897,693.4206662524135
898,693.4670961018065
899,693.5144117038344
900,693.5624714732115
901,693.6111305437822
902,693.6602425696681
903,693.7096614856636
904,693.759243191526
905,693.8088471284024
906,693.8583377273185
907,693.9075857242069
908,693.9564693464
909,694.004875378481
910,694.0527001123089
911,694.099850180158
912,694.1462432630633
913,694.1918086597902
914,694.2364876980325
915,694.2802339716228
916,694.3230133951182
917,694.3648040745884
