acceleration,velocity,displacement
-0.002773124296175356,0.0,0.0
-0.0026786833730761813,-1.3629519173128843e-06,-3.407379793282211e-10
-0.0025907641742854916,-2.680313804153303e-06,-1.3515544096947678e-09
-0.00250833029773259,-3.955087422157823e-06,-3.0104047162725494e-09
-0.002430256237958878,-5.18973405608069e-06,-5.296610085832178e-09
-0.002355343300568282,-6.3861339407124805e-06,-8.19057708503047e-09
-0.00228233591968097,-7.545553745774793e-06,-1.1673499006652289e-08
-0.0022099381033765632,-8.668622251539177e-06,-1.5727043005980783e-08
-0.0021368297139453423,-9.755314205869653e-06,-2.033302712033299e-08
-0.0020616822702276176,-1.0804942201912894e-05,-2.5473091222278626e-08
-0.0019831739779974625,-1.1816156263969165e-05,-3.1128365838749143e-08
-0.0019000037415640553,-1.2786950693859544e-05,-3.727914257820632e-08
-0.0018109039632678988,-1.3714677620067533e-05,-4.390454965668809e-08
-0.0017146520083457678,-1.459606661297095e-05,-5.0982235714947706e-08
-0.0016100803174487488,-1.542724969441958e-05,-5.848806479179534e-08
-0.0014960852579768086,-1.620379108827597e-05,-6.639582498746923e-08
-0.0013716348563941447,-1.6920721116868706e-05,-7.46769530387554e-08
-0.0012357755162602203,-1.7572573710032298e-05,-8.330027674548065e-08
-0.0010876377360466824,-1.8153427023109022e-05,-9.223177692876598e-08
-0.0009264407695424061,-1.8656946649506294e-05,-1.0143437034691981e-07
-0.0007514961713786525,-1.9076430884736557e-05,-1.1086771473048053e-07
-0.0005622102442380995,-1.9404857488640744e-05,-1.2048803682382486e-07
-0.0003580855196062999,-1.9634931429601845e-05,-1.302479840533855e-07
-0.00013872150820375058,-1.9759133186554357e-05,-1.4009650020742455e-07
9.6184996026595e-05,-1.9769767314598646e-05,-1.499787253327128e-07
0.0003468397892490152,-1.9659011118279745e-05,-1.598359199409324e-07
0.0006133510915713322,-1.9418963398074657e-05,-1.69605413570021e-07
0.0008957291989549335,-1.904169332544309e-05,-1.7922057775090044e-07
0.0011938859150114397,-1.85192895469515e-05,-1.8861082346899909e-07
0.001507633874290317,-1.784390959962606e-05,-1.9770162325564348e-07
0.0018366860575764693,-1.7007829616659365e-05,-2.0641455805971484e-07
0.0021806559757808204,-1.6003494108320044e-05,-2.146673889909597e-07
0.0025390590872150457,-1.4823565342571077e-05,-2.2237415385368248e-07
0.0029113159721067894,-1.3460971577740619e-05,-2.294452880837604e-07
0.003296757636024899,-1.1908953175707697e-05,-2.357877692721225e-07
0.003694633111957848,-1.016110548871201e-05,-2.413052839382274e-07
0.004104119346009904,-8.211417374220073e-06,-2.4589841465396043e-07
0.004524333210369597,-6.054304235125198e-06,-2.4946484505629673e-07
0.004954345358605837,-3.68463459288134e-06,-2.518995797632984e-07
0.00539319548130659,-1.097749382903233e-06,-2.530951757572445e-07
0.005839908351969585,1.710526575415811e-06,-2.529419814591164e-07
0.0062935099470921045,4.743881150181234e-06,-2.5132837952771715e-07
0.006753042934024092,8.005519370460283e-06,-2.481410293975568e-07
0.007217580932292023,1.1498175337039312e-05,-2.432651057206819e-07
0.007686241119099934,1.52241308498873e-05,-2.3658452917395024e-07
0.008158194916918587,1.918523985889193e-05,-2.2798218649675544e-07
0.00863267662170152,2.3382957743546956e-05,-2.173401370961457e-07
0.009108989875558119,2.7818374367861866e-05,-2.045398040682935e-07
0.009586511877153921,3.2492249806039874e-05,-1.8946214802481805e-07
0.010064695208758292,3.740505157751793e-05,-1.719878226789286e-07
0.01054306717538151,4.255699217355288e-05,-1.519973117411609e-07
0.011021226595651967,4.794806561631125e-05,-1.2937104729369487e-07
0.011498838045562832,5.357808177661495e-05,-1.0398951044546333e-07
0.011975623647627096,5.9446697199912427e-05,-7.573331570133149e-08
0.012451352632222643,6.555344126987486e-05,-4.4483281083884666e-08
0.012925829054735497,7.18977366916144e-05,-1.012048659351235e-08
0.0133988781973479,7.847891350463525e-05,2.747367595555006e-08
0.013870332297878495,8.529621612844185e-05,6.841745836381933e-08
0.01434001630829284,9.234880327998469e-05,1.1282871321592596e-07
0.014807734361774834,9.963574094750161e-05,1.6082484927279754e-07
0.015273257520611701,0.00010715598891809825,2.125227817391975e-07
0.015736313234762017,0.00011490838160694168,2.680388743704575e-07
0.016196576807192088,0.0001228916041174302,3.2748887080155046e-07
0.016653665043130587,0.00013110416458001089,3.9098781297591074e-07
0.017107132151024784,0.00013954436387854973,4.586499450905509e-07
0.017556467877609883,0.0001482102638857084,5.305886020316154e-07
0.018001097820147832,0.00015709965531014782,6.069160818305794e-07
0.018440385861068755,0.00016621002623045197,6.877435022157294e-07
0.018873638671348433,0.00017553853236355627,7.731806418642315e-07
0.019300112168105718,0.0001850819700734198,8.633357674734755e-07
0.01971901966037969,0.00019483675303054115,9.583154482494657e-07
0.020129541231214097,0.0002047988932534396,1.058224359820461e-06
0.02053083380213791,0.0002149639870117776,1.1631650798867654e-06
0.0209220413777993,0.0002253272058067619,1.2732378780914003e-06
0.021302305133235878,0.00023588329243452068,1.388540502651721e-06
0.021670773186488072,0.0002466265620144517,1.5091679662639642e-06
0.022026610019237464,0.00025755090781588307,1.635212333721548e-06
0.02236900553806964,0.00026864981170520986,1.7667625136018212e-06
0.02269718372232513,0.00027991635902030855,1.9039040562832008e-06
0.02301041072261292,0.00029134325763154306,2.0467189604461636e-06
0.023308002200434635,0.00030292286086230495,2.1952854900696257e-06
0.023589329664668267,0.00031464719382858067,2.349678003742347e-06
0.023853825578343795,0.0003265079826393337,2.5099667978593254e-06
0.02410098708187001,0.00033849668580438716,2.6762179649702557e-06
0.024330378301777863,0.0003506045271502991,2.8484932682089275e-06
0.02454163135825922,0.0003628225295653084,3.0268500323878295e-06
0.024734446296609706,0.0003751415489790256,3.211341052023913e-06
0.024908590214468358,0.0003875523081067951,3.402014516295368e-06
0.02506389585082507,0.00040004542962311846,3.5989139507278465e-06
0.02520025986163256,0.00041261146855123287,3.8020781752714344e-06
0.025317640926128794,0.0004252409437481732,4.011541278346286e-06
0.025416057711836547,0.0004379243684076645,4.227332606385246e-06
0.02549558661615811,0.0004506522794896632,4.449476768359578e-06
0.025556359149620973,0.000463415265931108,4.677993654714771e-06
0.025598558843425264,0.00047620399542936954,4.912898470054891e-06
0.02562241762021662,0.00048900923954528,5.154201778798553e-06
0.025628211620532818,0.0005018218968554673,5.40190956289874e-06
0.025616256512228108,0.0005146330138886576,5.656023290584771e-06
0.025586902336503115,0.0005274338036008404,5.916539994957146e-06
0.025540527977398732,0.0005402156611793159,6.183452361152184e-06
0.025477535390777593,0.00055297017702136,6.456748820702353e-06
0.02539834379422404,0.0005656891468176104,6.736413651662095e-06
0.0253033840842164,0.0005783645787872206,7.022427083063303e-06
0.025193093772380805,0.0005909886982513699,7.31476540232295e-06
0.025067912691559394,0.000603553949867355,7.613401064352631e-06
0.024928279643974673,0.0006160529979512385,7.91830280130728e-06
0.024774630099300907,0.0006284787253870574,8.229435732141854e-06
0.02460739500337469,0.0006408242316627263,8.5467614714043e-06
0.024427000698851068,0.0006530828305882828,8.870238236967053e-06
0.024233869879199663,0.0006652480482327955,9.199820956672322e-06
0.024028423402798642,0.0006773136215532951,9.535461374118844e-06
0.023811082681533514,0.0006892734980743781,9.877108154025763e-06
0.023582272247440274,0.0007011218368066216,1.0224706987746013e-05
0.023342422054662988,0.0007128530103821473,1.0578200699543205e-05
0.023091969148064623,0.0007244616081828292,1.093752935418445e-05
0.022831358506476378,0.0007359424400964644,1.1302630366254273e-05
0.02256104307458161,0.0007472905404917289,1.167343861140132e-05
0.022281483177767493,0.0007585011720548162,1.2049886539537957e-05
0.02199314565205288,0.0007695698292622713,1.2431904289867229e-05
0.02169650309850825,0.0007804922414499115,1.2819419807545274e-05
0.021392033663764957,0.0007912643756404798,1.3212358961817873e-05
0.02108022165655687,0.0008018824394705603,1.3610645665595633e-05
0.02076155917077445,0.0008123428846773932,1.4014201996632621e-05
0.020436548740394852,0.0008226424116551855,1.4422948320715766e-05
0.020105706918055816,0.0008327779755697982,1.4836803417522013e-05
0.01976956854625892,0.0008427467944358768,1.5255684610023432e-05
0.019428691389668053,0.0008525463594198585,1.5679507898487367e-05
0.019083660741883297,0.0008621744474527464,1.610818810020552e-05
0.01873509361041487,0.0008716291360408209,1.654163899607891e-05
0.018383642086570593,0.0008809088199650673,1.6979773485080382e-05
0.01802999548766392,0.000890012229358626,1.7422503747411305e-05
0.01767488082211522,0.0008989384484360708,1.786974141685998e-05
0.017319061131330048,0.0009076869339244321,1.8321397762450103e-05
0.016963331370422056,0.0009162575320498702,1.8777383878943678e-05
0.01660851170486828,0.0009246504928186927,1.923761088516082e-05
0.016255438357983095,0.0009328664803344056,1.9701990128449092e-05
0.01590495237377764,0.0009409065780173457,2.017043339303703e-05
0.015557886819392517,0.0009487722878156383,2.0642853109495275e-05
0.015215053029209962,0.0009564655227777889,2.1119162562143633e-05
0.014877226508675347,0.0009639885926622602,2.1599276091003644e-05
0.014545133097783287,0.0009713441825638749,2.2083109284810177e-05
0.014219435951424636,0.0009785353248261768,2.257057916165769e-05
0.013900723839454785,0.0009855653647738967,2.306160433405771e-05
0.013589501237302112,0.0009924379210430859,2.3556105155511956e-05
0.013286180675330835,0.0009991568415212441,2.4054003846153038e-05
0.012991077788505775,0.0010057261561372034,2.455522459556765e-05
0.01270440939912881,0.0010121500279341121,2.505969364158548e-05
0.012426294786759497,0.0010184327039805842,2.5567339324564155e-05
0.012156760122277666,0.0010245784677078435,2.6078092117486263e-05
0.01189574592486321,0.0010305915942196288,2.6591884632968133e-05
0.011643117330843488,0.0010364763100335554,2.710865160903143e-05
0.011398676874774097,0.0010422367585849598,2.762832987618606e-05
0.011162179319328053,0.0010478769726334854,2.815085830899067e-05
0.010933347853551866,0.0010534008544267053,2.8676177765755717e-05
0.010711890802693493,0.0010588121640907667,2.9204231020385083e-05
0.010497517940266718,0.0010641145162765067,2.9734962690476903e-05
0.010289955571604309,0.0010693113846544744,3.0268319165709648e-05
0.010088959716470072,0.001074406113476493,3.080424854024239e-05
0.009894326894935026,0.0010794019351293442,3.1342700552393845e-05
0.009705902172126227,0.0010843019923961095,3.1883626534275205e-05
0.009523584231173438,0.0010891093639969344,3.242697937337347e-05
0.009347327326217642,0.0010938270918862821,3.2972713487344275e-05
0.00917714001579802,0.001098458208721786,3.352078481249629e-05
0.009013080589726795,0.0011030057638731672,3.407115080564503e-05
0.008855249127612952,0.0011074728463025022,3.462377045818895e-05
0.008703776250941394,0.0011118626026471409,3.5178604320426364e-05
0.008558808884413243,0.0011161782489309796,3.5735614533320894e-05
0.008420493641567047,0.0011204230745624746,3.629476486419426e-05
0.008288958655174357,0.0011246004376366599,3.6856020742244044e-05
0.00816429470838421,0.0011287137509775496,3.74193492893976e-05
0.00804653643125717,0.00113276645876246,3.79847193418326e-05
0.0079356442190489,0.0011367620039250364,3.855210145750447e-05
0.007831487481011404,0.0011407037868500516,3.9121467905198244e-05
0.0077338298441027645,0.0011445951161813302,3.969279263095609e-05
0.0076423169793713944,0.0011484391528871988,4.026605119822322e-05
0.007556467756733147,0.0011522388490712249,4.084122069871283e-05
0.007475669434065438,0.0011559968833689245,4.141827963182287e-05
0.00739917751025372,0.0011597155951050043,4.1997207751441346e-05
0.00732612068869119,0.0011633969196547405,4.2577985880131285e-05
0.007255511105723854,0.0011670423276033443,4.31605956919458e-05
0.007186259614913823,0.0011706527702835038,4.3745019466417514e-05
0.007117195558867624,0.0011742286340769492,4.433123981750763e-05
0.007047090193536611,0.0011777697055150502,4.491923940240563e-05
0.0069746828047787274,0.001181275148764629,4.550900061597555e-05
0.006898708554860135,0.0011847434966045386,4.610050527731784e-05
0.00681792715915753,0.001188172655533043,4.669373431535223e-05
0.0067311515819499625,0.0011915599252183197,4.728866746054007e-05
0.006637276053498591,0.0011949020321271818,4.7885282949876446e-05
0.006535302850352634,0.0011981951768531447,4.8483557252121525e-05
0.006424367424916158,0.001201435094421962,4.90834648199403e-05
0.006303761582144699,0.0012046171266737273,4.968497787521422e-05
0.006172954452124086,0.0012077363056822946,5.028806623330323e-05
0.006031611000443397,0.0012107874470454365,5.089269717148516e-05
0.005879607790230135,0.001213765251743105,5.1498835346182296e-05
0.005717045695088886,0.0012166644151144347,5.210644276289668e-05
0.005544259263367157,0.0012194797413540488,5.27154788020138e-05
0.005361822431908567,0.0012222062617778676,5.332590030279677e-05
0.005170550279692938,0.001224839354955768,5.393766170698018e-05
0.004971496537268047,0.0012273748666600083,5.455071526238412e-05
0.004765946668455679,0.0012298092274614393,5.516501128591448e-05
0.0045554065022904225,0.0012321395657541258,5.578049848421837e-05
0.004341586557413359,0.0012343638140190516,5.639712432916167e-05
0.004126382325750691,0.0012364808062398426,5.701483548422639e-05
0.003911850858052488,0.0012384903645357933,5.76335782769203e-05
0.0037001840327680483,0.0012403933732584986,5.825329921136888e-05
0.0034936789198294032,0.001242191838996648,5.887394551443266e-05
0.003294705700962943,0.001243888935151846,5.9495465707969786e-05
0.003105673682927354,0.0012454890299978185,6.01178101992572e-05
0.002928996021504932,0.0012469976974239265,6.074093188111264e-05
0.0027670538471012292,0.001248421709891078,6.136478673294138e-05
0.0026221605476248414,0.0012497690134897594,6.19893344137866e-05
0.0024965270097600635,0.0012510486853791057,6.261453883850381e-05
0.0023922286090260164,0.0012522708742838022,6.324036872841954e-05
0.002311174648336632,0.0012534467250981428,6.386679812826503e-05
0.00225508079205338,0.0012545882889582404,6.449380688177913e-05
0.0022254448645441967,0.0012557084203723898,6.512138105911178e-05
0.0022235262144751663,0.0012568206631421446,6.574951332999042e-05
0.002250328721883164,0.0012579391268762341,6.637820327749502e-05
0.002306587462680399,0.001259078355922375,6.700745764819468e-05
0.0023927590401388358,0.0012602531925480797,6.76372905353123e-05
0.0025090156362874336,0.0012614786362171863,6.826772349250361e-05
0.0026552429116122613,0.0012627697008541611,6.889878557677144e-05
0.0028310419469404656,0.0012641412720687992,6.953051332000218e-05
0.0030357354237844887,0.0012656079664114805,7.016295062962224e-05
0.003268378146031371,0.0012671839948039346,7.07961486199261e-05
0.003527771830362682,0.0012688830322980331,7.143016537670159e-05
0.00381248389695339,0.001270718096229862,7.206506565883356e-05
0.0041208698325203045,0.0012727014346622305,7.270092054155659e-05
0.0044510985738456495,0.001274844426763822,7.33378070069131e-05
0.004801180240172771,0.0012771574964673266,7.397580748772089e-05
0.005168995420198479,0.0012796500403824194,7.461500937193333e-05
0.005552325128821509,0.0012823303705196743,7.525550447465885e-05
0.005948880551996764,0.001285205671939879,7.589738848527373e-05
0.006356331826510691,0.0012882819750345059,7.654076039701732e-05
0.0067723353023577135,0.001291564141816723,7.718572192623013e-05
0.007194558922795318,0.0012950558653730111,7.783237692802756e-05
0.007620705507038459,0.0012987596814804695,7.848083081474093e-05
0.008048533854819202,0.001302676991320934,7.913118998294128e-05
0.008475877698535621,0.0013068080942092728,7.978356125432384e-05
0.008900662568377894,0.001311152229276001,8.043805133519516e-05
0.009320920604645025,0.0013157076250692567,8.109476629878148e-05
0.009734803285254006,0.0013204715560417315,8.175381109405923e-05
0.010140591971653798,0.0013254404048559584,8.241528908428365e-05
0.01053670613289747,0.0013306097293820963,8.307930161784316e-05
0.010921709099311894,0.0013359743331901486,8.374594763348623e-05
0.01129431122987328,0.0013415283382724448,8.441532330135187e-05
0.01165337043275914,0.0013472652586881029,8.508752170059201e-05
0.011997890023650258,0.0013531780738022053,8.576263253371458e-05
0.012327013943166279,0.0013592592997939093,8.644074187711361e-05
0.012640019430148591,0.0013655010581372382,8.712193196659639e-05
0.01293630738886558,0.0013718951398419916,8.78062810160912e-05
0.013215390849174774,0.0013784330644015018,8.849386306715207e-05
0.013476882014603347,0.0013851061326174464,8.91847478664068e-05
0.01372047838025009,0.0013919054727161598,8.98790007677402e-05
0.013945948308986749,0.001398822079388469,9.057668265576636e-05
0.014153116342244991,0.0014058468455512769,9.12778498870013e-05
0.014341848437143236,0.0014129705867461238,9.198255424507564e-05
0.014512037283285545,0.001420184058176231,9.269084290630623e-05
0.01466358785412857,0.0014274779644605847,9.340275841196543e-05
0.014796403364937705,0.0014348429622653511,9.41183386436469e-05
0.014910371822278362,0.001442269656062155,9.483761679822878e-05
0.01500535336724547,0.001449748587359536,9.556062135908421e-05
0.015081168652935502,0.0014572702178645813,9.628737606039023e-05
0.015137588540846719,0.0014648249071630268,9.701789984164714e-05
0.015174325416959893,0.0014724028856524785,9.775220678985101e-05
0.015191026419270155,0.001479994223611536,9.849030606716701e-05
0.015187268867853612,0.001487588797433317,9.923220182242822e-05
0.01516255820166863,0.0014951762542006976,9.997789308533673e-05
0.015116328719081168,0.001502745975930885,0.00010072737364286963
0.015047947363060959,0.0015102870449514205,0.0001014806318980902
0.014956720697664183,0.0015177882119666018,0.00010223765071231971
0.014841905130193133,0.0015252378684235662,0.00010299840723241725
0.014702720370620656,0.0015326240247987696,0.00010376287270572283
0.014538366072600305,0.0015399342964095748,0.00010453101228602492
0.014348041542767084,0.0015471558983134166,0.00010530278483470566
0.014130968335308561,0.0015542756507829355,0.00010607814272197975
0.013886415475959252,0.0015612799967357524,0.00010685703163385943
0.013613726979347351,0.001568155032349579,0.00010763939039113076
0.013312351228289504,0.0015748865519014882,0.00010842515078719353
0.012981871669819437,0.0015814601076260155,0.0001092142374520754
0.01262203813869617,0.0015878610850781445,0.00011000656775025145
0.012232797950626718,0.0015940747941004753,0.0001108020517200461
0.011814325775296439,0.001600086575031956,0.00011160059206232922
0.011367051269028249,0.001605881919293037,0.00011240208418591047
0.010891683498674575,0.0016114466029849628,0.00011320641631647996
0.0103892312404262,0.001616766831669738,0.00011401346967514363
0.009861018251459694,0.0016218293940427095,0.00011482311873157174
0.009308692630644669,0.0016266218217632356,0.00011563523153552323
0.008734229478845557,0.0016311325522906082,0.00011644967012903669
0.008139926274079742,0.0016353510912288395,0.00011726629103991656
0.0075283906498868755,0.0016392681704598313,0.00011808494585533873
0.006902520530501534,0.0016428758982549284,0.00011890548187251742
0.006265476812997192,0.0016461678975908031,0.00011972774282147885
0.005620649038541027,0.0016491394290536877,0.00012055156965313997
0.004971614778843087,0.0016517874950080337,0.0001213768013841554
0.004322093724672514,0.0016541109221339127,0.00012220327598844088
0.0036758976421365367,0.001656110419975615,0.00012303083132396826
0.003036877458915989,0.0016577886137508781,0.00012385930608239989
0.002408868775204326,0.0016591500503094082,0.00012468854074841495
0.001795637043310263,0.0016602011767640368,0.00012551837855518332
0.0012008235036850999,0.0016609502919007857,0.00012634866642234952
0.0006278927584813125,0.0016614074709663273,0.0001271792558630663
8.008272746796328e-05,0.0016615844648378145,0.00012801000384701734
-0.0004396422588682707,0.0016614945749549644,0.00012884077360696554
