frame_number,force
0,738.5929000067429
1,738.5477670835563
2,738.5027823739124
3,738.4580929288284
4,738.4138434909539
5,738.3701753813959
6,738.3272254338461
7,738.2851249889677
8,738.2439989601344
9,738.2039649796333
10,738.1651326326322
11,738.1276027848812
12,738.0914670092293
13,738.0568071151748
14,738.0236947845684
15,737.992191315306
16,737.9623474733372
17,737.9342034512147
18,737.9077889286988
19,737.8831232284782
20,737.8602155590336
21,737.8390653374438
22,737.8196625866482
23,737.8019884030591
24,737.7860154907315
25,737.7717087576448
26,737.7590259684338
27,737.7479184463838
28,737.7383318160493
29,737.7302067771627
30,737.7234799009467
31,737.7180844409567
32,737.713951151167
33,737.7110091038634
34,737.7091864996468
35,737.7084114620621
36,737.7086128098248
37,737.7097207999127
38,737.7116678351916
39,737.7143891311905
40,737.7178233378241
41,737.7219131125075
42,737.7266056410135
43,737.7318531019365
44,737.7376130700708
45,737.7438488538063
46,737.750529762308
47,737.7576312999972
48,737.7651352884225
49,737.773029918422
50,737.7813097378072
51,737.7899755810041
52,737.7990344471533
53,737.8084993328205
54,737.8183890253206
55,737.8287278623312
56,737.8395454622863
57,737.8508764281801
58,737.8627600256436
59,737.8752398347945
60,737.8883633741422
61,737.9021816936665
62,737.9167489334721
63,737.9321218444436
64,737.9483592680098
65,737.9655215733917
66,737.9836700526587
67,738.0028662762866
68,738.0231714142295
69,738.0446455297412
70,738.0673468556585
71,738.0913310653867
72,738.1166505524727
73,738.1433537328261
74,738.1714843827543
75,738.2010810248075
76,738.2321763723181
77,738.2647968423137
78,738.2989621452198
79,738.3346849585316
80,738.3719706899572
81,738.4108173328523
82,738.4512154133356
83,738.4931480252894
84,738.5365909473767
85,738.5815128352692
86,738.6278754818145
87,738.6756341371852
88,738.7247378801229
89,738.7751300308147
90,738.826748596393
91,738.8795267417107
92,738.9333932803773
93,738.9882731831319
94,739.0440881018877
95,739.1007569081685
96,739.1581962439863
97,739.2163210812945
98,739.2750452835933
99,739.334282161337
100,739.3939450123237
101,739.4539476392799
102,739.5142048390402
103,739.5746328603021
104,739.6351498287869
105,739.6956761390246
106,739.7561348113136
107,739.8164518116016
108,739.876556331634
109,739.9363810266628
110,739.9958622082306
111,740.0549399899204
112,740.1135583844002
113,740.1716653506226
114,740.229212790887
115,740.2861564986889
116,740.3424560594992
117,740.3980747074039
118,740.4529791408687
119,740.5071393011339
120,740.5605281170449
121,740.6131212202248
122,740.6648966342183
123,740.7158344408766
124,740.7659164270519
125,740.8151257145945
126,740.8634463767672
127,740.9108630449335
128,740.9573605108966
129,741.0029233319934
130,741.0475354470136
131,741.0911798108682
132,741.1338380551772
133,741.1754901812217
134,741.2161142911804
135,741.2556863632226
136,741.294180075981
137,741.3315666880861
138,741.367814978076
139,741.4028912482955
140,741.4367593934968
141,741.4693810318113
142,741.500715693592
143,741.530721062523
144,741.5593532627906
145,741.586567185309
146,741.6123168448916
147,741.6365557595984
148,741.6592373440039
149,741.6803153096156
150,741.6997440672114
151,741.7174791268018
152,741.7334774914473
153,741.7476980417713
154,741.760101908849
155,741.7706528339372
156,741.7793175139902
157,741.7860659324069
158,741.7908716751849
159,741.7937122331626
160,741.7945692907462
161,741.7934290008003
162,741.7902822452311
163,741.7851248816039
164,741.7779579771312
165,741.7687880314527
166,741.7576271886675
167,741.7444934377664
168,741.729410799504
169,741.7124094969926
170,741.6935261070056
171,741.6728036892674
172,741.6502918918013
173,741.6260470313582
174,741.6001321485952
175,741.5726170377767
176,741.5435782504584
177,741.5130990721908
178,741.481269470797
179,741.4481860142711
180,741.4139517559603
181,741.3786760845919
182,741.3424745368134
183,741.3054685699635
184,741.2677852925675
185,741.2295571496487
186,741.190921559846
187,741.1520205018423
188,741.1130000486706
189,741.0740098496339
190,741.035202560463
191,740.9967332229456
192,740.9587585959893
193,740.9214364410226
194,740.8849247652395
195,740.849381026125
196,740.8149613005753
197,740.7818194226212
198,740.7501060955509
199,740.7199679866507
200,740.6915468151086
201,740.66497844515
202,740.6403919966532
203,740.6179089844069
204,740.5976424955047
205,740.5796964129208
206,740.5641646925216
207,740.5511307007698
208,740.54066662098
209,740.5328329365482
210,740.5276779995903
211,740.5252376927457
212,740.5255351905296
213,740.5285808244489
214,740.5343720534185
215,740.5428935385659
216,740.5541173196981
217,740.5680030891697
218,740.58449855729
219,740.6035399018762
220,740.6250522934812
221,740.6489504873331
222,740.6751394729085
223,740.7035151720147
224,740.7339651762115
225,740.7663695146379
226,740.8006014439342
227,740.8365282526742
228,740.8740120731962
229,740.9129106941994
230,740.9530783685518
231,740.9943666126264
232,741.0366249953627
233,741.0797019160868
234,741.1234453695374
235,741.1677036951164
236,741.212326305729
237,741.2571643898948
238,741.3020715792784
239,741.3469045728972
240,741.3915237095523
241,741.4357934815863
242,741.4795829853641
243,741.5227663061223
244,741.5652228368501
245,741.6068375329562
246,741.6475011064297
247,741.687110164229
248,741.7255672954317
249,741.7627811110486
250,741.7986662402708
251,741.8331432873393
252,741.8661387535957
253,741.89758492926
254,741.9274197594902
255,741.9555866897952
256,741.9820344968058
257,742.0067171112287
258,742.0295934401886
259,742.0506271961452
260,742.0697867391962
261,742.0870449389857
262,742.1023790617909
263,742.1157706876288
264,742.1272056609233
265,742.1366740759307
266,742.1441702951186
267,742.1496929961789
268,742.1532452423197
269,742.154834570739
270,742.154473094813
271,742.1521776157783
272,742.1479697395492
273,742.1418759941591
274,742.133927943509
275,742.124162293717
276,742.112620988772
277,742.0993512914708
278,742.084405843452
279,742.0678426954215
280,742.049725297058
281,742.0301224368862
282,742.0091081254405
283,741.9867614188628
284,741.9631661833528
285,741.9384108032214
286,741.9125878367886
287,741.8857936250768
288,741.858127858252
289,741.8296931041897
290,741.8005943026576
291,741.7709382279485
292,741.7408329228334
293,741.7103871074054
294,741.6797095673145
295,741.6489085267763
296,741.6180910126559
297,741.5873622171406
298,741.5568248678591
299,741.5265786150648
300,741.4967194449574
301,741.467339126434
302,741.438524696332
303,741.4103579864383
304,741.382915194413
305,741.3562664998809
306,741.330475725942
307,741.3056000454457
308,741.281689730709
309,741.2587879448583
310,741.2369305727652
311,741.2161460900542
312,741.1964554698235
313,741.1778721279077
314,741.1604019082135
315,741.1440431098645
316,741.1287865578837
317,741.1146157191871
318,741.1015068656363
319,741.0894292854583
320,741.0783455434911
321,741.0682117898557
322,741.0589781159199
323,741.0505889553824
324,741.0429835268184
325,741.0360963128264
326,741.0298575706748
327,741.024193869669
328,741.0190286504622
329,741.0142828013057
330,741.0098752465367
331,741.005723543405
332,741.0017444837389
333,740.9978546964667
334,740.9939712461475
335,740.9900122219804
336,740.9858973113836
337,740.9815483523021
338,740.9768898591204
339,740.9718495180787
340,740.9663586485942
341,740.960352626496
342,740.9537712642353
343,740.9465591423425
344,740.9386658861412
345,740.9300463821638
346,740.9206609298864
347,740.910475326279
348,740.8994608832238
349,740.8875943808719
350,740.8748579627111
351,740.8612389794113
352,740.846729788129
353,740.8313275128354
354,740.8150337704549
355,740.7978543672958
356,740.7797989698374
357,740.7608807530374
358,740.7411160281451
359,740.7205238511145
360,740.6991256127998
361,740.6769446134425
362,740.6540056262359
363,740.6303344573417
364,740.6059575116282
365,740.5809013734495
366,740.5551924096113
367,740.528856398151
368,740.5019181832988
369,740.4744013551059
370,740.4463279520156
371,740.4177181857071
372,740.3885901892166
373,740.3589597909053
374,740.3288403178326
375,740.298242432428
376,740.267174006243
377,740.2356400342763
378,740.2036425931896
379,740.171180846809
380,740.1382511022596
381,740.1048469193255
382,740.0709592739645
383,740.0365767746827
384,740.0016859284099
385,739.9662714512958
386,739.9303166196989
387,739.8938036570587
388,739.8567141524946
389,739.8190295064824
390,739.7807313982421
391,739.7418022692315
392,739.7022258174848
393,739.6619874978791
394,739.6210750231583
395,739.579478859709
396,739.5371927111092
397,739.4942139817
398,739.4505442118086
399,739.4061894756433
400,739.3611607325439
401,739.315474122911
402,739.2691512019776
403,739.222219107001
404,739.174710655394
405,739.1266643723627
406,739.0781244472196
407,739.0291406184659
408,738.9797679895692
409,738.9300667801051
410,738.8801020198215
411,738.8299431951322
412,738.7796638580676
413,738.7293412071931
414,738.6790556491138
415,738.6288903482197
416,738.5789307712027
417,738.5292642315528
418,738.4799794378473
419,738.4311660483233
420,738.3829142329021
421,738.3353142424497
422,738.2884559835431
423,738.242428595471
424,738.1973200251764
425,738.1532165959733
426,738.1102025672105
427,738.0683596840207
428,738.0277667181609
429,737.9884990023643
430,737.9506279614799
431,737.9142206440705
432,737.8793392584199
433,737.84604071753
434,737.8143761986761
435,737.7843907240506
436,737.7561227696176
437,737.7296039094633
438,737.7048585027642
439,737.6819034303057
440,737.6607478874778
441,737.6413932406214
442,737.6238329530668
443,737.6080525858799
444,737.5940298762623
445,737.5817348939452
446,737.5711302730768
447,737.5621715142621
448,737.5548073489772
449,737.5489801570177
450,737.5446264270538
451,737.5416772504188
452,737.540058838694
453,737.5396930567273
454,737.5404979646243
455,737.5423883645697
456,737.5452763502865
457,737.5490718578786
458,737.5536832166831
459,737.5590176981353
460,737.5649820602772
461,737.5714830857748
462,737.5784281118572
463,737.5857255507884
464,737.5932853989074
465,737.6010197309971
466,737.6088431751647
467,737.6166733621833
468,737.6244313431814
469,737.6320419709047
470,737.6394342417489
471,737.6465415972738
472,737.6533021848849
473,737.6596590785641
474,737.6655604621072
475,737.6709597784047
476,737.6758158481415
477,737.6800929601761
478,737.6837609347075
479,737.6867951597202
480,737.689176601057
481,737.690891786487
482,737.6919327641742
483,737.6922970360046
484,737.6919874664015
485,737.6910121677199
486,737.6893843639863
487,737.6871222354038
488,737.6842487463333
489,737.680791459132
490,737.6767823352674
491,737.6722575239091
492,737.6672571371834
493,737.6618250106163
494,737.6560084469842
495,737.6498579418582
496,737.6434268898263
497,737.6367712717984
498,737.6299493255211
499,737.6230212025683
500,737.6160486151597
501,737.6090944753705
502,737.602222528145
503,737.5954969785682
504,737.5889821133975
505,737.5827419169977
506,737.5768396826797
507,737.5713376220673
508,737.5662964770625
509,737.5617751403921
510,737.5578302910847
511,737.554516050679
512,737.5518836649496
513,737.5499812148456
514,737.5488533594113
515,737.5485411127628
516,737.5490816567279
517,737.5505081902626
518,737.5528498160089
519,737.5561314633627
520,737.5603738464496
521,737.5655934547337
522,737.5718025736188
523,737.5790093322597
524,737.5872177758495
525,737.5964279600792
526,737.6066360663035
527,737.6178345367405
528,737.6300122293043
529,737.6431545915262
530,737.6572438527714
531,737.6722592335856
532,737.6881771703856
533,737.7049715531263
534,737.722613973301
535,737.7410739795071
536,737.7603193375529
537,737.7803162918466
538,737.8010298249592
539,737.8224239129175
540,737.8444617746225
541,737.8671061143365
542,737.8903193561655
543,737.9140638689938
544,737.9383021798739
545,737.9629971738442
546,737.9881122785592
547,738.013611632635
548,738.039460237029
549,738.0656240889977
550,738.0920702981103
551,738.1187671836955
552,738.1456843537043
553,738.1727927666143
554,738.2000647800959
555,738.2274741916873
556,738.2549962769028
557,738.2826078290494
558,738.3102872033752
559,738.3380143670331
560,738.3657709560304
561,738.3935403401591
562,738.4213076959011
563,738.4490600853032
564,738.47678653677
565,738.5044781227648
566,738.5321280298464
567,738.5597316175424
568,738.5872864633781
569,738.6147923915704
570,738.6422514828979
571,738.6696680638084
572,738.6970486743348
573,738.7244020165142
574,738.7517388869151
575,738.779072097759
576,738.8064163909477
577,738.8337883486774
578,738.8612063036328
579,738.8886902506772
580,738.9162617602938
581,738.9439438922736
582,738.9717611071204
583,738.9997391725357
584,739.0279050625659
585,739.0562868468319
586,739.0849135666388
587,739.1138150940892
588,739.1430219699323
589,739.17256521598
590,739.2024761187716
591,739.2327859830407
592,739.2635258562746
593,739.2947262285886
594,739.3264167142095
595,739.358625721486
596,739.3913801179249
597,739.4247048961854
598,739.4586228466627
599,739.4931542422217
600,739.5283165410273
601,739.5641241142881
602,739.6005880063149
603,739.6377157336209
604,739.6755111279066
605,739.7139742255217
606,739.7531012040936
607,739.7928843656601
608,739.8333121649202
609,739.8743692812031
610,739.9160367333554
611,739.9582920374584
612,740.0011094076038
613,740.0444599996171
614,740.0883121964722
615,740.1326319320904
616,740.1773830476371
617,740.2225276723616
618,740.2680266203492
619,740.3138397951338
620,740.3599265949046
621,740.4062463111935
622,740.4527585135389
623,740.4994234123697
624,740.5462021927855
625,740.5930573129382
626,740.6399527618352
627,740.6868542723255
628,740.7337294859886
629,740.7805480679782
630,740.827281771718
631,740.873904455514
632,740.9203920552048
633,740.9667225185051
634,741.0128757074875
635,741.0588332757877
636,741.1045785267197
637,741.1500962575985
638,741.1953725943372
639,741.2403948192498
640,741.2851511944192
641,741.3296307830288
642,741.37382327132
643,741.4177187935467
644,741.4613077610454
645,741.5045806950031
646,741.5475280621433
647,741.5901401142321
648,741.6324067352626
649,741.6743173028204
650,741.7158605714875
651,741.7570245862304
652,741.7977966329474
653,741.838163232083
654,741.8781101796699
655,741.9176226383069
656,741.9566852782028
657,741.9952824656046
658,742.0333984933377
659,742.0710178464741
660,742.1081254951281
661,742.1447072051803
662,742.1807498559226
663,742.2162417519402
664,742.2511729160469
665,742.2855353509765
666,742.3193232592852
667,742.3525332132243
668,742.3851642692473
669,742.4172180250106
670,742.4486986193957
671,742.4796126778127
672,742.5099692062087
673,742.5397794383027
674,742.569056641523
675,742.5978158875503
676,742.6260737934127
677,742.6538482395036
678,742.6811580722666
679,742.708022801134
680,742.7344623004948
681,742.7604965274068
682,742.7861452645016
683,742.8114278953469
684,742.8363632169799
685,742.8609692920984
686,742.8852633417093
687,742.9092616774354
688,742.9329796706837
689,742.956431753599
690,742.9796314447806
691,743.0025913916976
692,743.025323421743
693,743.0478385947353
694,743.0701472509464
695,743.0922590499063
696,743.1141829961673
697,743.1359274492763
698,743.1575001167063
699,743.178908030241
700,743.2001575076264
701,743.2212541016642
702,743.242202538439
703,743.2630066457199
704,743.2836692724343
705,743.3041922004319
706,743.324576050085
707,743.3448201815501
708,743.3649225941463
709,743.3848798273766
710,743.4046868679683
711,743.4243370672668
712,743.4438220722657
713,743.4631317718313
714,743.4822542575597
715,743.5011757966396
716,743.519880813038
717,743.538351873859
718,743.5565696793607
719,743.5745130567241
720,743.5921589585871
721,743.609482467582
722,743.6264568080172
723,743.6430533657442
724,743.6592417172141
725,743.6749896686578
726,743.6902633061619
727,743.7050270571513
728,743.7192437634362
729,743.7328747657294
730,743.7458799998018
731,743.7582181054602
732,743.7698465509004
733,743.7807217760869
734,743.7907993593484
735,743.8000342114304
736,743.808380800861
737,743.8157934135347
738,743.8222264477782
739,743.8276347439431
740,743.8319739454463
741,743.8352008868882
742,743.8372740045102
743,743.8381537640521
744,743.837803100401
745,743.8361878625434
746,743.8332772570486
747,743.8290442840809
748,743.8234661613872
749,743.8165247330073
750,743.8082068601115
751,743.7985047914743
752,743.7874165109453
753,743.7749460588998
754,743.7611038238668
755,743.7459067993583
756,743.7293787999427
757,743.7115506304442
758,743.692460202812
759,743.6721525961995
760,743.6506800568686
761,743.6281019358015
762,743.6044845631425
763,743.579901059328
764,743.5544310830859
765,743.5281605170944
766,743.5011810931965
767,743.4735899602848
768,743.4454891991493
769,743.4169852898697
770,743.3881885383656
771,743.3592124686924
772,743.3301731865396
773,743.3011887182445
774,743.2723783296319
775,743.2438618301065
776,743.2157588685238
777,743.1881882274505
778,743.161267121283
779,743.1351105017794
780,743.1098303728171
781,743.0855351158336
782,743.0623288290715
783,743.0403106864576
784,743.0195743237379
785,743.000207259444
786,742.9822903572797
787,742.9658973357491
788,742.9510943302538
789,742.937939511643
790,742.9264827630931
791,742.9167654147835
792,742.9088200337821
793,742.9026702650696
794,742.8983307188951
795,742.8958068999958
796,742.8950951757198
797,742.8961827822221
798,742.8990478699736
799,742.9036595915084
800,742.9099782354159
801,742.9179554107493
802,742.9275342853549
803,742.9386498808263
804,742.9512294262421
805,742.9651927721436
806,742.9804528648833
807,742.996916279743
808,743.014483809638
809,743.0330511052813
810,743.0525093625608
811,743.0727460529988
812,743.0936456924195
813,743.1150906408557
814,743.1369619239407
815,743.1591400637896
816,743.1815059064977
817,743.2039414340079
818,743.2263305496974
819,743.2485598288919
820,743.270519227427
821,743.2921027436862
822,743.3132090320349
823,743.3337419673549
824,743.3536111609592
825,743.3727324280527
826,743.3910282069196
827,743.408427930489
828,743.4248683514601
829,743.4402938224297
830,743.4546565326956
831,743.4679167038013
832,743.4800427460887
833,743.4910113782229
834,743.5008077110743
835,743.5094252969441
836,743.5168661447894
837,743.5231407011794
838,743.5282677947461
839,743.5322745394732
840,743.5351961905045
841,743.5370759460903
842,743.5379646907106
843,743.5379206766596
844,743.5370091436733
845,743.5353018780198
846,743.5328767139038
847,743.5298169813852
848,743.5262109063914
849,743.522150969613
850,743.5177332318426
851,743.5130566333736
852,743.5082222743154
853,743.5033326814967
854,743.498491066896
855,743.4938005828392
856,743.4893635802637
857,743.4852808773236
858,743.4816510456874
859,743.4785697209256
860,743.4761289419774
861,743.4744165236019
862,743.4735154654718
863,743.4735034022398
864,743.4744521002839
865,743.4764270082513
866,743.4794868690462
867,743.4836833999204
868,743.4890610450964
869,743.4956568029571
870,743.5035001280867
871,743.5126129068657
872,743.5230095027903
873,743.5346968640147
874,743.5476746821902
875,743.5619355902563
876,743.5774653880466
877,743.5942432873222
878,743.6122421705657
879,743.6314288600802
880,743.6517643961671
881,743.6732043253976
882,743.6956990015652
883,743.7191939022614
884,743.7436299632444
885,743.768943931416
886,743.7950687361467
887,743.8219338784414
888,743.8494658376177
889,743.8775884949846
890,743.906223573028
891,743.9352910873588
892,743.9647098082588
893,743.9943977296294
894,744.0242725447263
895,744.0542521289942
896,744.084255030158
897,744.1142009647866
898,744.1440113191917
899,744.1736096510098
900,744.2029221864225
901,744.2318783066758
902,744.2604110162857
903,744.2884573845657
904,744.3159589526703
905,744.3428621002396
906,744.3691183679381
907,744.3946847336505
908,744.4195238404154
909,744.4436041736003
910,744.4669001840759
911,744.4893923540934
912,744.5110672035422
913,744.5319172358988
914,744.5519408248556
915,744.5711420441314
916,744.589530444521
917,744.6071207837059
