frame_number,force
0,778.4622708544259
1,778.554685057171
2,778.6494892015786
3,778.7465049997273
4,778.8455440896892
5,778.9464091103074
6,779.0488948114436
7,779.1527891890496
8,779.2578746361826
9,779.3639291019635
10,779.4707272502545
11,779.5780416091862
12,779.6856437024701
13,779.7933051538618
14,779.9007987568599
15,780.007899502467
16,780.1143855586195
17,780.2200391958258
18,780.324647654671
19,780.4280039519682
20,780.5299076230947
21,780.6301653980945
22,780.7285918085498
23,780.8250097216834
24,780.9192507985928
25,781.0111558754841
26,781.1005752698821
27,781.1873690169558
28,781.2714070433419
29,781.3525692867356
30,781.4307457690662
31,781.5058366297824
32,781.5777521244927
33,781.6464125936606
34,781.7117484061021
35,781.773699881985
36,781.8322171995623
37,781.8872602893941
38,781.9387987197184
39,781.9868115766728
40,782.0312873424767
41,782.072223772869
42,782.1096277724095
43,782.1435152638887
44,782.1739110470704
45,782.2008486422365
46,782.2243701146666
47,782.2445258764915
48,782.2613744623952
49,782.2749822761589
50,782.2854233065111
51,782.2927788128067
52,782.2971369827671
53,782.2985925654278
54,782.297246483065
55,782.2932054270126
56,782.2865814438817
57,782.2774915200265
58,782.2660571725851
59,782.2524040548612
60,782.2366615821385
61,782.2189625813747
62,782.1994429650723
63,782.1782414263448
64,782.155499149188
65,782.1313595259479
66,782.1059678736295
67,782.0794711417127
68,782.0520176054506
69,782.0237565394239
70,781.9948378665403
71,781.9654117784647
72,781.9356283251269
73,781.9056369731297
74,781.8755861347428
75,781.8456226703715
76,781.8158913684928
77,781.7865344087669
78,781.7576908163239
79,781.729495917092
80,781.7020808045722
81,781.6755718275928
82,781.6500901069068
83,781.6257510866561
84,781.6026641251713
85,781.5809321287682
86,781.5606512321455
87,781.5419105288389
88,781.5247918539195
89,781.5093696187291
90,781.4957106951837
91,781.4838743462693
92,781.4739121997465
93,781.465868262805
94,781.4597789758324
95,781.4556733035478
96,781.4535728615981
97,781.4534920764106
98,781.4554383759645
99,781.4594124092881
100,781.4654082924916
101,781.4734138786148
102,781.483411047585
103,781.495376011393
104,781.5092796284631
105,781.5250877207652
106,781.5427613883593
107,781.5622573189191
108,781.5835280931043
109,781.6065224885643
110,781.6311857848306
111,781.6574600689528
112,781.6852845389326
113,781.7145957998995
114,781.7453281469444
115,781.7774138286154
116,781.810783286318
117,781.8453653669721
118,781.881087508483
119,781.9178758990791
120,781.9556556120481
121,781.9943507172112
122,782.0338843703066
123,782.0741788818372
124,782.1151557679747
125,782.1567357873835
126,782.1988389686871
127,782.2413846335085
128,782.2842914198842
129,782.3274773107304
130,782.3708596718573
131,782.414355303742
132,782.4578805110332
133,782.5013511937605
134,782.5446829642965
135,782.5877912938307
136,782.6305916911218
137,782.6729999145864
138,782.7149322165803
139,782.756305616414
140,782.7970381967259
141,782.8370494168176
142,782.8762604362629
143,782.9145944418685
144,782.9519769706343
145,782.9883362211016
146,783.0236033456391
147,783.0577127167269
148,783.090602161122
149,783.1222131569535
150,783.1524909903233
151,783.1813848698412
152,783.2088479994877
153,783.2348376119153
154,783.2593149656677
155,783.2822453110155
156,783.3035978303257
157,783.3233455598523
158,783.3414653000646
159,783.3579375210224
160,783.3727462683828
161,783.3858790750036
162,783.3973268828349
163,783.4070839792126
164,783.4151479504482
165,783.4215196542311
166,783.4262032116845
167,783.4292060200867
168,783.4305387873542
169,783.4302155881675
170,783.428253938909
171,783.4246748854347
172,783.4195030954239
173,783.4127669462115
174,783.4044985993
175,783.3947340536422
176,783.3835131709058
177,783.3708796673084
178,783.3568810684167
179,783.34156862546
180,783.3249971937493
181,783.3072250754497
182,783.2883138302783
183,783.2683280584472
184,783.2473351597209
185,783.2254050707666
186,783.2026099811867
187,783.1790240281023
188,783.1547229699275
189,783.1297838408174
190,783.1042845874405
191,783.0783036898752
192,783.0519197692878
193,783.0252111861439
194,782.9982556329381
195,782.9711297246171
196,782.9439085889298
197,782.9166654589293
198,782.8894712712221
199,782.8623942758999
200,782.8354996662522
201,782.8088492375272
202,782.7825010843105
203,782.7565093459295
204,782.7309240083464
205,782.705790768655
206,782.6811509645877
207,782.6570415672177
208,782.633495231173
209,782.6105403937332
210,782.5882014126796
211,782.5664987332325
212,782.54544907669
213,782.5250656462973
214,782.5053583480224
215,782.4863340248193
216,782.4679967029507
217,782.4503478482297
218,782.433386628564
219,782.4171101771663
220,782.4015138489838
221,782.3865914621045
222,782.3723355163836
223,782.3587373829889
224,782.3457874604261
225,782.3334752943459
226,782.3217896596441
227,782.3107186038566
228,782.3002494509958
229,782.2903687653512
230,782.2810622756252
231,782.2723147608807
232,782.2641099009779
233,782.2564300955135
234,782.2492562566263
235,782.2425675820824
236,782.2363413155467
237,782.2305525010098
238,782.2251737382884
239,782.220174946513
240,782.2155231424722
241,782.2111822405235
242,782.2071128805306
243,782.2032722898259
244,782.1996141842006
245,782.1960887112222
246,782.1926424371175
247,782.1892183768286
248,782.1857560662323
249,782.1821916758479
250,782.1784581659928
251,782.1744854836866
252,782.1702008014685
253,782.1655287978148
254,782.1603919782567
255,782.1547110359008
256,782.1484052500907
257,782.1413929222612
258,782.1335918479404
259,782.1249198226773
260,782.115295177377
261,782.1046373357202
262,782.0928673838134
263,782.0799086406288
264,782.0656872173428
265,782.0501325542098
266,782.0331779250258
267,782.0147609015593
268,781.9948237731409
269,781.9733139190653
270,781.9501841329235
271,781.9253928985612
272,781.8989046178167
273,781.8706897913855
274,781.8407251562029
275,781.8089937848144
276,781.7754851534004
277,781.7401951851165
278,781.7031262744366
279,781.6642872965697
280,781.6236936041485
281,781.5813670115369
282,781.5373357653516
283,781.4916344983145
284,781.444304162775
285,781.3953919403514
286,781.3449511248231
287,781.2930409761829
288,781.2397265445356
289,781.185078463343
290,781.1291727121649
291,781.0720903492754
292,781.0139172142998
293,780.9547436005536
294,780.894663896348
295,780.8337761944757
296,780.772181869561
297,780.7099851237217
298,780.6472925017471
299,780.5842123777503
300,780.5208544160369
301,780.4573290096373
302,780.393746700627
303,780.3302175871956
304,780.2668507235387
305,780.2037535199136
306,780.1410311514484
307,780.078785985169
308,780.0171170348207
309,779.9561194521777
310,779.8958840617945
311,779.8364969442227
312,779.778039071366
313,779.7205859967872
314,779.6642076026554
315,779.6089679032431
316,779.5549249031395
317,779.502130507538
318,779.450630482169
319,779.400464461052
320,779.3516660005708
321,779.3042626782136
322,779.2582762338094
323,779.2137227505436
324,779.1706128724906
325,779.1289520544615
326,779.0887408385748
327,779.0499751509317
328,779.0126466121136
329,778.9767428568858
330,778.942247860504
331,778.9091422705444
332,778.8774037439557
333,778.8470072890493
334,778.8179256116067
335,778.7901294637537
336,778.7635879942479
337,778.7382690992351
338,778.7141397729505
339,778.6911664580614
340,778.6693153951253
341,778.6485529695719
342,778.6288460528341
343,778.6101623325129
344,778.5924706253601
345,778.5757411663186
346,778.5599458665993
347,778.5450585337054
348,778.5310550465514
349,778.5179134793043
350,778.5056141682437
351,778.4941397169551
352,778.4834749367529
353,778.4736067210602
354,778.4645238541605
355,778.4562167564574
356,778.4486771705947
357,778.4418977953952
358,778.4358718769489
359,778.4305927677608
360,778.4260534653382
361,778.4222461408112
362,778.4191616664191
363,778.4167891488243
364,778.4151154741855
365,778.4141248709255
366,778.4137984965247
367,778.4141140548085
368,778.4150454500023
369,778.4165624835736
370,778.4186305995366
371,778.4212106831222
372,778.4242589164805
373,778.4277266937938
374,778.4315605972105
375,778.4357024344044
376,778.4400893380327
377,778.4446539265816
378,778.4493245249244
379,778.454025441382
380,778.458677296318
381,778.4631973957735
382,778.4675001430445
383,778.4714974816266
384,778.4750993640229
385,778.4782142417696
386,778.4807495724176
387,778.4826123392027
388,778.4837095787918
389,778.4839489118305
390,778.4832390702226
391,778.4814904145337
392,778.4786154349907
393,778.4745292304904
394,778.4691499616687
395,778.4623992760364
396,778.4542027051439
397,778.4444900355397
398,778.4331956566987
399,778.4202588897731
400,778.4056243008283
401,778.3892420014602
402,778.3710679388662
403,778.3510641767205
404,778.3291991673701
405,778.3054480148395
406,778.2797927271306
407,778.2522224555036
408,778.2227337177096
409,778.1913306016032
410,778.1580249455367
411,778.1228364925311
412,778.0857930160763
413,778.0469304161094
414,778.0062927839921
415,777.9639324351107
416,777.9199099071855
417,777.8742939218225
418,777.8271613066613
419,777.778596875901
420,777.7286932679224
421,777.6775507397933
422,777.6252769192757
423,777.5719865153372
424,777.5178009882046
425,777.4628481798852
426,777.4072619059809
427,777.3511815096216
428,777.2947513786081
429,777.238120427512
430,777.181441547454
431,777.1248710271974
432,777.0685679495945
433,777.0126935671667
434,776.9574106599489
435,776.9028828782349
436,776.8492740729481
437,776.7967476171187
438,776.745465722925
439,776.6955887592619
440,776.6472745747064
441,776.6006778306888
442,776.5559493501519
443,776.5132354876589
444,776.4726775271558
445,776.4344111133059
446,776.3985657218407
447,776.3652641739225
448,776.3346221991296
449,776.3067480513196
450,776.2817421810413
451,776.2596969670334
452,776.2406965078522
453,776.224816473397
454,776.2121240151215
455,776.2026777325024
456,776.196527691644
457,776.1937154902146
458,776.1942743619294
459,776.1982293139032
460,776.20559729124
461,776.2163873645915
462,776.2306009375878
463,776.2482319720542
464,776.2692672299954
465,776.293686532291
466,776.3214630343654
467,776.3525635183855
468,776.386948699925
469,776.4245735452865
470,776.465387594631
471,776.5093352859277
472,776.5563562749999
473,776.6063857471207
474,776.659354715809
475,776.7151903051175
476,776.7738160129119
477,776.8351519540115
478,776.8991150832159
479,776.9656193991618
480,777.0345761309297
481,777.1058939103929
482,777.1794789341865
483,777.2552351194439
484,777.3330642567157
485,777.4128661616039
486,777.4945388242018
487,777.5779785537379
488,777.6630801157944
489,777.7497368606884
490,777.8378408429929
491,777.9272829331406
492,778.0179529226368
493,778.109739624648
494,778.2025309716167
495,778.2962141113117
496,778.3906755023693
497,778.4858010095882
498,778.5814759979971
499,778.6775854236103
500,778.7740139182456
501,778.8706458657356
502,778.9673654670806
503,779.0640567925901
504,779.1606038199186
505,779.2568904582956
506,779.3528005612425
507,779.4482179323246
508,779.5430263302046
509,779.6371094797619
510,779.7303510955352
511,779.8226349231836
512,779.9138448047682
513,780.0038647740685
514,780.092579187789
515,780.1798728968987
516,780.2656314603194
517,780.34974140196
518,780.4320905117178
519,780.5125681905984
520,780.5910658390128
521,780.6674772860704
522,780.7416992569306
523,780.8136318747787
524,780.8831791930504
525,780.9502497520633
526,781.0147571530256
527,781.0766206422676
528,781.1357656993921
529,781.192124624063
530,781.2456371166144
531,781.2962508472956
532,781.3439220078426
533,781.3886158374515
534,781.4303071135923
535,781.4689805970238
536,781.5046314204039
537,781.5372654111827
538,781.5668993413882
539,781.5935610984253
540,781.6172897718633
541,781.6381356521721
542,781.6561601390034
543,781.6714355585242
544,781.6840448910878
545,781.6940814123824
546,781.701648253433
547,781.7068578871357
548,781.7098315505775
549,781.7106986126345
550,781.7095958953884
551,781.7066669564083
552,781.7020613377053
553,781.6959337866838
554,781.6884434547485
555,781.6797530799748
556,781.6700281608388
557,781.6594361280004
558,781.6481455204536
559,781.636325171353
560,781.6241434080611
561,781.6117672708901
562,781.5993617555376
563,781.5870890846666
564,781.5751080138142
565,781.5635731757636
566,781.5526344661237
567,781.5424364716366
568,781.5331179419796
569,781.5248113055173
570,781.517642229344
571,781.5117292236878
572,781.5071832900295
573,781.5041076111548
574,781.5025972803732
575,781.5027390668907
576,781.5046112147594
577,781.5082832733275
578,781.5138159572791
579,781.5212610343151
580,781.5306612389298
581,781.5420502121032
582,781.5554524688674
583,781.5708833975759
584,781.5883492952876
585,781.6078474429489
586,781.629366222677
587,781.6528852779873
588,781.6783757162358
589,781.705800350702
590,781.7351139780612
591,781.766263686308
592,781.7991891885882
593,781.8338231791546
594,781.8700917080495
595,781.9079145709561
596,781.9472057102971
597,781.9878736237328
598,782.0298217771266
599,782.0729490207057
600,782.1171500089897
601,782.1623156263659
602,782.2083334206757
603,782.2550880474506
604,782.3024617280275
605,782.3503347251872
606,782.3985858393432
607,782.4470929267346
608,782.4957334394386
609,782.5443849860184
610,782.592925911211
611,782.6412358927288
612,782.6891965524841
613,782.7366920782722
614,782.783609850534
615,782.829841067727
616,782.8752813630626
617,782.9198314044568
618,782.963397468413
619,783.0058919780536
620,783.047233996615
621,783.0873496705059
622,783.1261726194183
623,783.1636442735429
624,783.1997141588474
625,783.2343401306784
626,783.2674885543079
627,783.2991344294795
628,783.3292614553408
629,783.3578620324322
630,783.3849371993945
631,783.4104965038982
632,783.4345578101166
633,783.4571470480647
634,783.4782979120552
635,783.4980515154775
636,783.5164560069685
637,783.5335661494535
638,783.5494428599443
639,783.5641527059064
640,783.577767354021
641,783.5903629686703
642,783.6020195596377
643,783.6128202809545
644,783.6228506854455
645,783.63219794214
646,783.6409500257495
647,783.6491948881622
648,783.6570196211738
649,783.6645096182491
650,783.6717477421911
651,783.6788135058329
652,783.6857822739372
653,783.6927244955773
654,783.6997049770177
655,783.7067822056417
656,783.7140077355548
657,783.7214256444828
658,783.7290720695981
659,783.7369748282107
660,783.7451531286903
661,783.7536173769283
662,783.7623690828341
663,783.7714008692379
664,783.7806965827085
665,783.7902315033301
666,783.7999726492199
667,783.8098791712662
668,783.8199028333967
669,783.8299885730524
670,783.8400751356597
671,783.8500957761886
672,783.8599790203317
673,783.8696494769707
674,783.8790286924396
675,783.888036036302
676,783.8965896084401
677,783.9046071579443
678,783.9120070047953
679,783.9187089550197
680,783.924635199068
681,783.9297111826298
682,783.9338664398591
683,783.9370353807358
684,783.9391580258681
685,783.9401806827589
686,783.9400565577408
687,783.9387462978516
688,783.9362184567807
689,783.9324498784506
690,783.9274259909065
691,783.9211410024539
692,783.9135979917231
693,783.9048088836568
694,783.894794304571
695,783.8835833119463
696,783.8712129984896
697,783.857727974696
698,783.8431797389626
699,783.8276259487503
700,783.8111296095996
701,783.7937582002488
702,783.7755827517764
703,783.7566768976077
704,783.7371159104056
705,783.7169757413852
706,783.6963320769368
707,783.6752594264655
708,783.6538302545138
709,783.6321141696463
710,783.6101771817041
711,783.5880810372081
712,783.5658826399086
713,783.5436335603698
714,783.5213796356206
715,783.499160657494
716,783.4770101465002
717,783.4549552072426
718,783.4330164614311
719,783.411208055051
720,783.3895377369281
721,783.3680070066853
722,783.3466113307345
723,783.3253404250875
724,783.3041786029657
725,783.2831051832479
726,783.2620949531611
727,783.2411186762165
728,783.2201436348896
729,783.1991341971416
730,783.1780523962135
731,783.1568585135503
732,783.1355116549612
733,783.1139703105133
734,783.0921928894653
735,783.0701382226895
736,783.0477660263625
737,783.0250373221471
738,783.0019148105541
739,782.9783631957288
740,782.9543494616548
741,782.9298431015122
742,782.9048163030237
743,782.8792440925702
744,782.8531044396849
745,782.8263783220157
746,782.799049750053
747,782.7711057515642
748,782.7425363174701
749,782.7133343128943
750,782.6834953584873
751,782.6530176876141
752,782.6219019848199
753,782.5901512108301
754,782.5577704198317
755,782.5247665758735
756,782.4911483761247
757,782.4569260886765
758,782.4221114113345
759,782.3867173559087
760,782.3507581604365
761,782.3142492297134
762,782.2772071023908
763,782.2396494412491
764,782.2015950428441
765,782.1630638635633
766,782.1240770601072
767,782.0846570424582
768,782.0448275364668
769,782.0046136520704
770,781.9640419525609
771,781.9231405204815
772,781.8819390165291
773,781.8404687287272
774,781.798762609341
775,781.7568552963502
776,781.714783115549
777,781.6725840595785
778,781.6302977417646
779,781.5879653251352
780,781.5456294295471
781,781.50333402174
782,781.4611242942344
783,781.4190465396778
784,781.3771480276077
785,781.3354768903404
786,781.2940820236031
787,781.2530130060476
788,781.2123200405227
789,781.1720539190744
790,781.1322660126289
791,781.0930082848134
792,781.0543333273044
793,781.0162944117798
794,780.9789455516712
795,780.942341566187
796,780.9065381396321
797,780.8715918701628
798,780.8375603028052
799,780.8045019414965
800,780.7724762344801
801,780.7415435270959
802,780.7117649759418
803,780.6832024186837
804,780.6559181950771
805,780.6299749175071
806,780.605435193058
807,780.5823613025485
808,780.5608148440956
809,780.5408563495753
810,780.5225448825266
811,780.5059376262233
812,780.4910894708006
813,780.4780526081584
814,780.4668761427588
815,780.4576057254972
816,780.4502832165612
817,780.4449463816327
818,780.4416286240917
819,780.440358754333
820,780.4411607959393
821,780.4440538271285
822,780.4490518547352
823,780.4561637174558
824,780.4653930155944
825,780.4767380658933
826,780.4901918816635
827,780.5057421797799
828,780.523371416779
829,780.5430568560084
830,780.5647706666174
831,780.5884800537129
832,780.6141474178569
833,780.6417305415418
834,780.6711828004102
835,780.7024533974786
836,780.735487618765
837,780.7702271078715
838,780.8066101556406
839,780.8445720000698
840,780.8840451318936
841,780.9249596021845
842,780.9672433292493
843,781.0108224027309
844,781.0556213834066
845,781.101563597839
846,781.1485714275389
847,781.196566592451
848,781.245470428498
849,781.295204158723
850,781.3456891571022
851,781.3968472032648
852,781.4486007253159
853,781.500873027139
854,781.5535884964702
855,781.6066727911572
856,781.6600530030785
857,781.7136578012111
858,781.7674175563171
859,781.8212644494549
860,781.8751325655704
861,781.9289579724976
862,781.9826787851838
863,782.0362352150038
864,782.0895696045852
865,782.142626449348
866,782.1953524076907
867,782.2476963022705
868,782.2996091150444
869,782.3510439786534
870,782.4019561664176
871,782.4523030828026
872,782.5020442556843
873,782.5511413310726
874,782.5995580702679
875,782.6472603489453
876,782.694216157474
877,782.7403956015747
878,782.7857709018518
879,782.8303163900302
880,782.8740084993367
881,782.9168257463263
882,782.9587487012526
883,782.9997599440482
884,783.0398440036729
885,783.0789872800101
886,783.1171779488883
887,783.1544058516029
888,783.1906623706047
889,783.2259402933981
890,783.2602336675104
891,783.2935376504142
892,783.325848358856
893,783.3571627217782
894,783.3874783401773
895,783.4167933563995
896,783.4451063348708
897,783.4724161560024
898,783.4987219247919
899,783.5240228953961
900,783.5483184127535
901,783.5716078723648
902,783.5938906997466
903,783.6151663516501
904,783.6354343411803
905,783.6546942878878
906,783.6729459920315
907,783.6901895303387
908,783.7064253693316
909,783.7216544916229
910,783.7358785302428
911,783.7490999059388
912,783.7613219625475
913,783.7725490959625
914,783.7827868728618
915,783.7920421363037
916,783.8003230964779
