acceleration,velocity,displacement
-0.022648690491414356,0.0,0.0
-0.021552399472218483,-1.105027249090821e-05,-2.7625681227270526e-09
-0.020437622093398305,-2.154777788231241e-05,-1.0912080716032207e-08
-0.019305907648988832,-3.1483660317909194e-05,-2.416994026608761e-08
-0.018158867977437942,-4.0849854224515885e-05,-4.225331890169388e-08
-0.016998172284217003,-4.963911428992962e-05,-6.487556103030525e-08
-0.015825541707624385,-5.784504278788997e-05,-9.174660029976015e-08
-0.014642743663265201,-6.546211413061237e-05,-1.2257338952938575e-07
-0.01345158599911071,-7.248569654620634e-05,-1.5706034219859042e-07
-0.0122539109916576,-7.891207079389842e-05,-1.9490978403361662e-07
-0.011051589214894861,-8.473844584553653e-05,-2.3582241319347537e-07
-0.009846513316153873,-8.996297147829872e-05,-2.794977675244342e-07
-0.008640591733974894,-9.458474774083091e-05,-3.256346973292166e-07
-0.00743574239258573,-9.860383127247107e-05,-3.739318420825421e-07
-0.006233886406242276,-0.00010202123847217807,-4.240881095187044e-07
-0.005036941825250099,-0.00010483894553005116,-4.758031555192617e-07
-0.0038468174537871005,-0.00010705988534981047,-5.287778632392271e-07
-0.0026654067676037795,-0.00010868794140515819,-5.827148199279692e-07
-0.0014945819570381395,-0.00010972793858631867,-6.373187899258385e-07
-0.0003361881180571012,-0.00011018563110509248,-6.922971823486912e-07
0.0008079623878243387,-0.00011006768753765067,-7.47360512009377e-07
0.0019360953840007133,-0.00010938167309469442,-8.022228521674633e-07
0.0030464801175773947,-0.0001081360292192999,-8.566022777459619e-07
0.004137434263189256,-0.00010634005062410823,-9.102212977068139e-07
0.005207328669950815,-0.00010400385989082322,-9.628072753355467e-07
0.006254591834835153,-0.00010113837976462672,-1.0140928352494092e-06
0.007277714093984474,-9.775530328242182e-05,-1.0638162560111713e-06
0.00827525153181514,-9.386706187597192e-05,-1.1117218473007698e-06
0.009245829613929156,-8.948679158953584e-05,-1.1575603106671468e-06
0.010188146552586496,-8.462829754790693e-05,-1.2010890829515075e-06
0.011100976412920939,-7.930601680653007e-05,-1.2420726615401167e-06
0.011983171965461331,-7.353497971193451e-05,-1.2802829106697327e-06
0.012833667287933514,-6.73307698985858e-05,-1.3154993480723628e-06
0.013651480118663701,-6.070948304693649e-05,-1.3475094113087433e-06
0.014435713964754363,-5.368768452608198e-05,-1.3761087032019978e-06
0.015185559968836752,-4.62823660426842e-05,-1.4011012158441893e-06
0.01590029853781119,-3.851090141602222e-05,-1.422299532708866e-06
0.01657930073660044,-3.039100159741931e-05,-1.4395250084622263e-06
0.01722202945053158,-2.1940669050636307e-05,-1.4526079261242403e-06
0.01782804032090948,-1.3178151607776043e-05,-1.4613876312888433e-06
0.01839698245767584,-4.121895913129713e-06,-1.4657126431690697e-06
0.01892859892938833,5.209499433636329e-06,-1.465440742288943e-06
0.019422727024817815,1.4797330922187867e-05,-1.460439034699987e-06
0.019879298275362965,2.462283724723306e-05,-1.4505839926576316e-06
0.020298338225773822,3.4667246372517255e-05,-1.435761471752694e-06
0.0206799659421677,4.491182241450263e-05,-1.415866704555939e-06
0.021024393248793266,5.533791221224287e-05,-1.3908042708992527e-06
0.021331923686594655,6.592699144608985e-05,-1.3604880449846694e-06
0.02160295118752224,7.666071016461907e-05,-1.3248411195819923e-06
0.02183795846063444,8.752093757665824e-05,-1.283795707646673e-06
0.02203751509047357,9.848980596443524e-05,-1.2372930217613996e-06
0.022202275354132155,0.00010954975357558667,-1.185283131876394e-06
0.022332975768423555,0.0001206835663562256,-1.127724801893441e-06
0.022430432381558788,0.00013187441839372118,-1.0645853057059542e-06
0.02249553782593085,0.0001431059109455936,-9.958402233711255e-07
0.022529258152088904,0.00015436210994009854,-9.214732181497025e-07
0.022532629468556317,0.00016562758184525986,-8.41475795203363e-07
0.022506754416083474,0.0001768874278164198,-7.558470427879431e-07
0.022452798506574022,0.00018812731604708418,-6.645933568220671e-07
0.02237198635601151,0.00019933351226273058,-5.677281497446133e-07
0.022265597836873423,0.00021049290831095182,-4.652715446011928e-07
0.022134964169227684,0.0002215930488124771,-3.572500553203355e-07
0.02198146396211108,0.0002326221558453118,-2.436962541558883e-07
0.02180651920878236,0.00024356915163803515,-1.2464842728505158e-07
0.02161159123214869,0.0002544236792482679,-1.5021956347581545e-10
0.02139817657171404,0.0002651761211992336,1.2974973054839955e-07
0.02116780280270496,0.00027581761604283836,2.649981648589175e-07
0.020922024280725808,0.00028634007281369604,4.0553758707305114e-07
0.020662417808565134,0.00029673618333601876,5.513066511104798e-07
0.02039057822389002,0.0003069994323441325,7.022405550305176e-07
0.020108113907482433,0.00031712410537697565,8.582714394607947e-07
0.019816642213706836,0.000327105294407273,1.0193287894068569e-06
0.019517784828906596,0.00033693890116792637,1.1853398383006567e-06
0.019213163068758612,0.00034662163814234265,1.3562299731282239e-06
0.018904393130098476,0.0003561510271920569,1.5319231394618238e-06
0.01859308131555515,0.0003655253958034703,1.7123422452107057e-06
0.018280819251823482,0.00037474387094531497,1.897409561897902e-06
0.017969179126424376,0.00038380637053987693,2.0870471222692e-06
0.01765970897324832,0.00039271359256479513,2.281177113045368e-06
0.01735392804147674,0.0004014670018184764,2.479722261641186e-06
0.017053322283455886,0.00041006881439970954,2.6826062156957327e-06
0.016759339994491366,0.0004185219799691963,2.889753914287959e-06
0.016473387632861356,0.0004268301618760345,3.101091949749267e-06
0.01619682584320621,0.0004349977152450514,3.316548919029538e-06
0.015930965702067854,0.0004430296631313699,3.5360557636236437e-06
0.015677065201838692,0.00045093167085734657,3.759546097120823e-06
0.015436325988672336,0.00045871001865497435,3.986956519498903e-06
0.015209890368946773,0.00046637157274437914,4.218226917348741e-06
0.014998838595192125,0.0004739237549854139,4.453300749281189e-06
0.01480418643577163,0.0004813745112431548,4.692125315838331e-06
0.014626883026302268,0.0004887322786086733,4.934652013301289e-06
0.014467808997980619,0.000496005951614744,5.180836570857143e-06
0.014327774878385264,0.0005032048475838355,5.430639270656788e-06
0.014207519761529,0.000510338671243814,5.684025150363701e-06
0.014107710244482794,0.000517417478745317,5.940964187860984e-06
0.014028939627483328,0.0005244516412133085,6.20143146785064e-06
0.01397172737350563,0.0005314518079635557,6.465407330144856e-06
0.013936518821987615,0.000538428869512429,6.732877499513853e-06
0.013923685150458708,0.0005453939205055406,7.003833197018345e-06
0.013933523577700457,0.0005523582226875805,7.278271232816625e-06
0.013966257801533951,0.0005593331680323891,7.556194080496617e-06
0.014022038662525445,0.000566330242148404,7.837609933041815e-06
0.014100945021906251,0.0005733609880695119,8.122532740596295e-06
0.014202984838556199,0.0005804369705346275,8.41098223024733e-06
0.014328096426607281,0.0005875697408509184,8.702983908093716e-06
0.01447614987373092,0.0005947708024260029,8.998569043912947e-06
0.014646948602654409,0.0006020515770450992,9.297774638780722e-06
0.014840231065252996,0.000609423371962076,9.600643376032517e-06
0.015055672566598165,0.0006168973478700388,9.907223555990545e-06
0.01529288722079415,0.0006244844878168868,1.0217569014912276e-05
0.015551430038847045,0.0006321955671317971,1.0531739028649447e-05
0.015830799142474497,0.0006400411244271275,1.084979820153918e-05
0.01613043809045148,0.000648031433735359,1.1171816341079801e-05
0.016449738298553018,0.0006561764778326101,1.1497868318971793e-05
0.01678804153135085,0.0006644859227900861,1.1828033919127467e-05
0.017144642444201125,0.0006729690937839741,1.2162397673270981e-05
0.01751879115667688,0.0006816349521841937,1.2501048684763023e-05
0.017909695843923608,0.0006904920739343438,1.2844080441292658e-05
0.018316525337836724,0.0006995486292297839,1.3191590617083689e-05
0.018738411733630767,0.0007088123634976508,1.3543680865265547e-05
0.019174452998540783,0.0007182905796806936,1.3900456601060134e-05
0.01962371557885458,0.0007279901218250424,1.4262026776436567e-05
0.020085237001032985,0.0007379173599700143,1.4628503646885332e-05
0.02055802846365135,0.0007480781763361855,1.5000002530961882e-05
0.021041077419512052,0.0007584779528069764,1.5376641563247674e-05
0.021533350150518885,0.0007691215596994841,1.575854144137429e-05
0.02203379434009774,0.0007800133458221383,1.6145825167754694e-05
0.022541341648596887,0.0007911571298193119,1.6538617786665056e-05
0.023054910296804235,0.0008025561928056621,1.69370461173213e-05
0.02357340766252179,0.0008142132722954936,1.7341238483596588e-05
0.024095732894821753,0.0008261305574348295,1.7751324441029167e-05
0.02462077954998268,0.0008383096855460306,1.816743450177438e-05
0.02514743825266979,0.0008507517399966938,1.8589699858160063e-05
0.025674599386067757,0.0008634572494063781,1.901825210551083e-05
0.026201155815003135,0.0008764261882066458,1.9453222964914088e-05
0.02672600564556745,0.0008896579785717885,1.9894744006608695e-05
0.02724805502243721,0.0009031514937387896,2.034294637468634e-05
0.027766220960955473,0.0009169050627346378,2.0797960513804697e-05
0.02827943420573656,0.0009309164765263108,2.1259915898619934e-05
0.028786642101887833,0.0009451829956032169,2.1728940766652316e-05
0.02928681146037236,0.0009597013589937819,2.2205161855301566e-05
0.02977893139665413,0.0009744677947080385,2.268870414372702e-05
0.030262016121308646,0.0009894780315875293,2.3179690600300913e-05
0.03073510766089456,0.0010047273125330801,2.3678241936331066e-05
0.031197278486574543,0.0010202104090699473,2.418447636673182e-05
0.03164763402755349,0.0010359216371984793,2.469850937829893e-05
0.032085315047023645,0.0010518548744671236,2.522045350621533e-05
0.03250949985993281,0.0010680035781938627,2.575041811938058e-05
0.03291940637415071,0.0010843608047523836,2.628850921511714e-05
0.03331429393982856,0.0011009192298308784,2.6834829223762956e-05
0.033693464995868144,0.0011176711695648025,2.7389476823611877e-05
0.034056266507372625,0.0011346086024406126,2.795254676661323e-05
0.03440209119310295,0.0011517231918657315,2.8524129715189816e-05
0.03473037854665132,0.0011690063093006701,2.9104312090481416e-05
0.03504061565868676,0.0011864490578520047,2.9693175932269585e-05
0.03533233785099232,0.0012040422962294245,3.0290798770789942e-05
0.03560512913636268,0.0012217766629762632,3.0897253510591364e-05
0.035858622521153634,0.0012396426008906424,3.151260832655809e-05
0.03609250016809642,0.0012576303815629549,3.213692657217149e-05
0.03630649343576939,0.0012757301299639212,3.277026670005321e-05
0.036500382809003425,0.0012939318490251144,3.341268219480047e-05
0.03667399773326953,0.0013122254441606826,3.406422151809692e-05
0.03682721636561008,0.0013306007476854024,3.472492806605844e-05
0.03695996525352317,0.0013490475430901858,3.5394840138752336e-05
0.03707221895034719,0.0013675555891411533,3.6073990921810174e-05
0.03716399957254319,0.0013861146437718758,3.6762408480038434e-05
0.037235376302750624,0.0014047144877406992,3.746011576291658e-05
0.0372864648431893,0.001423344948027184,3.816713062185855e-05
0.03731742682444086,0.0014419959209440916,3.8883465839101364e-05
0.0373284691718074,0.0014606573949431537,3.9609129168073176e-05
0.03731984342482747,0.0014793194730923125,4.0344123385082044e-05
0.037291844997823724,0.0014979723951979752,4.1088446352154616e-05
0.037244812363876535,0.0015166065595384002,4.184209109083871e-05
0.03717912614264263,0.00153521254416503,4.260504586676457e-05
0.037095208073406945,0.0015537811277190425,4.337729428473559e-05
0.03699351985719076,0.001572303309701692,4.4158815394090775e-05
0.0368745618547475,0.0015907703301296764,4.4949583804048615e-05
0.03673887163087305,0.0016091736885010817,4.574956980870631e-05
0.03658702234021026,0.0016275051619938524,4.655873952133004e-05
0.036419620955280924,0.0016457568228177252,4.737705501753293e-05
0.03623730634277141,0.0016639210546422383,4.820447448689792e-05
0.03604074719837396,0.0016819905680275247,4.9040952392565363e-05
0.03583063985394972,0.0016999584147906056,4.98864396382699e-05
0.03560770597276013,0.0017178180012472832,5.074088374227937e-05
0.03537269014749456,0.0017355631002773468,5.1604229017660524e-05
0.03512635741160028,0.0017531878621671205,5.247641675827164e-05
0.0348694906700215,0.001770686824187526,5.33573854298603e-05
0.03460288805415295,0.0017880549188685696,5.424707086562433e-05
0.03432736020785486,0.0018052874809340717,5.5145406465574985e-05
0.034043727513452124,0.0018223802528643984,5.6052323399024606e-05
0.03375281726708958,0.001839329389059534,5.696775080950559e-05
0.03345546081323204,0.0018561314585796144,5.7891616021415375e-05
0.033152490650176274,0.0018727834464454666,5.8823844747671644e-05
0.03284473752121807,0.001889282753488315,5.976436129765509e-05
0.03253302750659103,0.0019056271947452675,6.071308878471349e-05
0.032218179129242894,0.001921814996404226,6.166994933250086e-05
0.03190100048505989,0.0019378447913078018,6.263486427942886e-05
0.031582286408002834,0.0019537156130310677,6.360775438051359e-05
0.03126281568401662,0.0019694268885540726,6.458854000590987e-05
0.03094334833331247,0.001984978429558405,6.5577141335438e-05
0.030624622985955596,0.002000370422388222,6.657347854842466e-05
0.030307354378471832,0.002015603416729329,6.757747200820404e-05
0.02999223099984976,0.0020306783130739094,6.858904244065485e-05
0.02967991291467619,0.002045596349052541,6.960811110618645e-05
0.029371029788679177,0.00206035908472838,7.063459996463169e-05
0.02906617913576199,0.0020749683869594904,7.166843183255366e-05
0.02876592479615991,0.0020894264129424707,7.270953053252915e-05
0.028470795644525128,0.002103735593052642,7.375782103402792e-05
0.028181284516778853,0.002117898613092968,7.481322958556432e-05
0.027897847336945874,0.002131918396056399,7.587568383785166e-05
0.027620902421252452,0.002145798083495949,7.694511295773975e-05
0.027350829937636125,0.002159541016585671,7.802144773276016e-05
0.02708797150441469,0.0021731507169461834,7.910462066614312e-05
0.026832629918960033,0.0021866308673020272,8.019456606220518e-05
0.026585069012403952,0.0021999852920348683,8.12912201020394e-05
0.02634551362842394,0.002213217937695075,8.239452090947189e-05
0.0261141497239682,0.002226332853533173,8.350440860727894e-05
0.025891124587727094,0.002239334172111097,8.462082536369002e-05
0.02567654716823395,0.002252226090050087,8.574371542923031e-05
0.025470488498159433,0.0022650128489666854,8.687302516398451e-05
0.02527298219657619,0.0022776987166403693,8.800870305538628e-05
0.02508402502877551,0.002290287968446707,8.915069972665804e-05
0.02490357750416245,0.0023027848690799417,9.02989679360397e-05
0.024731564496254008,0.0023151936545800457,9.14534625669547e-05
0.024567875873225096,0.0023275185146724156,9.261414060926782e-05
0.024412367131657054,0.002339763575423636,9.378096113179183e-05
0.024264860028939947,0.0023519328822137853,9.495388524620118e-05
0.02412514321079469,0.002364030383023719,9.613287606251056e-05
0.023992972830536714,0.002376059912034052,9.7317898636275e-05
0.02386807315741882,0.002388025173531041,9.850891990766628e-05
0.023750137173320172,0.0023999297261137254,9.970590863257747e-05
0.023638827159633433,0.002411776967196964,0.00010090883530590515
0.02353377527894017,0.0024235701178066072,0.00010211767207715604
0.023434584159282845,0.002435312207666163,0.00010333239265852423
0.02334082749200131,0.0024470060605789844,0.00010455297222558552
0.02325205065649545,0.0024586542801161085,0.00010577938731075929
0.023167771386371612,0.002470259235626825,0.00010701161568969502
0.023087480491300463,0.002481823048596243,0.00010824963626075079
0.023010642648609546,0.0024933475793812204,0.00010949342891774516
0.022936697278447986,0.002504834414362985,0.00011074297441618121
0.022865059515970686,0.0025162848535615896,0.00011199825423316235
0.022795121293432048,0.0025276998987639404,0.00011325925042124373
0.022726252544226052,0.002539080242223355,0.00011452594545649056
0.022657802539587744,0.0025504262559943084,0.00011579832208104497
0.02258910136595161,0.0025617379819706933,0.00011707636314053623
0.022519461546516607,0.0025730151226988104,0.0001183600514167036
0.022448179805200138,0.0025842570330367395,0.00011964936945563749
0.022374538966846,0.002595462712729751,0.00012094429939207911
0.02229780998593663,0.0026066307999679465,0.00012224482277025354
0.022217254096712984,0.0026177595659886087,0.00012355092036174268
0.022132125079118745,0.0026288469107825668,0.00012486257198093546
0.022041671635675823,0.0026398903599612654,0.0001261797562986214
0.02194513987398935,0.0026508870628386815,0.0001275024506543214
0.021841775888348576,0.002661833791779266,0.00012883063086797589
0.021730828432283862,0.002672726942859424,0.00013016427105163556
0.021611551672948006,0.002683562537885732,0.00013150334342182184
0.021483208018267655,0.002694336227808536,0.0001328478181132454
0.0213450710085547,0.0027050432975652414,0.00013419766299458885
0.021196428264120697,0.0027156786723834102,0.00013555284348707602
0.02103658447747896,0.0027262369255688103,0.00013691332238656407
0.020864864433013,0.0027367122877964335,0.00013827905968990538
0.02068061603004179,0.0027470986579121973,0.00013965001242633254
0.020483213278987483,0.0027573896152394547,0.00014102613449462045
0.02027205923644276,0.0027675784333683123,0.0001424073765067724
0.020046588844018973,0.0027776580953884277,0.0001437936856389616
0.019806271637378095,0.0027876213105087772,0.0001451850054904359
0.019550614295611463,0.0027974605319920245,0.00014658127595106109
0.019279163007274516,0.002807167976317746,0.00014798243307813852
0.01899150563667919,0.0028167356434787346,0.00014938840898308763
0.01868727368055644,0.0028261553383080434,0.00015079913172853432
0.01836614400920114,0.002835418692730483,0.00015221452523629395
0.018027840387992357,0.002844517188829781,0.00015363450920668402
0.017672134776686603,0.002853442182620951,0.0001550589990495467
0.017298848407217293,0.002862184928416927,0.00015648790582730617
0.01690785264629095,0.002870736603680304,0.00015792113621033047
0.016499069654657063,0.0028790883342555413,0.00015935859244481444
0.0160724728583881,0.0028872312198838027,0.00016080017233334928
0.01562808724788781,0.0028951563599103718,0.00016224576922829783
0.01516598951824801,0.0029028548791019057,0.0001636952720380509
0.014686308061022986,0.0029103179534967234,0.00016514856524620057
0.014189222813119113,0.002917536836215259,0.00016660552894362857
0.013674964964318742,0.0029245028831596186,0.00016806603887347229
0.013143816520920398,0.0029312075785309284,0.00016952996648889493
0.012596109719694775,0.0029376425600910823,0.00017099717902355045
0.012032226284815513,0.0029437996440922097,0.00017246753957459628
0.011452596521095383,0.0029496708497936874,0.00017394090719806776
0.010857698238953504,0.0029552484234836997,0.0001754171370163871
0.010248055508921421,0.0029605248619206685,0.00017689608033773818
0.009624237245762375,0.0029654929351093395,0.00017837758478699567
0.008986855624680285,0.00297014570832695,0.00017986149444785475
0.008336564334121381,0.0029744765633166505,0.00018134765001576566
0.00767405667045168,0.0029784792185677937,0.00018283588896123677
0.0070000634795977104,0.002982147748605306,0.00018432604570303005
0.006315350949759003,0.002985476602212645,0.00018581795179073454
0.00562071825850774,0.0029884606195147117,0.00018731143609616638
0.004916995077659535,0.0029910950478487536,0.00018880632501300725
0.004205038940709825,0.002993375556353346,0.00019030244266405778
0.003485732479639544,0.0029952982492084334,0.00019179961111544821
0.0027599805399530575,0.0029968596774633317,0.00019329765059711615
0.0020287071848433995,0.0029980568493945307,0.0001947963797288306
0.0012928526013591222,0.0029988872393410812,0.00019629561575101452
0.0005533699232662194,0.0029993487949722375,0.00019779517475959285
-0.00018877801295796309,0.0029994399429498146,0.00019929487194407337
-0.0009326219605398173,0.00299915959295644,0.00020079452182804994
-0.0016771895819621841,0.0029985071400708144,0.00020229393851130676
