acceleration,velocity,displacement
-0.02043609545877151,0.0,0.0
-0.019458825589658408,-9.97373026210748e-06,-2.49343256552687e-09
-0.018472747245586355,-1.945662347091867e-05,-9.851020998783408e-09
-0.017478981852074096,-2.844455574533378e-05,-2.1826315802846518e-08
-0.016478667783684356,-3.693396815427339e-05,-3.817094677774831e-08
-0.01547295799171384,-4.492187459812294e-05,-5.86349074658474e-08
-0.014463017569357013,-5.240586848839066e-05,-8.29668432374758e-08
-0.013450021262942114,-5.938412819646544e-05,-1.1091434240868983e-07
-0.012435150937432143,-6.585542124655901e-05,-1.4222422976944595e-07
-0.011419593004340646,-7.18191072320022e-05,-1.7664286188908625e-07
-0.010404535820386421,-7.727513943818398e-05,-2.139164235566328e-07
-0.009391167065687251,-8.22240651597024e-05,-2.537912247061044e-07
-0.008380671110485542,-8.66670247037456e-05,-2.960139971719664e-07
-0.007374226379381738,-9.060574907621243e-05,-3.403321906169559e-07
-0.006373002721911244,-9.404255635153567e-05,-3.8649426697389294e-07
-0.0053781587981477155,-9.698034673155041e-05,-4.3424999274466445e-07
-0.004390839487782636,-9.942259630303299e-05,-4.833507285033103e-07
-0.0034121733308681702,-0.00010137334950769569,-5.335497149559924e-07
-0.0024432700080701413,-0.00010283721034243026,-5.846023549185238e-07
-0.001485217867857875,-0.00010381933231141226,-6.362664905819845e-07
-0.0005390815077703911,-0.00010432540715531934,-6.883026754486674e-07
0.00039410058316586937,-0.00010436165238647046,-7.404744403341149e-07
0.0013133183136325478,-0.00010393479766227085,-7.925485528463002e-07
0.0022175922035642844,-0.00010305207003297165,-8.442952697701109e-07
0.0031059755149964443,-0.00010172117810333146,-8.954885818041867e-07
0.003977556294007902,-9.995029515108038e-05,-9.459064501177896e-07
0.004831459318768667,-9.774804124788624e-05,-9.953310342175313e-07
0.005666847949993989,-9.512346443069558e-05,-1.0435489106371767e-06
0.006482925881028333,-9.208602097294e-05,-1.0903512819880857e-06
0.007278938785371339,-8.864555480634009e-05,-1.1355341759329057e-06
0.0080541758595065,-8.481227614512063e-05,-1.178898633670771e-06
0.008807971258703235,-8.05967393655682e-05,-1.2202508875484433e-06
0.009539705423268647,-7.600982019507522e-05,-1.2594025274386042e-06
0.010248806292881057,-7.10626922660378e-05,-1.2961706555538824e-06
0.01093475040689606,-6.576680309109351e-05,-1.3303780293931652e-06
0.011597063888831626,-6.013384951716159e-05,-1.361853192545229e-06
0.012235323313411737,-5.417575271660075e-05,-1.3904305931036696e-06
0.012849156454726667,-4.790463277456615e-05,-1.4159506894764614e-06
0.01343824291430375,-4.133278293230855e-05,-1.4382600434031801e-06
0.014002314628334166,-3.447264354664907e-05,-1.4572114000229195e-06
0.01454115625341689,-2.7336775826211302e-05,-1.4726637548661345e-06
0.015054605429908144,-1.9937835405380045e-05,-1.4844824076740324e-06
0.0155425529213944,-1.2288545817554409e-05,-1.492539002979766e-06
0.01600494262842831,-4.401671930098732e-06,-1.4967115574166791e-06
0.016441771474605557,3.710006595659735e-06,-1.4968844737502888e-06
0.016853089163557794,1.2033721755200573e-05,-1.4929485416625737e-06
0.017238997806010042,2.055674349759253e-05,-1.4848009253493755e-06
0.01759965141654523,2.926640580323135e-05,-1.4723451380241696e-06
0.017935255280064465,3.815013247738378e-05,-1.4554910034540158e-06
0.01824606518847323,4.7195462594518204e-05,-1.4341546046860402e-06
0.01853238654903391,5.639007552889499e-05,-1.4082582201551868e-06
0.018794573366799835,6.572181550785343e-05,-1.3777302473959996e-06
0.01903302710447755,7.517871562567278e-05,-1.342505114612618e-06
0.019248195423762996,8.474902125773292e-05,-1.3025231803917665e-06
0.01944057081266591,9.442121281684014e-05,-1.2577306218731233e-06
0.019610689104104198,0.00010418402779603266,-1.208079311719905e-06
0.019759127891794525,0.00011402648204500734,-1.1535266842596451e-06
0.019886504850295705,0.0001239378902305299,-1.0940355911907608e-06
0.019993475966434367,0.00013390788543471242,-1.02957414727445e-06
0.0200807336894253,0.00014392643784867735,-9.601155664536027e-07
0.020149005006674565,0.00015398387252270232,-8.856379888607578e-07
0.02019904945153586,0.00016407088613725493,-8.061242991957685e-07
0.020231657048412097,0.00017417856276224193,-7.215619369708944e-07
0.020247646199642033,0.00018429838857425546,-6.3194269913677e-07
0.02024786151780476,0.00019442226550361717,-5.372625356173018e-07
0.02023317160647001,0.00020454252378468587,-4.3752133829522603e-07
0.02020446679246546,0.00021465193338441972,-3.3272272400294965e-07
0.0201626568131649,0.0002247437142858273,-2.2287381208538788e-07
0.020108668462900145,0.00023481154560484356,-1.0798499711272015e-07
0.02004344320289522,0.0002448495735212924,1.1930282668813832e-08
0.019967934739347215,0.000254852418006853,1.3685578055085016e-07
0.01988310657461688,0.000264815178335344,2.667726796363994e-07
0.019789929537009317,0.00027473343736325053,4.0165983356104804e-07
0.01968937929543685,0.0002846032645713621,5.414940090447012e-07
0.019582433865852036,0.0002944212178616843,6.862501296529628e-07
0.01947007111670608,0.00030418434410732384,8.359015201452148e-07
0.019353266281029423,0.0003138901784567577,9.904201507862352e-07
0.01923298948322002,0.00032353674239782006,1.1497768809998796e-06
0.019110203289352215,0.0003331225405909631,1.3139417017470754e-06
0.018985860290310696,0.0003426465564858788,1.482883976016286e-06
0.01886090072713116,0.00035210824674023925,1.6565726768228156e-06
0.0187362501675007,0.00036150753446389725,1.8349766221238497e-06
0.018612817241613372,0.00037084480131617574,2.018064706068868e-06
0.018491491444793465,0.00038012087848777744,2.2058061260198563e-06
0.01837314101351145,0.00038933703660235365,2.398170604792389e-06
0.018258610881003265,0.0003984949745759823,2.595128607586973e-06
0.018148720718451992,0.0004075968074758461,2.79665155309993e-06
0.01804426306737955,0.00041664505342230395,3.0027120183244677e-06
0.01794600156825856,0.0004256426195812135,3.213283936575347e-06
0.01785466928925432,0.0004345927872955917,3.4283427882945486e-06
0.017770967157997745,0.00044349919640740475,3.647865784220298e-06
0.017695562498647257,0.000452365828821566,3.871832040527541e-06
0.017629087676403112,0.00046119699136532857,4.100222745574265e-06
0.017572138851640655,0.0004699972979973395,4.333021317914932e-06
0.017525274845588783,0.0004787716514216469,4.570213555269678e-06
0.017489016119267113,0.00048752522416286085,4.811787774165805e-06
0.01746384386708082,0.0004962634391594478,5.057734939996382e-06
0.017450199225986337,0.0005049919499327146,5.308048787269423e-06
0.017448482600868138,0.0005137166203894282,5.562725929849959e-06
0.01745905310643522,0.000522443504316254,5.8217659610263795e-06
0.017482228125724544,0.000531178824624294,6.085171543261517e-06
0.017518282984746898,0.0005399289524019119,6.352948487518068e-06
0.017567450742217782,0.0005487003858336531,6.625105822076959e-06
0.017629922092558363,0.0005574997290423471,6.9016558507959595e-06
0.017705845379712884,0.0005663336709104149,7.18261420078415e-06
0.01779532671886295,0.0005752089639350588,7.4679998594955184e-06
0.017898430223222118,0.0005841324031705802,7.757835201271928e-06
0.018015178333818594,0.0005931108053098403,8.052146003392033e-06
0.018145552251034258,0.0006021509879560535,8.350961451708507e-06
0.018289492467034013,0.0006112597491355706,8.654314135981413e-06
0.01844689939783215,0.0006204438471017871,8.962240035040753e-06
0.01861763411260501,0.0006297099804793963,9.274778491936049e-06
0.018801519156681563,0.000639064768796718,9.591972179255078e-06
0.01899833946368329,0.0006485147334518092,9.913867054817209e-06
0.019207843351737454,0.0006580662791556643,1.0240512307969078e-05
0.01942974359844623,0.0006677256758932102,1.0571960296731297e-05
0.019663718589565803,0.0006774990414402132,1.0908266476064652e-05
0.019909413536878213,0.0006873923244718242,1.1249489317542662e-05
0.020166441761316083,0.0006974112882963728,1.159569022073471e-05
0.020434386037746173,0.0007075614952461384,1.1946933416620337e-05
0.02071279999780063,0.0007178482917550251,1.2303285863370627e-05
0.021001209587001753,0.0007282767941512257,1.266481713484719e-05
0.02129911457220049,0.0007388518751910263,1.3031599302182754e-05
0.021605990095361564,0.0007495781513579169,1.340370680881999e-05
0.02192128826998836,0.0007604599709492544,1.3781216339396784e-05
0.02224443981681785,0.0007715014029709559,1.4164206682876838e-05
0.0225748557356817,0.0007827062268590808,1.4552758590334347e-05
0.02291192901038252,0.0007940779230455968,1.4946954627810516e-05
0.023255036343365603,0.0008056196643840338,1.5346879024667923e-05
0.023603539916889432,0.0008173343084490976,1.5752617517876207e-05
0.023956789177285127,0.0008292243907226412,1.6164257192669143e-05
0.024314122638832418,0.0008412921186766706,1.658188632001897e-05
0.024674869703670835,0.0008535393667622964,1.700559419137871e-05
0.025038352494179312,0.0008659676723117589,1.7435470951147226e-05
0.025403887694314446,0.0008785782323588823,1.7871607427314887e-05
0.02577078839635338,0.0008913719013815493,1.8314094960749995e-05
0.026138365949201495,0.000904349189967938,1.876302523358737e-05
0.02650593180387203,0.0009175102644062064,1.9218490097180905e-05
0.026872799351091686,0.0009308549471949473,1.9680581400081194e-05
0.02723828574524172,0.0009443827184690307,2.014939081649719e-05
0.02760171370835394,0.0009580927183324296,2.0625009675697553e-05
0.027962413307576522,0.0009719837500864122,2.1107528792802263e-05
0.028319723699573245,0.0009860542843381996,2.1597038301408415e-05
0.02867299483537118,0.0010003024639719357,2.209362748848595e-05
0.02902158911916033,0.0010147261099605687,2.2597384631969074e-05
0.02936488301459464,0.0010293227279940076,2.310839684145772e-05
0.029702268592400792,0.0010440895158957565,2.362674990243016e-05
0.030033155013418685,0.0010590233717972114,2.41525281243534e-05
0.030356969941643143,0.0010741209030359767,2.4685814193061697e-05
0.030673160882465345,0.001089378435742004,2.5226689027756192e-05
0.03098119644197257,0.0011047920250731133,2.577523164295997e-05
0.031280567504019474,0.0011203574660596113,2.6331519015743153e-05
0.031570788322708716,0.0011360703050162933,2.6895625958512128e-05
0.031851397528650384,0.0011519258514791331,2.7467624997635985e-05
0.032121959048088435,0.0011679191906233178,2.8047586258161596e-05
0.03238206293462275,0.0011840451961189957,2.8635577354847175e-05
0.03263132611389683,0.0012002985433811255,2.9231663289722204e-05
0.032869393042148594,0.0012166737231701368,2.983590635636002e-05
0.033095936279860405,0.001233165055500639,3.0448366051027713e-05
0.03331065698175305,0.0012497667038160424,3.1069098990856883e-05
0.03351328530428113,0.001266472689387551,3.169815883915778e-05
0.033703580731804586,0.0012832769058965725,3.233559623797881e-05
0.033881332322745344,0.00130017313416021,3.2981458747993004e-05
0.03404635887709956,0.0013171550569601711,3.36357907957731e-05
0.03419850902641572,0.0013342162739360499,3.429863362849716e-05
0.03433766124717909,0.0013513503165044486,3.497002527610728e-05
0.03446372379848835,0.0013685506627658655,3.565000052092486e-05
0.03457663458520773,0.0013858107523617895,3.633859087470678e-05
0.034676360948033745,0.0014031240012451,3.70358245631085e-05
0.034762899381685336,0.0014204838163275296,3.774172651750166e-05
0.03483627518174495,0.0014378836099683873,3.845631837407564e-05
0.034896542019774546,0.0014553168142687671,3.917961848013492e-05
0.03494378144574199,0.0014727768951351462,3.9911641907485904e-05
0.034978102316738965,0.0014902573660757665,4.0652400472788635e-05
0.034999640151192904,0.0015077518016927494,4.140190276473077e-05
0.0350085564083244,0.0015252538508326288,4.216015417786211e-05
0.03500503769313724,0.0015427572493579942,4.2927156952909766e-05
0.034989294887848535,0.0015602558325032406,4.3702910223375075e-05
0.0349615622115153,0.0015777435467780815,4.4487410068195406e-05
0.034922096210399586,0.0015952144613835602,4.5280649570235816e-05
0.03487117468253924,0.0016126627791067949,4.60826188803584e-05
0.03480909554064971,0.0016300828466625922,4.689330528680075e-05
0.03473617561806724,0.0016474691644522714,4.7712693289579466e-05
0.0346527494228463,0.0016648163957124998,4.8540764679620656e-05
0.03455916784497749,0.0016821193750294558,4.937749862230614e-05
0.034455796821314236,0.0016993731161960286,5.022287174511251e-05
0.034343015962166976,0.001716572819391899,5.1076858229009497e-05
0.034221217143463156,0.0017337138776683065,5.193942990327455e-05
0.03409080306868012,0.0017507918827213424,5.281055634337196e-05
0.03395218580508958,0.001767802629939785,5.3690204971537243e-05
0.03380578529892513,0.0017847421227157887,5.4578341159701135e-05
0.0336520278741987,0.0018016065760090697,5.5474928334382346e-05
0.033491344720168945,0.0018183924191576615,5.637992808317403e-05
0.033324170372833466,0.0018350962979309122,5.7293300262446175e-05
0.03315094119590077,0.0018517150758230957,5.8215003105884674e-05
0.032972093866383806,0.0018682458345886668,5.9144993333487616e-05
0.032788063869600856,0.001884685874022663,6.0083226260640446e-05
0.03259928400832964,0.0019010327109921456,6.102965590689415e-05
0.032406182931264994,0.0019172840777270442,6.198423510407394e-05
0.03220918368664467,0.0019334379193815215,6.294691560335108e-05
0.03200870230760856,0.0019494923908800847,6.391764818091647e-05
0.03180514643614056,0.001965445853066022,6.4896382741903e-05
0.031598913992475386,0.001981296868173176,6.58830684222128e-05
0.03139039189665964,0.00199704419464546,6.687765368791745e-05
0.03117995484855073,0.0020126867813317624,6.788008643191175e-05
0.030967964171549546,0.0020282237610867873,6.889031406751639e-05
0.030754766724009716,0.0020436544438106772,6.990828361874075e-05
0.030540693880625535,0.002058978308961836,7.093394180693388e-05
0.03032606058463323,0.002074194997578151,7.196723513356888e-05
0.030111164470529646,0.002089304303841942,7.30081099589239e-05
0.02989628505627667,0.002104306166223643,7.40565125764403e-05
0.029681683003982443,0.002119200658238708,7.511238928255589e-05
0.02946759944863922,0.0021339879788518632,7.617568644182853e-05
0.029254255395360928,0.0021486684425628634,7.724635054718221e-05
0.029041851186069223,0.002163242469208221,7.832432827512498e-05
0.028830566036725652,0.0021777105735139198,7.940956653580552e-05
0.02862055764601727,0.0021920733544346055,8.050201251779265e-05
0.028411961875933037,0.002206331484315093,8.160161372748007e-05
0.028204892504015252,0.00222048569791008,8.270831802303637e-05
0.027999441046145532,0.00223453678129762,8.382207364283829e-05
0.0277956766479077,0.0022484855607211333,8.494282922834297e-05
0.027593646042079513,0.00226233289139363,8.607053384137167e-05
0.027393373569806746,0.0022760796462966016,8.720513697579422e-05
0.027194861263284697,0.0022897267050048745,8.834658856361959e-05
0.02699808898824358,0.0023032749425677566,8.949483897551275e-05
0.02680301464487174,0.0023167252184760354,9.06498390157737e-05
0.026609574426111997,0.0023300783657437814,9.181153991182866e-05
0.0264176831321922,0.0023433351801333572,9.297989329829794e-05
0.026227234540076708,0.0023564964095514245,9.415485119571914e-05
0.026038101826532614,0.0023695627436430768,9.533636598401776e-05
0.025850138043566076,0.0023825348036106016,9.652439037083117e-05
0.025663176645179774,0.002395413132282788,9.771887735480452e-05
0.025477032064655576,0.002408198184460247,9.891978018399028e-05
0.02529150034182221,0.0024208903175618663,0.0001001270523094958
0.02510635980009213,0.002433489782597345,0.00010134064733453561
0.024921371773216176,0.002445996715490672,0.00010256051895905762
0.02473628138173888,0.002458411128779411,0.00010378662092012514
0.024550818358998576,0.002470732903714595,0.00010501890692824865
0.0243646979263209,0.002482961782785925,0.00010625733059987378
0.02417762171694396,0.0024950973626967415,0.00010750184538624445
0.02398927874806794,0.0025071390878129945,0.00010875240449887188
0.023799346440197384,0.002519086244110061,0.00011000896083185263
0.023607491682780132,0.0025309379536408052,0.00011127146688129036
0.023413371944853895,0.002542693169547714,0.00011253987466208748
0.023216636429002825,0.002554350671641178,0.0001138141356223847
0.02301692726618461,0.002565909062564975,0.00011509420055593624
0.022813880748260004,0.002577366764568586,0.00011638001951271964
0.02260712859436635,0.0025887220169042427,0.00011767154170808784
0.022396299247012242,0.0025999728738645873,0.00011896871543078005
0.022181019193875006,0.002611117203474809,0.0001202714879501149
0.021960914311411006,0.0026221526868511306,0.00012157980542269639
0.02173561122648904,0.002633076818235606,0.00012289361279896807
0.02150473869217982,0.002643886905715273,0.0001242128537299558
0.02126792897366592,0.0026545800726317345,0.00012553747047454254
0.021024819240026513,0.0026651532596851575,0.00012686740380762177
0.020775052957564048,0.002675603227734555,0.0001282025929294767
0.02051828128031569,0.002685926561294025,0.00012954297537673385
0.02025416443357537,0.002696119672722498,0.000130888486935238
0.019982373086263553,0.0027061788071024574,0.00013223906155519424
0.01970258970763471,0.002716100047800932,0.0001335946312689201
0.019414509903062246,0.002725879322703606,0.00013495512611154623
0.019117843722814498,0.002735512411110075,0.00013632047404499965
0.018812316936915312,0.0027449949512750077,0.0001376906008855959
0.018497672268771075,0.0027543224485764295,0.00013906543023555878
0.018173670580184608,0.0027634902842886685,0.00014044488341877505
0.01784009200069648,0.002772493724933889,0.0001418288794210807
0.017496736994825877,0.0027813279321827694,0.00014321733483535986
0.01714342736171215,0.002789987973271904,0.00014461016381172353
0.016780007162794083,0.0027984688319030305,0.00014600727801301726
0.016406343574167294,0.002806765419587271,0.00014740858657588983
0.016022327660950245,0.00281487258739605,0.00014881399607763566
0.015627875071382455,0.002822785138079133,0.00015022341050900445
0.015222926648678527,0.0028304978385091484,0.0001516367312531515
0.014807448959340419,0.002838005432411153,0.00015305385707088158
0.014381434737453513,0.0028453026533353516,0.0001544746840923182
0.013944903245500967,0.0028523842378310902,0.00015589910581510983
0.013497900552790964,0.0028592449387806634,0.00015732701310926277
0.013040499732833043,0.0028658795388520693,0.00015875829422867097
0.012572800980888168,0.0028722828640305,0.00016019283482939162
0.012094931652574277,0.002878449797188865,0.00016163051799469646
0.011607046223996043,0.002884375291658008,0.00016307122426690817
0.011109326173458826,0.0028900543847573718,0.00016451483168601202
0.010601979784439615,0.0028954822112468464,0.00016596121583501306
0.010085241869220447,0.0029006540166602616,0.00016741024989198983
0.00955937341252696,0.0029055651704806983,0.00016886180468877508
0.009024661134816236,0.002910211179117534,0.00017031574877617465
0.008481416975249668,0.0029145876986450504,0.0001717719484956153
0.007929977494899598,0.0029186905472625875,0.00017323026805709222
0.007370703201238665,0.002922515717436622,0.00017469056962326704
0.00680397779538515,0.002926059387685778,0.00017615271339954764
0.006230207344079325,0.002929317933970644,0.00017761655772996173
0.00564981937858289,0.00293228794065131,0.00017908195919861722
0.005063261922793731,0.002934966210976654,0.0001805487727365242
0.004471002452913864,0.0029373497770705807,0.000182016851733536
0.0038735267910028127,0.00293943590938156,0.00018348604815514904
0.0032713379349386252,0.002941222125563045,0.00018495621266388518
0.0026649548275774855,0.002942706198753674,0.00018642719474496437
0.002054911068324386,0.0029438861652276494,0.0001878988428359597
0.001441753570696045,0.0029447603313874043,0.00018937100446011346
0.0008260411698759511,0.0029453272800725474,0.00019084352636297843
0.00020834318459010825,0.0029455858761611637,0.00019231625465203686
-0.0004107620619992703,0.0029455352714418113,0.0001937890349389376
-0.0010306887573776073,0.0029451749087369672,0.0001952617124839823
-0.0016508451453690137,0.0029445045252612808,0.00019673413234248187
-0.0022706350966126337,0.0029435241552007853,0.0001982061395125974
