frame_number,force
0,778.8050528327822
1,778.8827991674982
2,778.9612462571072
3,779.0403048870262
4,779.1198844942976
5,779.1998933563171
6,779.2802387845366
7,779.3608273224561
8,779.4415649472558
9,779.5223572744164
10,779.603109764669
11,779.6837279325708
12,779.7641175559955
13,779.8441848858198
14,779.9238368551064
15,780.0029812870915
16,780.0815271013045
17,780.1593845171683
18,780.2364652544575
19,780.3126827300213
20,780.3879522502052
21,780.4621911984077
22,780.535319217196
23,780.6072583844042
24,780.6779333826515
25,780.7472716617889
26,780.8152035938747
27,780.8816626203871
28,780.9465853914515
29,781.0099118969085
30,781.0715855890533
31,781.1315534968601
32,781.189766331492
33,781.2461785829066
34,781.3007486073903
35,781.353438705879
36,781.4042151929348
37,781.4530484562664
38,781.4999130066946
39,781.5447875185043
40,781.587654860133
41,781.6285021151203
42,781.667320593205
43,781.7041058314165
44,781.7388575850129
45,781.7715798081475
46,781.8022806242006
47,781.8309722857441
48,781.8576711241406
49,781.8823974888182
50,781.9051756763364
51,781.9260338494331
52,781.9450039463221
53,781.9621215805603
54,781.9774259318449
55,781.990959628161
56,782.0027686197583
57,782.0129020455025
58,782.0214120921776
59,782.0283538473187
60,782.033785146134
61,782.0377664130122
62,782.0403604980455
63,782.0416325089226
64,782.0416496384776
65,782.0404809881388
66,782.0381973875203
67,782.0348712104346
68,782.0305761876542
69,782.0253872167706
70,782.0193801695194
71,782.0126316969665
72,782.0052190329905
73,781.9972197965624
74,781.9887117933714
75,781.9797728173722
76,781.9704804528596
77,781.9609118777131
78,781.9511436685125
79,781.9412516082652
80,781.9313104974913
81,781.9213939693777
82,781.911574309656
83,781.90192228179
84,781.8925069580038
85,781.8833955566412
86,781.8746532863331
87,781.8663431974205
88,781.8585260410323
89,781.851260136129
90,781.8446012447431
91,781.8386024555956
92,781.8333140762608
93,781.8287835340517
94,781.8250552857799
95,781.8221707365248
96,781.8201681675253
97,781.819082673265
98,781.8189461078032
99,781.8197870403745
100,781.8216307202665
101,781.8244990509357
102,781.8284105732802
103,781.8333804579223
104,781.8394205063086
105,781.846539160392
106,781.8547415206751
107,781.8640293724454
108,781.8744012201064
109,781.8858523295347
110,781.8983747783641
111,781.9119575140054
112,781.9265864191194
113,781.9422443841818
114,781.9589113867363
115,781.9765645769138
116,781.9951783688148
117,782.0147245373968
118,782.0351723205529
119,782.0564885260954
120,782.0786376433579
121,782.1015819591155
122,782.1252816775094
123,782.1496950436572
124,782.1747784706558
125,782.200486669709
126,782.2267727831311
127,782.2535885199782
128,782.2808842940491
129,782.3086093639947
130,782.336711975264
131,782.3651395036109
132,782.3938385998761
133,782.422755335762
134,782.4518353503192
135,782.4810239968639
136,782.5102664900186
137,782.5395080525292
138,782.5686940614547
139,782.5977701932703
140,782.6266825673835
141,782.6553778875395
142,782.683803580597
143,782.7119079321557
144,782.7396402185221
145,782.7669508344983
146,782.7937914165008
147,782.8201149605437
148,782.8458759346528
149,782.8710303853284
150,782.8955360377288
151,782.9193523893117
152,782.942440796746
153,782.9647645559645
154,782.9862889752844
155,783.006981441575
156,783.0268114795008
157,783.0457508039123
158,783.0637733654825
159,783.0808553896883
160,783.0969754092285
161,783.1121142899725
162,783.1262552505427
163,783.1393838756414
164,783.1514881232088
165,783.1625583254875
166,783.1725871840648
167,783.1815697589858
168,783.1895034520519
169,783.1963879844018
170,783.202225368416
171,783.2070198739152
172,783.2107779885764
173,783.2135083724843
174,783.2152218067561
175,783.215931136219
176,783.2156512061634
177,783.2143987932445
178,783.2121925306707
179,783.2090528278827
180,783.2050017849984
181,783.2000631023512
182,783.1942619854973
183,783.1876250460983
184,783.1801801990748
185,783.1719565563947
186,783.1629843178125
187,783.1532946588695
188,783.1429196164885
189,783.1318919725253
190,783.1202451356437
191,783.1080130218892
192,783.0952299343601
193,783.0819304424033
194,783.0681492607686
195,783.0539211291305
196,783.0392806923587
197,783.0242623819146
198,783.0089002987828
199,782.9932280984059
200,782.9772788781429
201,782.9610850677976
202,782.9446783237638
203,782.9280894273194
204,782.9113481875697
205,782.8944833494613
206,782.8775225071793
207,782.860492023112
208,782.8434169524495
209,782.8263209733916
210,782.809226322884
211,782.7921537378021
212,782.775122401549
213,782.7581498961029
214,782.7412521595895
215,782.724443449467
216,782.7077363113947
217,782.6911415538217
218,782.6746682282774
219,782.658323615273
220,782.6421132156595
221,782.6260407472452
222,782.6101081464807
223,782.5943155750366
224,782.5786614311387
225,782.5631423655524
226,782.5477533021314
227,782.53248746284
228,782.5173363971448
229,782.5022900156716
230,782.4873366280283
231,782.472462984711
232,782.4576543230297
233,782.4428944170102
234,782.4281656312553
235,782.413448978762
236,782.3987241826915
237,782.3839697420818
238,782.3691630014733
239,782.3542802244111
240,782.3392966707762
241,782.3241866778789
242,782.3089237452351
243,782.2934806229239
244,782.2778294033894
245,782.2619416164955
246,782.2457883275787
247,782.2293402381943
248,782.2125677892266
249,782.1954412660441
250,782.1779309053899
251,782.1600070037057
252,782.1416400265825
253,782.1228007190161
254,782.1034602161299
255,782.0835901540203
256,782.0631627803788
257,782.0421510645572
258,782.020528806746
259,781.998270745907
260,781.9753526660407
261,781.951751500306
262,781.9274454324409
263,781.9024139949032
264,781.8766381631442
265,781.8501004454527
266,781.8227849678589
267,781.7946775536608
268,781.7657657972252
269,781.7360391317966
270,781.7054888911017
271,781.6741083645682
272,781.6418928460002
273,781.6088396756087
274,781.5749482753564
275,781.540220177663
276,781.5046590475547
277,781.4682706983671
278,781.4310631010961
279,781.3930463874699
280,781.3542328467764
281,781.3146369164537
282,781.2742751664148
283,781.2331662770621
284,781.1913310109367
285,781.148792177976
286,781.1055745943821
287,781.0617050351437
288,781.0172121802965
289,780.9721265550377
290,780.9264804638532
291,780.8803079188308
292,780.8336445623422
293,780.7865275842798
294,780.7389956340338
295,780.69108872741
296,780.6428481487111
297,780.5943163482358
298,780.545536835482
299,780.4965540683714
300,780.4474133388399
301,780.3981606551677
302,780.3488426214478
303,780.2995063146191
304,780.2501991595271
305,780.2009688025153
306,780.1518629840805
307,780.1029294111613
308,780.0542156296223
309,780.0057688974834
310,779.9576360593894
311,779.9098634227606
312,779.8624966360262
313,779.8155805693168
314,779.7691591979557
315,779.7232754890358
316,779.6779712913197
317,779.6332872286645
318,779.589262597177
319,779.545935266313
320,779.5033415841338
321,779.4615162869229
322,779.4204924133406
323,779.3803012232686
324,779.340972121475
325,779.302532586191
326,779.2650081026419
327,779.2284221015396
328,779.1927959025388
329,779.1581486626909
330,779.1244973299787
331,779.0918566020395
332,779.0602388901979
333,779.0296542889151
334,779.0001105507365
335,778.9716130667886
336,778.9441648528737
337,778.9177665411999
338,778.8924163777866
339,778.8681102255819
340,778.8448415733086
341,778.8226015500134
342,778.8013789452352
343,778.7811602346507
344,778.7619296110055
345,778.7436690201228
346,778.726358201757
347,778.7099747350513
348,778.6944940883458
349,778.679889673091
350,778.6661329016281
351,778.6531932486112
352,778.6410383158834
353,778.629633900653
354,778.618944066857
355,778.6089312196332
356,778.599556182869
357,778.5907782798637
358,778.5825554171862
359,778.5748441718513
360,778.567599881936
361,778.5607767407289
362,778.5543278944442
363,778.5482055434755
364,778.5423610471225
365,778.5367450317177
366,778.5313075020812
367,778.525997956227
368,778.5207655032311
369,778.5155589841532
370,778.5103270958919
371,778.5050185178203
372,778.4995820410115
373,778.4939666998179
374,778.4881219055403
375,778.4819975818978
376,778.4755443019902
377,778.4687134264194
378,778.4614572421985
379,778.453729102038
380,778.44548356354
381,778.4366765277969
382,778.427265376864
383,778.417209109602
384,778.406468475402
385,778.3950061053399
386,778.3827866403193
387,778.3697768557614
388,778.3559457824005
389,778.3412648227267
390,778.3257078626069
391,778.3092513776031
392,778.2918745335197
393,778.2735592807485
394,778.2542904420319
395,778.234055793333
396,778.212846137565
397,778.1906553709954
398,778.1674805421943
399,778.1433219034285
400,778.118182954414
401,778.0920704783349
402,778.0649945700344
403,778.0369686562794
404,778.0080095079974
405,777.9781372443738
406,777.9473753286962
407,777.9157505558243
408,777.883293031171
409,777.8500361410831
410,777.8160165145341
411,777.7812739760778
412,777.7458514900618
413,777.7097950961344
414,777.6731538361144
415,777.6359796723087
416,777.5983273973693
417,777.5602545357896
418,777.5218212371578
419,777.4830901613157
420,777.4441263556201
421,777.4049971245563
422,777.3657718919882
423,777.3265220563702
424,777.2873208392589
425,777.2482431274774
426,777.2093653093034
427,777.1707651050657
428,777.132521392556
429,777.0947140276965
430,777.057423660943
431,777.0207315499403
432,776.9847193689659
433,776.9494690157048
434,776.9150624158874
435,776.8815813263121
436,776.8491071367868
437,776.8177206715451
438,776.7875019907264
439,776.7585301925184
440,776.7308832165648
441,776.7046376492317
442,776.6798685313414
443,776.6566491689938
444,776.6350509480981
445,776.6151431532205
446,776.5969927913358
447,776.5806644210469
448,776.5662199878141
449,776.5537186657172
450,776.5432167062444
451,776.5347672945525
452,776.5284204135894
453,776.5242227164216
454,776.5222174070585
455,776.5224441300222
456,776.5249388688375
457,776.5297338535584
458,776.5368574773962
459,776.5463342224958
460,776.5581845949145
461,776.5724250688743
462,776.5890680403659
463,776.6081217901879
464,776.6295904565117
465,776.6534740170642
466,776.6797682810037
467,776.7084648905245
468,776.7395513321572
469,776.7730109576581
470,776.8088230143304
471,776.8469626845924
472,776.8874011345913
473,776.9301055716419
474,776.975039310257
475,777.0221618465258
476,777.0714289406097
477,777.1227927071416
478,777.176201713325
479,777.2316010845369
480,777.2889326172387
481,777.3481348990163
482,777.4091434355727
483,777.4718907844886
484,777.5363066955262
485,777.6023182571894
486,777.6698500491665
487,777.7388243002217
488,777.8091610510903
489,777.8807783219506
490,777.9535922840721
491,778.0275174352553
492,778.1024667786879
493,778.178352004836
494,778.2550836759789
495,778.3325714129844
496,778.4107240839071
497,778.4894499939613
498,778.5686570763868
499,778.6482530836926
500,778.7281457787468
501,778.8082431251784
502,778.8884534765665
503,778.9686857639048
504,779.0488496808581
505,779.1288558663683
506,779.2086160842288
507,779.2880433993118
508,779.3670523501914
509,779.4455591179203
510,779.5234816907231
511,779.6007400243561
512,779.6772561979042
513,779.7529545648038
514,779.8277618988901
515,779.9016075352345
516,779.9744235054975
517,780.046144667509
518,780.1167088287899
519,780.1860568637396
520,780.2541328242028
521,780.3208840431106
522,780.3862612308984
523,780.4502185644022
524,780.5127137679391
525,780.573708186258
526,780.6331668490358
527,780.6910585266161
528,780.747355776739
529,780.802034982056
530,780.855076378269
531,780.9064640727421
532,780.9561860534351
533,781.0042341879845
534,781.0506042127412
535,781.0952957115721
536,781.1383120842559
537,781.1796605043645
538,781.2193518666032
539,781.2574007236442
540,781.293825212536
541,781.3286469708264
542,781.3618910425978
543,781.3935857746937
544,781.423762703483
545,781.4524564325773
546,781.4797045020035
547,781.5055472494086
548,781.5300276639363
549,781.5531912334412
550,781.5750857856898
551,781.5957613241708
552,781.6152698591185
553,781.6336652343458
554,781.6510029505048
555,781.6673399854192
556,781.6827346121556
557,781.6972462155038
558,781.7109351075201
559,781.7238623427606
560,781.7360895338118
561,781.7476786677182
562,781.7586919239219
563,781.7691914943273
564,781.7792394060986
565,781.7888973477548
566,781.7982264990786
567,781.8072873653114
568,781.816139616073
569,781.8248419294194
570,781.8334518414343
571,781.8420256017243
572,781.8506180351476
573,781.8592824100601
574,781.8680703133108
575,781.8770315321896
576,781.8862139435232
577,781.8956634101022
578,781.9054236846023
579,781.9155363211416
580,781.9260405945968
581,781.9369734278129
582,781.948369326878
583,781.9602603246565
584,781.9726759327615
585,781.9856431021085
586,781.9991861921225
587,782.0133269486074
588,782.0280844902171
589,782.0434753033918
590,782.059513245557
591,782.0762095563348
592,782.0935728765057
593,782.1116092744619
594,782.1303222798749
595,782.149712924284
596,782.1697797882757
597,782.1905190549103
598,782.211924569061
599,782.2339879023586
600,782.2566984234708
601,782.2800433734689
602,782.3040079460343
603,782.3285753722556
604,782.35372700977
605,782.3794424360112
606,782.4056995453034
607,782.432474649486
608,782.4597425817147
609,782.4874768030454
610,782.5156495114045
611,782.5442317525371
612,782.5731935325051
613,782.6025039312773
614,782.6321312169217
615,782.6620429598845
616,782.6922061468255
617,782.7225872934677
618,782.7531525558952
619,782.7838678397306
620,782.814698906667
621,782.8456114779152
622,782.8765713342407
623,782.9075444123409
624,782.9384968973601
625,782.9693953113301
626,783.0002065973034
627,783.0308981989145
628,783.0614381351065
629,783.091795069783
630,783.1219383761922
631,783.1518381959183
632,783.1814654924473
633,783.2107920993769
634,783.2397907634106
635,783.2684351822868
636,783.2967000377602
637,783.3245610236643
638,783.3519948690033
639,783.3789793559805
640,783.4054933328847
641,783.4315167218122
642,783.4570305212727
643,783.4820168038055
644,783.5064587088192
645,783.5303404309462
646,783.553647204271
647,783.5763652828183
648,783.5984819176778
649,783.6199853311085
650,783.6408646879449
651,783.6611100646403
652,783.6807124163154
653,783.6996635422132
654,783.7179560499814
655,783.735583319224
656,783.752539464764
657,783.7688193000271
658,783.7844183009088
659,783.7993325704318
660,783.8135588044855
661,783.8270942589356
662,783.8399367183653
663,783.8520844666452
664,783.8635362594505
665,783.8742912987669
666,783.8843492093914
667,783.8937100174174
668,783.9023741306875
669,783.9103423211665
670,783.9176157091688
671,783.9241957493401
672,783.930084218277
673,783.935283203637
674,783.939795094559
675,783.943622573181
676,783.9467686070466
677,783.9492364422006
678,783.9510295967854
679,783.9521518549415
680,783.9526072607823
681,783.9524001121956
682,783.951534954244
683,783.9500165719826
684,783.947849982553
685,783.9450404264312
686,783.9415933577089
687,783.9375144332913
688,783.9328095008884
689,783.9274845856631
690,783.9215458753688
691,783.9149997037985
692,783.907852532352
693,783.9001109295407
694,783.8917815482835
695,783.8828711009108
696,783.8733863319042
697,783.8633339885273
698,783.8527207896349
699,783.8415533930664
700,783.829838362127
701,783.8175821316912
702,783.8047909744597
703,783.7914709678665
704,783.7776279621088
705,783.7632675497608
706,783.7483950374138
707,783.7330154197484
708,783.7171333564272
709,783.7007531521722
710,783.6838787403645
711,783.6665136704537
712,783.6486610993784
713,783.6303237871164
714,783.611504096393
715,783.5922039965087
716,783.5724250711942
717,783.5521685303689
718,783.5314352256778
719,783.5102256696875
720,783.4885400586343
721,783.4663782986304
722,783.4437400352506
723,783.4206246864127
724,783.3970314784392
725,783.3729594851299
726,783.3484076695955
727,783.3233749285287
728,783.2978601385411
729,783.2718622041832
730,783.2453801072617
731,783.2184129570771
732,783.190960041209
733,783.1630208764757
734,783.1345952597205
735,783.1056833180984
736,783.0762855585706
737,783.0464029163534
738,783.0160368021005
739,782.9851891476467
740,782.9538624501728
741,782.9220598147122
742,782.8897849949398
743,782.8570424321853
744,782.8238372925823
745,782.7901755022185
746,782.7560637801362
747,782.7215096690496
748,782.6865215636988
749,782.6511087368107
750,782.6152813626868
751,782.579050538447
752,782.5424283029605
753,782.5054276534952
754,782.4680625601331
755,782.4303479780355
756,782.3922998576691
757,782.3539351531128
758,782.3152718285335
759,782.2763288628718
760,782.2371262527347
761,782.1976850134307
762,782.1580271780439
763,782.118175794402
764,782.0781549197847
765,782.0379896132557
766,781.9977059255349
767,781.9573308863339
768,781.9168924890637
769,781.876419672798
770,781.8359423013725
771,781.7954911395078
772,781.7550978258774
773,781.7147948430746
774,781.6746154844453
775,781.6345938177445
776,781.5947646455613
777,781.5551634624753
778,781.5158264089547
779,781.4767902220835
780,781.4380921832872
781,781.3997700632785
782,781.3618620644894
783,781.3244067612759
784,781.2874430382058
785,781.2510100267317
786,781.2151470405336
787,781.1798935097792
788,781.1452889145239
789,781.1113727174492
790,781.078184296118
791,781.0457628748907
792,781.0141474565885
793,780.9833767539394
794,780.9534891207844
795,780.9245224830145
796,780.8965142692201
797,780.8695013410701
798,780.8435199234564
799,780.8186055344433
800,780.7947929150454
801,780.7721159588484
802,780.7506076414941
803,780.7302999500488
804,780.7112238123101
805,780.6934090261853
806,780.6768841893669
807,780.6616766296225
808,780.6478123360777
809,780.6353158918772
810,780.6242104086198
811,780.6145174629543
812,780.6062570357284
813,780.5994474540691
814,780.5941053367482
815,780.5902455431574
816,780.5878811261742
817,780.5870232891474
818,780.5876813471743
819,780.5898626927991
820,780.5935727662053
821,780.5988150299364
822,780.6055909481322
823,780.6138999702493
824,780.6237395192353
825,780.6351049841519
826,780.6479897172795
827,780.6623850357589
828,780.6782802278353
829,780.6956625637519
830,780.714517311297
831,780.7348277559605
832,780.7565752256102
833,780.7797391195771
834,780.8042969420305
835,780.8302243395267
836,780.8574951426133
837,780.886081411335
838,780.9159534844408
839,780.947080032057
840,780.9794281115903
841,781.012963226642
842,781.0476493887338
843,781.0834491816537
844,781.1203238282409
845,781.1582332594458
846,781.1971361855027
847,781.2369901690541
848,781.2777517000624
849,781.3193762723316
850,781.3618184614495
851,781.4050320039298
852,781.4489698773115
853,781.4935843809384
854,781.5388272171466
855,781.5846495726146
856,781.6310021996867
857,781.6778354975372
858,781.7250995930694
859,781.7727444214389
860,781.8207198060647
861,781.8689755379721
862,781.9174614542947
863,781.9661275157754
864,782.0149238831168
865,782.0638009920602
866,782.1127096270983
867,782.1616009937425
868,782.2104267892794
869,782.2591392719518
870,782.3076913284963
871,782.3560365399651
872,782.4041292457522
873,782.4519246057307
874,782.4993786603931
875,782.5464483888818
876,782.5930917648025
877,782.639267809705
878,782.6849366441152
879,782.7300595359851
880,782.7745989464252
881,782.8185185725852
882,782.8617833875536
883,782.9043596771479
884,782.9462150734953
885,782.9873185853484
886,783.0276406251267
887,783.0671530326991
888,783.1058290959409
889,783.1436435681112
890,783.1805726821307
891,783.2165941618656
892,783.251687230553
893,783.2858326164943
894,783.3190125561289
895,783.3512107945832
896,783.382412583778
897,783.4126046781776
898,783.4417753282632
899,783.4699142718076
900,783.4970127230266
901,783.5230633596941
902,783.5480603083157
903,783.5719991274765
904,783.5948767894861
905,783.6166916604153
906,783.6374434785716
907,783.6571333314104
908,783.675763630851
909,783.693338086949
910,783.7098616798686
911,783.7253406300982
912,783.7397823668583
913,783.7531954946651
914,783.7655897580339
915,783.7769760043298
916,783.7873661448089
917,783.7967731139237
