frame_number,force
0,510.68076000004385
1,510.5972210966691
2,510.52096728552493
3,510.45843074917724
4,510.4144021916496
5,510.39140017726095
6,510.3893037190703
7,510.40531362768235
8,510.4342382805243
9,510.4690494032748
10,510.5016426829295
11,510.5237412013716
12,510.52786489033264
13,510.5082548589358
14,510.46161354968007
15,510.38752763783094
16,510.2884896133549
17,510.1695128780069
18,510.03741639624604
19,509.8999110499689
20,509.7646364230958
21,509.6382793529998
22,509.5258752560738
23,509.4303676800874
24,509.3524805520416
25,509.2909280381397
26,509.2429387412188
27,509.20501023268207
28,509.173757242793
29,509.14669203658354
30,509.12278799306154
31,509.102725672027
32,509.0887907923725
33,509.08446437849364
34,509.0938009390074
35,509.1207214176978
36,509.16834592070245
37,509.2384588727148
38,509.3311554970224
39,509.4446866406012
40,509.5755057772036
41,509.7185158732634
42,509.86750209381205
43,510.0157151906425
44,510.156539907411
45,510.2841485646889
46,510.3940201337568
47,510.4832228290444
48,510.55042104882114
49,510.59565072658285
50,510.6199665495181
51,510.62507235700014
52,510.61301082528803
53,510.5859400634148
54,510.54598916052686
55,510.49517160841714
56,510.4353360995017
57,510.368131852201
58,510.29495943151124
59,510.2168878334074
60,510.1345515555492
61,510.0480718723293
62,509.95704731466463
63,509.86063256455077
64,509.75769529291307
65,509.6470225313627
66,509.52754237601397
67,509.39852763505405
68,509.25975477206333
69,509.1116079872473
70,508.9551402777843
71,508.7921126428456
72,508.6250152175001
73,508.4570407864259
74,508.2919590466717
75,508.13384844961956
76,507.98668240011926
77,507.8538230742286
78,507.73752322058147
79,507.6385498930521
80,507.55601773264243
81,507.4874655214664
82,507.4291493213534
83,507.3764819909343
84,507.32453899615365
85,507.26857016715024
86,507.2044814651152
87,507.1292563884877
88,507.04127414285375
89,506.9404723609077
90,506.82831424331
91,506.70755485501377
92,506.5818450170981
93,506.45524262091914
94,506.3317066225994
95,506.21463501313565
96,506.1064929074473
97,506.00856696112163
98,505.92086828648746
99,505.8421849141237
100,505.7702670769573
101,505.70211762179815
102,505.6343472581786
103,505.5635416516669
104,505.4865906867361
105,505.4009560317584
106,505.3048850177434
107,505.19759255520574
108,505.0794161723859
109,504.95191199372414
110,504.817831049343
111,504.68092448346584
112,504.5455739772461
113,504.41629909316873
114,504.2972202274987
115,504.1915451130003
116,504.10112243285676
117,504.0260999236375
118,503.9647424206391
119,503.91348110260736
120,503.8672463613257
121,503.82007681295113
122,503.76592111489254
123,503.69949326381925
124,503.6170292120584
125,503.5168234030653
126,503.39947746067014
127,503.26784307141247
128,503.12667620295645
129,502.9820472131233
130,502.8405766847662
131,502.7085884196897
132,502.5912908350639
133,502.4921136291071
134,502.4123176539043
135,502.35094538231647
136,502.3051035472144
137,502.27050399994977
138,502.24215218662385
139,502.21506393853895
140,502.18490754585315
141,502.14850152492505
142,502.10413190276483
143,502.0516759070963
144,501.992534817523
145,501.9293903112491
146,501.86580683856926
147,501.8057163005638
148,501.75284908300154
149,501.7102053045891
150,501.67966349087266
151,501.6617869092724
152,501.6558303697707
153,501.65990850291973
154,501.6712785594854
155,501.6867029987612
156,501.70286322494155
157,501.71678528254324
158,501.72622379967476
159,501.729950108372
160,501.7279061780989
161,501.72120465947745
162,501.7119714542314
163,501.7030489424371
164,501.697605765061
165,501.6987183284118
166,501.7089907209817
167,501.7302664169253
168,501.7634573684243
169,501.80847654357115
170,501.8642310720282
171,501.9286392077635
172,501.9986673651423
173,502.07041252975404
174,502.13926407066214
175,502.20017191725015
176,502.248028598372
177,502.2781401916639
178,502.2867266483063
179,502.27137485748665
180,502.23137641705955
181,502.1679067535889
182,502.08402936906026
183,501.98453221161054
184,501.8756201762391
185,501.76449638895645
186,501.658867193148
187,501.56640733409387
188,501.49422272151173
189,501.4483419775984
190,501.4332558993069
191,501.4515190672209
192,501.5034372388449
193,501.58687752081886
194,501.6972446117611
195,501.8276672662036
196,501.9694338027621
197,502.11268984381746
198,502.2473553461698
199,502.36414746843155
200,502.4555494554654
201,502.51657087800106
202,502.5451913375123
203,502.5424392717845
204,502.5121160387256
205,502.46023097434204
206,502.3942533498009
207,502.32229840874356
208,502.25235063493614
209,502.1916011788907
210,502.14594691795895
211,502.11967032813
212,502.1152930024966
213,502.13357148058486
214,502.1735883676206
215,502.23289504390834
216,502.3076877729884
217,502.3930337392108
218,502.4831836602627
219,502.57199747815173
220,502.65347538147086
221,502.72234701426333
222,502.77463995957464
223,502.8081291784832
224,502.8225725090962
225,502.8196787233657
226,502.802829124217
227,502.77664177972065
228,502.7464833143161
229,502.71799290394426
230,502.69663094967086
231,502.6872449227055
232,502.6936637720879
233,502.71836747947737
234,502.7622985185019
235,502.8248632948274
236,502.9041188715079
237,502.9970900500894
238,503.100146863426
239,503.20938805507666
240,503.3209964291699
241,503.431544097887
242,503.53822957499654
243,503.6390265105709
244,503.7327244076966
245,503.81885289816654
246,503.89749816076556
247,503.96903608503635
248,504.0338215217443
249,504.0918840710559
250,504.1426847808327
251,504.1849870096357
252,504.21689100970696
253,504.2360693756151
254,504.2402074717212
255,504.2275955127282
256,504.19775210750373
257,504.1519131309975
258,504.0932248854037
259,504.0265459607315
260,503.95786615568846
261,503.89345313155144
262,503.83890482828104
263,503.7983052764394
264,503.7736555489125
265,503.76468825827095
266,503.7690877450019
267,503.78305239176495
268,503.8020742322918
269,503.821783573123
270,503.8387055040657
271,503.850794635342
272,503.8576596215872
273,503.8604610949142
274,503.86154426135727
275,503.8639177675662
276,503.87069642640324
277,503.8845968547679
278,503.90753541308993
279,503.94034672944105
280,503.9826284682952
281,504.03272006198705
282,504.0878226049098
283,504.1442526551088
284,504.19780268882175
285,504.24416608991544
286,504.2793749000553
287,504.3001967924083
288,504.30444941420467
289,504.2912080423355
290,504.2608941292654
291,504.21523777471504
292,504.1571122059043
293,504.09024568839357
294,504.0188287863625
295,503.94705264644625
296,503.8786329950556
297,503.8163924753338
298,503.7619827378149
299,503.7158095531803
300,503.6771750697113
301,503.6445952919243
302,503.61621660660865
303,503.59024902989796
304,503.5653417493035
305,503.54083549402856
306,503.51684043143956
307,503.4941219750134
308,503.4738307043716
309,503.45716190953124
310,503.44504491577163
311,503.43793918828703
312,503.43577858312983
313,503.4380730482565
314,503.44413719533253
315,503.45336338156903
316,503.46542424107986
317,503.48031217313235
318,503.49819840412596
319,503.51917816349044
320,503.54301201261876
321,503.5689597494758
322,503.5957570561502
323,503.62174136777674
324,503.645102572819
325,503.6642063382569
326,503.6779173646584
327,503.6858564768036
328,503.68855648544167
329,503.6875072727742
330,503.68508822111494
331,503.68439470321
332,503.68898414473483
333,503.70257913184344
334,503.7287582961838
335,503.7706516177557
336,503.83064945542895
337,503.9101333497676
338,504.009237777901
339,504.12665978769405
340,504.2595475301304
341,504.4035090773175
342,504.5527830961569
343,504.70060265121833
344,504.83975875432185
345,504.9633259771454
346,505.0654553200447
347,505.14209478513004
348,505.19149645128505
349,505.2144186540018
350,505.214005372336
351,505.1953822227563
352,505.16503335055575
353,505.13002991754223
354,505.09718896226616
355,505.0722551510922
356,505.05920908752904
357,505.0598082598283
358,505.07345164877796
359,505.09741041351697
360,505.1273850557576
361,505.15826602916627
362,505.1849281255046
363,505.202896651387
364,505.20878247867364
365,505.20047203047153
366,505.17713933621303
367,505.1391847773856
368,505.08818303761245
369,505.0268529032176
370,504.95898792945934
371,504.88926325580115
372,504.8228763073068
373,504.7650517005958
374,504.7204921845297
375,504.69286510620077
376,504.6843922939777
377,504.69558750915877
378,504.7251708207104
379,504.7701746807174
380,504.8262330174248
381,504.888019569882
382,504.9497903231122
383,505.0059873000331
384,505.051859855381
385,505.0840451715928
386,505.1010316097778
387,505.1034222716983
388,505.09393038837356
389,505.07707519467607
390,505.0586020007839
391,505.04470863399973
392,505.0412012221384
393,505.0527104337595
394,505.08207803463904
395,505.12999115712944
396,505.1949101560784
397,505.27329835232877
398,505.3601115164113
399,505.44945681763807
400,505.53530606718795
401,505.61214763022457
402,505.6754772208994
403,505.72206384031256
404,505.7499871166924
405,505.758504243687
406,505.7478330255555
407,505.71892263017776
408,505.6732509506945
409,505.6126653865432
410,505.5392776254014
411,505.45542148776934
412,505.3636749457731
413,505.2669275193296
414,505.1684468614005
415,505.07188058917984
416,504.98113678335966
417,504.90011807484376
418,504.8323308641852
419,504.7804444238856
420,504.74591541194377
421,504.72879344076273
422,504.72777112873155
423,504.74045928060144
424,504.76380020843527
425,504.79451922440137
426,504.82955291728854
427,504.86643596835364
428,504.90363614125096
429,504.94080703398816
430,504.97891172000897
431,505.0201725549517
432,505.0678192680281
433,505.1256366859006
434,505.19735801969335
435,505.2860008609403
436,505.39327428809054
437,505.5191740521428
438,505.6618330339519
439,505.8176331477674
440,505.98153903282656
441,506.1475921875638
442,506.30949944595363
443,506.4612507614119
444,506.5977024796232
445,506.7150636835702
446,506.8112267004823
447,506.8858907998843
448,506.94044537298396
449,506.97761289526454
450,507.0009041833089
451,507.0139946097555
452,507.02016291722634
453,507.0219203346234
454,507.020894871726
455,507.01794915388894
456,507.0134382984708
457,507.0074868360574
458,507.00018634875005
459,506.9916695441483
460,506.982075556288
461,506.97146779137114
462,506.959785991958
463,506.94689372981804
464,506.9327256290257
465,506.91748129828846
466,506.9017914897098
467,506.88679809201494
468,506.8741220917264
469,506.86572465035135
470,506.86368366914274
471,506.8699078489411
472,506.8858073885674
473,506.9119557747702
474,506.947805495423
475,506.99152910405417
476,507.04002508211613
477,507.08907626868694
478,507.1336166188096
479,507.16806333163584
480,507.18668656476314
481,507.18399625970073
482,507.15512326166504
483,507.0961710529519
484,507.0045204262592
485,506.87907433490017
486,506.7204260577293
487,506.53092939199956
488,506.3146605059536
489,506.0772863345073
490,505.82587395826636
491,505.56866842452627
492,505.31483018765744
493,505.07408279872004
494,504.8562144731373
495,504.670417833126
496,504.52451696933616
497,504.4241845253435
498,504.3722713213645
499,504.36835175137196
500,504.4085436449327
501,504.4856201097638
502,504.58941222428354
503,504.70749599040244
504,504.82613909589344
505,504.9314412600215
506,505.0105543154694
507,505.0528436178382
508,505.05085943673663
509,505.0010126514272
510,504.9038839969591
511,504.7641422657598
512,504.5900988667767
513,504.3929640420174
514,504.18588064595195
515,503.9828056147943
516,503.7973089018169
517,503.6413736268037
518,503.5243016122121
519,503.45184267310725
520,503.4256618996551
521,503.44322731166284
522,503.4981434090667
523,503.58088980737045
524,503.6798657471917
525,503.78260624024784
526,503.87703127643294
527,503.95260406398745
528,504.0012888227107
529,504.018211766103
530,504.00195477070497
531,503.95445708683894
532,503.8805566596838
533,503.7872534483871
534,503.6828122179634
535,503.57583421443024
536,503.47440957588054
537,503.3854226836902
538,503.31404441386593
539,503.26342381220195
540,503.23458111148943
541,503.2264932504179
542,503.2363479772385
543,503.25992605095604
544,503.29206567486045
545,503.3271774841186
546,503.3597928808444
547,503.3851143637245
548,503.3994988999263
549,503.4007841894026
550,503.3883945640887
551,503.3632286786474
552,503.32739038892186
553,503.2838394980996
554,503.2360150368027
555,503.1874536814134
556,503.1414146671894
557,503.10053394983976
558,503.06655429815436
559,503.0401960331569
560,503.02122573858065
561,503.0087389594433
562,503.0016077192562
563,502.9989803785616
564,503.0006900885915
565,503.0074489732327
566,503.02077618940064
567,503.04270043080834
568,503.07534809408907
569,503.1205454234744
570,503.17952424411385
571,503.2527556205912
572,503.3398877071885
573,503.4397551794512
574,503.5504390633919
575,503.6693577129572
576,503.79336071087835
577,503.9188007635662
578,504.0415880938523
579,504.15727227685556
580,504.2612168258719
581,504.3489139890076
582,504.4164370391884
583,504.46096376621836
584,504.48125508951506
585,504.4779657494724
586,504.45370395526646
587,504.41281603189697
588,504.3609237168678
589,504.3042779995454
590,504.249014705645
591,504.20040742300307
592,504.1622171136644
593,504.13622913211486
594,504.12204015106295
595,504.1171170592788
596,504.1171109906686
597,504.1163810285448
598,504.10866849216933
599,504.08785688067917
600,504.0487373168854
601,503.9876742614192
602,503.9030552933321
603,503.7954356284911
604,503.66735491417245
605,503.5228864338485
606,503.367040617214
607,503.20516348750033
608,503.04244962880483
609,502.88364539483354
610,502.7329661347844
611,502.5941965067589
612,502.47088861496167
613,502.3665317875652
614,502.284561748803
615,502.2281194803105
616,502.19955293909004
617,502.1997496203809
618,502.2274618550031
619,502.27881711781987
620,502.3471849683895
621,502.42350378912266
622,502.49706678313765
623,502.5566555749139
624,502.59182742442124
625,502.5941312704649
626,502.55805128083523
627,502.48154551048754
628,502.36613931224673
629,502.2166114171811
630,502.04034865730785
631,501.8464546773364
632,501.64471364806207
633,501.44454472043043
634,501.25410884948036
635,501.0797079147407
636,500.9255394989833
637,500.79377636187735
638,500.6848776925071
639,500.59802723560347
640,500.53160962403274
641,500.48365491266674
642,500.4521978595169
643,500.43551891180385
644,500.43225613944554
645,500.44139483759403
646,500.46215641115975
647,500.49382724103714
648,500.53558579415164
649,500.58638466142423
650,500.64491537954837
651,500.70964351913625
652,500.7788775201415
653,500.8508408864249
654,500.92374220078443
655,500.9958594214028
656,501.0656596707387
657,501.1319612823293
658,501.19412064071594
659,501.25220421595446
660,501.30709366597443
661,501.3604773419204
662,501.4147099864409
663,501.47256030659224
664,501.5368885019936
665,501.6102938969816
666,501.69476302020934
667,501.7913493563032
668,501.8999256252519
669,502.01905549452204
670,502.1460276349001
671,502.277073656447
672,502.407746689285
673,502.5333865704515
674,502.64957587883106
675,502.75251441344034
676,502.8392882530418
677,502.9080463972938
678,502.95810018264564
679,502.98993783819446
680,503.00512875381304
681,503.0060979059799
682,502.9957747094513
683,502.97714860460894
684,502.9527906158264
685,502.92442302702074
686,502.8926276305227
687,502.85676815695524
688,502.81516689561965
689,502.76552335126775
690,502.70550185642793
691,502.6333695142345
692,502.5485594220605
693,502.4520599910058
694,502.346562570768
695,502.2363293883931
696,502.1267892985601
697,502.0239326452816
698,501.933626646011
699,501.86097457714675
700,501.80979742956225
701,501.7822616125594
702,501.7786474746821
703,501.7972609001448
704,501.8345143386807
705,501.88521173070745
706,501.94304369516595
707,502.0012451619874
708,502.0533204922688
709,502.0937282909268
710,502.11844026891674
711,502.12532546624993
712,502.114341034738
713,502.0875257545305
714,502.04880049428436
715,502.00358994546633
716,501.9582915991182
717,501.91962989464275
718,501.8939500379053
719,501.88652633463937
720,501.90097449713335
721,501.93885855847714
722,501.99956735419175
723,502.08049782858524
724,502.1775206331703
725,502.28563285073
726,502.399656089862
727,502.51484116996807
728,502.6272872072929
729,502.73414557959416
730,502.8336343990707
731,502.9249216289529
732,503.0079359165609
733,503.0831430963252
734,503.1513095055988
735,503.21327490086674
736,503.26976345055004
737,503.32124933262276
738,503.36786762910225
739,503.4093511351013
740,503.4449955491856
741,503.4736872132343
742,503.4940351808914
743,503.5046227657432
744,503.50435189232246
745,503.4928238210477
746,503.47068841585
747,503.4398864985865
748,503.4037057714762
749,503.3665915304244
750,503.3337048773188
751,503.3102818339427
752,503.3008943914616
753,503.3087373165009
754,503.33505671592053
755,503.3788060930205
756,503.43657920774996
757,503.50282925056456
758,503.57033910964
759,503.6308735742245
760,503.6759380910112
761,503.69758358370507
762,503.68920885687515
763,503.6463002600404
764,503.56701623146984
765,503.45250917074657
766,503.30691408673385
767,503.1370087825179
768,502.951614844464
769,502.7608342094411
770,502.57521368226134
771,502.4049223960655
772,502.2590241717055
773,502.1449184658323
774,502.06799375098194
775,502.0314876247975
776,502.03650645561606
777,502.08214619148407
778,502.1656665376569
779,502.28268759874044
780,502.4274036862438
781,502.59284307486723
782,502.7712250634056
783,502.95445611589724
784,503.13476132067126
785,503.30538207391027
786,503.4612185382683
787,503.5992842157178
788,503.718872844993
789,503.82139864156943
790,503.90993867234926
791,503.9885628345764
792,504.0615750853766
793,504.13280772387486
794,504.2050990578877
795,504.28003515446215
796,504.35796199906207
797,504.4382057476459
798,504.51940150374344
799,504.5998332795942
800,504.6777195729344
801,504.7514190345245
802,504.81955724116017
803,504.8810800014662
804,504.93523175841966
805,504.98145720944296
806,505.0192379868281
807,505.04789992822583
808,505.06644789045885
809,505.0734865401584
810,505.0672574567758
811,505.04578137612066
812,505.00707021422653
813,504.94937470970245
814,504.87143786241256
815,504.7727167718564
816,504.65353088871376
817,504.5151114456034
818,504.359556625688
819,504.18971720246327
820,504.0090408932632
821,503.8213998960748
822,503.63092060295884
823,503.4418246658644
824,503.25827810232283
825,503.0842388039731
826,502.9232954507204
827,502.77849557122926
828,502.65216648116444
829,502.5457474659805
830,502.45966930625985
831,502.3933188682882
832,502.3451083307691
833,502.3126481124468
834,502.29300925434876
835,502.28304719455673
836,502.2797407000656
837,502.2804866609121
838,502.28329584605785
839,502.28686024606856
840,502.2904977465558
841,502.2940057433277
842,502.29746632281865
843,502.3010524673134
844,502.30489230215807
845,502.30904306684863
846,502.31359250318576
847,502.3188481006821
848,502.3255238811663
849,502.33482340009476
850,502.3483549057069
851,502.3678773452844
852,502.39493446046055
853,502.4304740188185
854,502.4745643211456
855,502.5263024415808
856,502.5839575563445
857,502.64532440685946
858,502.70819994646985
859,502.7708584081889
860,502.83239546966973
861,502.8928430757657
862,502.95301934013014
863,503.0141575253444
864,503.07742226207785
865,503.1434399466681
866,503.21194421177285
867,503.2815929769624
868,503.3499731543465
869,503.41377936971116
870,503.46913533206674
871,503.51201927168006
872,503.53875082440527
873,503.5464895916581
874,503.53368703153564
875,503.5004272939992
876,503.44859051753025
877,503.38178099627766
878,503.30499664356864
879,503.22407653941
880,503.14502662977236
881,503.0733603168395
882,503.0135864110937
883,502.9689341521717
884,502.94133798322355
885,502.93163641260674
886,502.93989175504583
887,502.9657220224709
888,503.0085544046733
889,503.06775542439476
890,503.1426465858835
891,503.2324519973486
892,503.33623754442834
893,503.4528944114462
894,503.58119267448643
895,503.7198874987396
896,503.8678269434849
