acceleration,velocity,displacement
-0.00020842562784951723,0.0,0.0
-0.0002979671405732918,-1.2659819210570226e-07,-3.1649548026425564e-11
-0.00039070972819602723,-2.9876740929803203e-07,-1.3799094837735913e-10
-0.00048668885441228066,-5.18117054950109e-07,-3.4221206443939436e-10
-0.0005859709553102844,-7.862820073807503e-07,-6.683118300221091e-10
-0.000688650903702746,-1.104937472134008e-06,-1.1411166999007988e-09
-0.0007948490533387025,-1.4758124613943702e-06,-1.7863041832828933e-09
-0.0009047079246845415,-1.9007017059001813e-06,-2.6304327251065314e-09
-0.0010183886238610078,-2.3814758430365687e-06,-3.700977112340719e-09
-0.0011360671044142452,-2.920089775105382e-06,-5.0263685168762065e-09
-0.001257930379084189,-3.5185891459799904e-06,-6.636038247147549e-09
-0.0013841727693340651,-4.179114933084554e-06,-8.560464266913685e-09
-0.0015149922564190467,-4.903906189522831e-06,-1.083121954756553e-08
-0.0016505869768850387,-5.695300997848853e-06,-1.3481021344408452e-08
-0.0017911518871011579,-6.555735713845402e-06,-1.6543780522332014e-08
-0.0019368756059441263,-7.487742587106723e-06,-2.0054650097570047e-08
-0.0020879374405064727,-8.493945848719373e-06,-2.405007220652657e-08
-0.002244504614694603,-9.577056362519642e-06,-2.8567822759336325e-08
-0.0024067297485213138,-1.073986495332362e-05,-3.364705308829714e-08
-0.0025747486539159517,-1.1985234553932937e-05,-3.932832796511128e-08
-0.002748678502139935,-1.3316091342946908e-05,-4.565365943933124e-08
-0.002928616383243674,-1.473541506429281e-05,-5.266653604114117e-08
-0.0031146382422509965,-1.6246228720666477e-05,-6.0411946987381e-08
-0.003306798156665593,-1.7851587820395626e-05,-6.893640112264652e-08
-0.003505127913346139,-1.955456933789856e-05,-7.828794041222007e-08
-0.0037096368386848105,-2.1358260525906296e-05,-8.851614787817128e-08
-0.003920311829707757,-2.326574769300444e-05,-9.967214993289897e-08
-0.0041371175296087866,-2.5280105032833574e-05,-1.1180861311435848e-07
-0.004359996596771369,-2.7404383564428615e-05,-1.2497973526367401e-07
-0.004588870032619559,-2.9641600221776347e-05,-1.3924123121022525e-07
-0.004823637552925231,-3.199472711816255e-05,-1.5465031304520998e-07
-0.005064177997803231,-3.4466681005844664e-05,-1.7126566507621179e-07
-0.00531034977291667,-3.706031294852464e-05,-1.8914741356480412e-07
-0.0055619913054647425,-3.977839821811999e-05,-2.0835709135646527e-07
-0.005818921495212154,-4.262362641828921e-05,-2.2895759751556757e-07
-0.00608094014993277,-4.559859182957544e-05,-2.510131520775337e-07
-0.006347828413546967,-4.8705783970445374e-05,-2.7458924602753894e-07
-0.006619349212652965,-5.1947578376995354e-05,-2.9975258661439914e-07
-0.00689524775241821,-5.532622761826315e-05,-3.265710381132138e-07
-0.007175252088425498,-5.884385257847408e-05,-3.551135581623981e-07
-0.007459073799546948,-6.250243405046719e-05,-3.854501298196334e-07
-0.007746408795527483,-6.63038046992358e-05,-4.1765168950705914e-07
-0.00803693830398994,-7.024964147411516e-05,-4.517900510503969e-07
-0.008330330082927075,-7.434145857084441e-05,-4.879378260616368e-07
-0.008626239895073015,-7.858060106534442e-05,-5.261683409706841e-07
-0.008924313269803438,-8.296823935656354e-05,-5.665555510761611e-07
-0.009224187574132793,-8.75053645675476e-05,-6.091739520571889e-07
-0.009525494412995904,-9.219278506432978e-05,-6.540984894651582e-07
-0.009827862370374273,-9.703112426017231e-05,-7.014044667962838e-07
-0.01013092008398399,-0.00010202081987376187,-7.511674528297673e-07
-0.01043429962519124,-0.00010716212480105568,-8.034631889984717e-07
-0.010737640141094566,-0.00011245510974262713,-8.583674976343925e-07
-0.011040591705705042,-0.00011789966770432703,-9.15956191996131e-07
-0.01134281931419107,-0.00012349552045930106,-9.76304989037038e-07
-0.01164400693428695,-0.00012924222702142058,-1.0394894259072185e-06
-0.011943861504448795,-0.00013513919413110452,-1.1055847811953497e-06
-0.012242116744993665,-0.00014118568869346513,-1.174666001901492e-06
-0.012538536635470112,-0.00014738085203858106,-1.2468076370845035e-06
-0.012832918417215983,-0.0001537237158017526,-1.322083779044587e-06
-0.01312509500318146,-0.00016021321915685196,-1.400568012784238e-06
-0.01341493670928178,-0.00016684822708496776,-1.4823333743446928e-06
-0.013702352256850613,-0.00017362754932650086,-1.56745231844756e-06
-0.013987289031649508,-0.00018054995964862587,-1.6559966956913416e-06
-0.01426973261682945,-0.00018761421506074562,-1.7480377393686845e-06
-0.01454970564039076,-0.00019481907462505068,-1.8436460617901336e-06
-0.014827265991867532,-0.00020216331753311525,-1.942891659829675e-06
-0.015102504473194833,-0.00020964576014938083,-2.045843929250299e-06
-0.015375541959316402,-0.00021726527175750866,-2.1525716872270216e-06
-0.015646526153906968,-0.0002250207887858145,-2.263143202362852e-06
-0.01591562803040582,-0.00023291132733189272,-2.377626231392279e-06
-0.01618303804802688,-0.0002409359938515009,-2.4960880616881274e-06
-0.016448962229288728,-0.0002490939939208298,-2.6185955586312102e-06
-0.016713618179963797,-0.00025738463902314293,-2.7452152168672035e-06
-0.016977231119695117,-0.00026580735134805765,-2.8760132144600036e-06
-0.01724002996993281,-0.00027436166662046465,-3.011055468952134e-06
-0.01750224352058099,-0.0002830472349930931,-3.1504076943555236e-06
-0.01776409667837957,-0.00029186382004283323,-3.2941354581145053e-06
-0.01802580679660083,-0.00030081129591157834,-3.442304237103108e-06
-0.01828758009504141,-0.0003098896426344889,-3.594979471739625e-06
-0.018549608188296002,-0.00031909893970532324,-3.752226617324578e-06
-0.018812064738051387,-0.00032843935793691007,-3.9141111917351365e-06
-0.019075102233421574,-0.0003379111496797783,-4.080698818639309e-06
-0.019338848890851582,-0.00034751463746084663,-4.2520552654244645e-06
-0.01960340565807198,-0.0003572502010980775,-4.428246475064195e-06
-0.0198688433102257,-0.0003671182633401519,-4.609338591173753e-06
-0.020135199644100203,-0.0003771192740787334,-4.795397975528474e-06
-0.020402476802458276,-0.000387253693190373,-4.986491217345751e-06
-0.020670638782008952,-0.0003975219720864898,-5.182685133664966e-06
-0.02093960918803204,-0.0004079245340790001,-5.384046760206339e-06
-0.021209269298170713,-0.00041846175370055077,-5.590643332151226e-06
-0.021479456492905044,-0.00042913393514831973,-5.802542254363444e-06
-0.021749963101365268,-0.0004399412900468873,-6.019811060662246e-06
-0.022020535695780212,-0.0004508839147461737,-6.2425173618605115e-06
-0.02229087484923378,-0.0004619617673824272,-6.470728782392662e-06
-0.0225606353591005,-0.0004731746449345107,-6.7045128854718964e-06
-0.022829426936388855,-0.00048452216050838304,-6.94393708683262e-06
-0.0230968153638314,-0.0004960037210834381,-7.189068557230575e-06
-0.023362324126597306,-0.0005076185059560453,-7.439974113990445e-06
-0.02362543651676888,-0.0005193654461168869,-7.696720102008678e-06
-0.023885598206614272,-0.0005312432047977326,-7.959372264737333e-06
-0.02414222027730435,-0.0005432501594187123,-8.227995605791445e-06
-0.024394682679875726,-0.0005553843851580073,-8.502654241935625e-06
-0.024642338094610045,-0.0005676436403516288,-8.783411248313034e-06
-0.02488451614279983,-0.0005800253539109812,-9.070328496878687e-06
-0.025120527887984682,-0.0005925266149186773,-9.363466489086102e-06
-0.02534967054345715,-0.0006051441645265377,-9.662884183947406e-06
-0.025571232288644902,-0.0006178743902345632,-9.96863882263768e-06
-0.025784497096498757,-0.0006307133225808492,-1.0280785750841533e-05
-0.025988749485185453,-0.0006436566342262702,-1.0599378240043313e-05
-0.026183279124290682,-0.0006566996413786392,-1.092446730894454e-05
-0.02636738524603787,-0.0006698373074712213,-1.1256101546157005e-05
-0.026540380834521846,-0.0006830642489913612,-1.1594326935272652e-05
-0.02670159658602951,-0.0006963747433464991,-1.1939186683357116e-05
-0.026850384644502276,-0.0007097627386541321,-1.2290721053857274e-05
-0.026986122116300117,-0.0007232218653443327,-1.264896720485689e-05
-0.027108214364213103,-0.000736745449464461,-1.3013959033559089e-05
-0.027216098078734024,-0.0007503265275751978,-1.3385727027819003e-05
-0.027309244123935258,-0.0007639578631258651,-1.376429812549427e-05
-0.02738716015098335,-0.0007776319641945947,-1.4149695582324384e-05
-0.02744939296632075,-0.0007913411024739207,-1.4541938848991514e-05
-0.027495530641500766,-0.0008050773333758761,-1.4941043457953963e-05
-0.027525204361215697,-0.0008188325171265553,-1.534702092057957e-05
-0.027538090020539398,-0.0008325983407219941,-1.5759878635041706e-05
-0.027533909591258007,-0.0008463663406249434,-1.617961980537844e-05
-0.027512432269992313,-0.0008601279260902559,-1.660624337205724e-05
-0.027473475396809322,-0.0008738744030069563,-1.7039743954331544e-05
-0.027416905106691678,-0.0008875969981328315,-1.748011180461649e-05
-0.027342636664537352,-0.0009012868835756388,-1.7927332775043608e-05
-0.027250634440786212,-0.0009149352013519697,-1.838138829627551e-05
-0.027140911498488463,-0.0009285330878367883,-1.88422553685727e-05
-0.027013528773005398,-0.0009420716979046619,-1.930990656500806e-05
-0.026868593831229786,-0.0009555422285557207,-1.9784310046623157e-05
-0.026706259202602445,-0.0009689359418141787,-2.026542958921563e-05
-0.02652672028285499,-0.000982244186685543,-2.075322462134056e-05
-0.02633021282330101,-0.000995458419962082,-2.1247650273002466e-05
-0.02611701002993175,-0.0010085702256753904,-2.1748657434411834e-05
-0.025887419306271295,-0.0010215713330094412,-2.2256192824083044e-05
-0.02564177868968188,-0.0010344536325084294,-2.2770199065462513e-05
-0.02538045306034418,-0.0010472091904459358,-2.3290614771201105e-05
-0.025103830238114258,-0.0010598302612705504,-2.3817374634130226e-05
-0.024812317106395393,-0.0010723092981066778,-2.435040952397453e-05
-0.024506335904459685,-0.0010846389613593916,-2.4889646588841048e-05
-0.024186320817544207,-0.0010968121255398925,-2.5435009360565867e-05
-0.023852714977331622,-0.0011088218844886113,-2.5986417863072992e-05
-0.02350596796544463,-0.0011206615552243053,-2.654378872300122e-05
-0.023146533886176057,-0.0011323246806872105,-2.71070352819791e-05
-0.02277487004389864,-0.0011438050316697292,-2.7676067710068334e-05
-0.02239143623234499,-0.00115509660823879,-2.8250793120045465e-05
-0.021996694619328547,-0.0011661936409517084,-2.8831115682343088e-05
-0.021591110186056653,-0.0011770905921530547,-2.9416936740619278e-05
-0.021175151653573605,-0.0011877821576129623,-3.0008154928060782e-05
-0.020749292808318207,-0.001198263268728435,-3.060466628464613e-05
-0.020314014129810282,-0.0012085290954629672,-3.120636437569398e-05
-0.019869804618842118,-0.0012185750501501303,-3.1813140412097255e-05
-0.019417163714731164,-0.0012283967922335237,-3.242488337269317e-05
-0.018956603178276334,-0.0012379902339567756,-3.3041480129240745e-05
-0.01848864881527922,-0.0012473515469551646,-3.366281557446873e-05
-0.018013841928638245,-0.001256477169641144,-3.42887727536178e-05
-0.017532740406828062,-0.0012653638152250106,-3.491923299983434e-05
-0.017045919374287694,-0.0012740084801702895,-3.5554076073683166e-05
-0.01655397134478044,-0.0012824084528500566,-3.6193180306938255e-05
-0.016057505836169116,-0.001290561322145294,-3.6836422750687095e-05
-0.01555714842375938,-0.001298464985710276,-3.748367932765099e-05
-0.015053539230773051,-0.0013061176576239092,-3.8134824988484534e-05
-0.014547330884921782,-0.001313517875152833,-3.878973387167872e-05
-0.014039186008541638,-0.0013206645043761988,-3.944827946656098e-05
-0.013529774339586076,-0.0013275567444632308,-4.011033477877084e-05
-0.013019769589599519,-0.0013341941304455271,-4.077577249749803e-05
-0.012509846140249305,-0.0013405765343779893,-4.144446516370391e-05
-0.012000675678498555,-0.0013467041648326764,-4.211628533850658e-05
-0.011492923876968469,-0.0013525775647215432,-4.279110577089514e-05
-0.010987247229172754,-0.0013581976074980785,-4.346879956395005e-05
-0.010484290137293928,-0.0013635654918396952,-4.414924033878449e-05
-0.009984682326335375,-0.0013686827349556026,-4.4832302395483315e-05
-0.00948903663686379,-0.0013735511646964023,-4.5517860870396315e-05
-0.008997947236506596,-0.001378172910664745,-4.62057918892366e-05
-0.008511988280859995,-0.0013825503945440866,-4.689597271553881e-05
-0.008031713036458476,-0.0013866863198734162,-4.7588281894143186e-05
-0.007557653447992632,-0.001390583661494529,-4.828259938948517e-05
-0.007090320095149421,-0.0013942456548803146,-4.8978806718578885e-05
-0.006630202453425769,-0.0013976757855174583,-4.967678707867833e-05
-0.00617776935798651,-0.0014008777784703115,-5.037642546967527e-05
-0.005733469571928395,-0.0014038555882027902,-5.107760881134355e-05
-0.005297732374607884,-0.0014066133886894243,-5.17802260555666e-05
-0.004870968102045409,-0.0014091555638085875,-5.2484168293691104e-05
-0.004453568581953517,-0.0014114866979795873,-5.3189328859138145e-05
-0.004045907410309239,-0.001413611566977653,-5.3895603425377453e-05
-0.003648340021729447,-0.0014155351288356625,-5.460289009933078e-05
-0.003261203518361115,-0.0014172625147206852,-5.531108951021987e-05
-0.0028848162411940666,-0.001418799019660574,-5.602010489381518e-05
-0.0025194770886325835,-0.0014201500929930306,-5.672984217197858e-05
-0.002165464606257522,-0.0014213213284167531,-5.744021002733103e-05
-0.0018230358865595076,-0.0014223184535399574,-5.8151119972820205e-05
-0.0014924253236442277,-0.0014231473188425084,-5.886248641591582e-05
-0.0011738432611651966,-0.0014238138859887107,-5.957422671712363e-05
-0.0008674745523228616,-0.0014243242154420826,-6.028626124248133e-05
-0.0005734770278273823,-0.00142468445333712,-6.099851340967613e-05
-0.0002919798530372149,-0.0014249008175573363,-6.171090972739974e-05
-2.3081754904832386e-05,-0.0014249795829593217,-6.242337982752891e-05
0.00023315088807934433,-0.001424927065676028,-6.313585648968775e-05
0.0004766860775675725,-0.0014247496064346164,-6.38482756577154e-05
0.0007075283075083055,-0.0014244535528383474,-6.456057644753365e-05
0.0009257206966739631,-0.001424045240587302,-6.527270114589005e-05
0.0011313470746924642,-0.0014235309736444603,-6.5984595199448e-05
0.0013245339549437312,-0.0014229170033870512,-6.669620719370588e-05
0.0015054523288177133,-0.0014222095068161108,-6.740748882125667e-05
0.0016743192197431324,-0.0014214145639289705,-6.811839483894294e-05
0.0018313989453407728,-0.0014205381343876996,-6.882888301352211e-05
0.001977004048963971,-0.0014195860336391234,-6.953891405552881e-05
0.0021114958713809927,-0.0014185639086590372,-7.024845154110336e-05
0.0022352847364340597,-0.0014174772135070834,-7.095746182164488e-05
0.0023488297216907573,-0.0014163311848925523,-7.16659139212448e-05
0.0024526379793898103,-0.0014151308179672821,-7.237377942195975e-05
0.002547263570690911,-0.001413880842579762,-7.30810323370965e-05
0.002633305783138348,-0.0014125857002413047,-7.378764897280177e-05
0.0027114069143779084,-0.0014112495220669256,-7.449360777837883e-05
0.0027822495169354147,-0.0014098761079590972,-7.519888918588534e-05
0.002846553107659059,-0.0014084689073029487,-7.590347543970086e-05
0.0029050703574978183,-0.0014070310014366594,-7.660735041688576e-05
0.0029585827960142835,-0.0014055650881482813,-7.7310499439282e-05
0.0030078960848808744,-0.0014040734684280575,-7.801290907842607e-05
0.00305383492665839,-0.0014025580356751726,-7.871456695445188e-05
0.00309723767607649,-0.0014010202675244889,-7.94154615302518e-05
0.003138950714341073,-0.0013994612204268845,-8.011558190223964e-05
0.0031798226384452907,-0.001397881527088688,-8.081491758911853e-05
0.003220698310953236,-0.0013962813968513383,-8.151345832010354e-05
0.0032624128123718375,-0.0013946606190705071,-8.2211193824084e-05
0.0033057853370015836,-0.0013930185695331637,-8.290811362123491e-05
0.0033516130720800483,-0.0013913542199308932,-8.360420681860092e-05
0.0034006650970247188,-0.001389666150388617,-8.42994619111808e-05
0.0034536763339837206,-0.001387952565030865,-8.499386659003567e-05
0.003511341576131541,-0.0013862113105533361,-8.568740755893172e-05
0.0035743096208388624,-0.0013844398977540936,-8.638007036100857e-05
0.0036431775416977904,-0.0013826355259634595,-8.707183921693796e-05
0.003718485142866527,-0.0013807951102923184,-8.776269687600191e-05
0.0038007096481612692,-0.0013789153115945614,-8.845262448147363e-05
0.003890260684833327,-0.0013769925690113127,-8.91416014516251e-05
0.003987475625196282,-0.0013750231349338054,-8.982960537761137e-05
0.004092615344782261,-0.0013730031121913107,-9.051661193939266e-05
0.004205860444872082,-0.001370928493243897,-9.120259484075146e-05
0.00432730797602038,-0.001368795201138674,-9.18875257643471e-05
0.0044569686927586755,-0.0013665991319714791,-9.257137434762463e-05
0.0045947648693905295,-0.001364336198580942,-9.325410818026273e-05
0.004740528710603654,-0.0013620023751859433,-9.393569282370445e-05
0.004894001394779043,-0.0013595937426595975,-9.461609185316584e-05
0.005054832788454853,-0.001357106534113789,-9.529526692235919e-05
0.0052225818659170685,-0.001354537180450196,-9.597317785100019e-05
0.005396717859983327,-0.001351882355518721,-9.664978273499241e-05
0.005576622162017063,-0.001349139020513221,-9.73250380790004e-05
0.005761590983816663,-0.0013463044672267625,-9.79988989509354e-05
0.005950838790667788,-0.0013433763597831413,-9.867131915768787e-05
0.006143502508161599,-0.001340352774458434,-9.934225144124826e-05
0.006338646488853681,-0.00133723223720918,-0.00010001164769416516
0.006535268200349146,-0.0013340137585368794,-0.00010067945919310168
0.006732304575259,-0.0013306968653429773,-0.00010134563684907165
0.0069286389564044495,-0.0013272816294600614,-0.0001020101314727724
0.007123108577921191,-0.00132376869257648,-0.00010267289405328153
0.007314512537132967,-0.0013201592872977164,-0.00010333387604825008
0.007501620225990397,-0.0013164552541069356,-0.00010399302968360124
0.007683180198698015,-0.0013126590540007636,-0.00010465030826062817
0.007857929448996614,-0.00130877377658884,-0.00010530566646827557
0.008024603055487392,-0.001304803143462719,-0.00010595906069828846
0.008181944132572989,-0.001300751506665704,-0.00010661044936082056
0.008328714005498292,-0.0012966238421311862,-0.00010725979319801978
0.008463702513620844,-0.0012924257380014063,-0.00010790705559305293
0.008585738334918963,-0.0012881633777892714,-0.0001085522028720006
0.008693699214529265,-0.0012838435184019093,-0.0001091952045960484
0.008786521972533242,-0.0012794734631051436,-0.00010983603384142516
0.008863212167780432,-0.0012750610295700652,-0.00011047466746459396
0.008922853308416127,-0.0012706145132010162,-0.00011111108635028673
0.008964615518257437,-0.0012661426459943477,-0.00011174527564008557
0.008987763578861463,-0.001261654551220068,-0.00011237722493938918
0.008991664264983816,-0.0012571596942591067,-0.00011300692850075897
0.008975792880668224,-0.0012526678299726937,-0.00011363438538181692
0.00893973889245091,-0.001248188947029414,-0.00011425959957606744
0.008883210552843874,-0.0012437332096680903,-0.00011488258011524182
0.008806038416784168,-0.0012393108974256832,-0.00011550334114201525
0.008708177678489625,-0.0012349323434018647,-0.00011612190195222213
0.008589709295305106,-0.001230607871658416,-0.0001167382870059872
0.00845083991234557,-0.0012263477343565032,-0.00011735252590749093
0.008291900644339744,-0.0012221620492173318,-0.00011796465335338439
0.008113344796696583,-0.0012180607378570727,-0.00011857470905015299
0.007915744615598803,-0.001214053465503999,-0.00011918273760099326
0.007699787156893761,-0.0012101495825608758,-0.00011978878836300948
0.00746626936701359,-0.001206358068429899,-0.00012039291527575717
0.007216092478867857,-0.0012026874779684285,-0.00012099517666235676
0.006950255831772001,-0.0011991458908907685,-0.00012159563500457155
0.006669850215152717,-0.0011957408643790374,-0.000122194356693389
0.00637605081263841,-0.0011924793891220896,-0.0001227914117567643
0.006070109802385476,-0.0011893678489683336,-0.0001233868735662869
0.00575334866469348,-0.0011864119843515639,-0.00012398081852461686
0.005427150256425483,-0.001183616859621284,-0.00012457332573561006
0.005092950718963479,-0.001180986834377437,-0.00012516447665910973
0.004752231282605777,-0.0011785255388770447,-0.00012575435475242335
