frame_number,force
0,721.9931445865426
1,721.9865543998039
2,721.979728616405
3,721.9726646262452
4,721.9653575396792
5,721.9578003741407
6,721.9499842716859
7,721.9418987429178
8,721.9335319305493
9,721.9248708845341
10,721.915901840878
11,721.9066104976699
12,721.8969822836414
13,721.8870026160943
14,721.8766571463892
15,721.8659319923214
16,721.8548139570262
17,721.8432907329521
18,721.8313510873833
19,721.8189850246656
20,721.8061839210841
21,721.7929406308854
22,721.7792495645739
23,721.7651067420868
24,721.7505098239357
25,721.7354581237051
26,721.7199526057641
27,721.7039958723464
28,721.687592143751
29,721.6707472342126
30,721.6534685245737
31,721.6357649321088
32,721.6176468780528
33,721.59912625404
34,721.580216388909
35,721.5609320166542
36,721.5412892449154
37,721.5213055221135
38,721.5009996009528
39,721.4803914963342
40,721.4595024358316
41,721.438354800255
42,721.416972051007
43,721.3953786408448
44,721.3735999053675
45,721.3516619333416
46,721.3295914142768
47,721.3074154617678
48,721.2851614117491
49,721.2628565962001
50,721.2405280943865
51,721.2182024648054
52,721.1959054617414
53,721.1736617412936
54,721.1514945631945
55,721.1294254965494
56,721.1074741393388
57,721.0856578624872
58,721.0639915888768
59,721.0424876159864
60,721.0211554884653
61,721.0000019243535
62,720.9790307960185
63,720.9582431645294
64,720.9376373644828
65,720.9172091352533
66,720.896951793888
67,720.8768564440836
68,720.8569122149629
69,720.8371065230117
70,720.8174253505778
71,720.7978535345616
72,720.778375059345
73,720.7589733489348
74,720.7396315548876
75,720.7203328384419
76,720.7010606466338
77,720.681798982429
78,720.6625326682084
79,720.6432476012848
80,720.6239310002909
81,720.6045716421448
82,720.5851600902145
83,720.5656889148241
84,720.5461529069776
85,720.5265492848602
86,720.5068778907662
87,720.4871413745103
88,720.4673453586854
89,720.447498581166
90,720.4276130106241
91,720.4077039314767
92,720.3877899958136
93,720.3678932412264
94,720.3480390743639
95,720.3282562201969
96,720.3085766367835
97,720.2890353952504
98,720.2696705249043
99,720.2505228238417
100,720.2316356360373
101,720.2130545966196
102,720.1948273478241
103,720.1770032290101
104,720.1596329453732
105,720.1427682214768
106,720.1264614467696
107,720.1107653202938
108,720.0957325009643
109,720.0814152685555
110,720.0678651990387
111,720.0551328562583
112,720.0432675004548
113,720.0323168133378
114,720.0223266394021
115,720.0133407434906
116,720.0054005847517
117,719.9985451071841
118,719.9928105472849
119,719.9882302597526
120,719.9848345622055
121,719.9826505991675
122,719.981702224513
123,719.9820099009055
124,719.9835906152969
125,719.9864578113182
126,719.9906213413324
127,719.9960874417778
128,720.002858734963
129,720.0109342594573
130,720.0203095304648
131,720.0309766311448
132,720.0429243354471
133,720.0561382623956
134,720.0706010608743
135,720.0862926231315
136,720.1031903245033
137,720.1212692856989
138,720.1405026518164
139,720.1608618796116
140,720.1823170227777
141,720.2048370048278
142,720.228389870061
143,720.2529430043251
144,720.2784633187568
145,720.3049173916284
146,720.3322715656881
147,720.3604920004695
148,720.3895446807758
149,720.4193953843461
150,720.4500096136708
151,720.4813524984309
152,720.5133886757018
153,720.5460821553999
154,720.579396179174
155,720.6132930818213
156,720.6477341644378
157,720.6826795875447
158,720.7180882909778
159,720.7539179460189
160,720.7901249441089
161,720.8266644252002
162,720.8634903474294
163,720.9005555982179
164,720.937812144666
165,720.9752112182775
166,721.0127035268521
167,721.0502394857361
168,721.0877694609557
169,721.1252440168647
170,721.1626141604684
171,721.199831574347
172,721.2368488309935
173,721.2736195831302
174,721.3100987261608
175,721.3462425298032
176,721.3820087366454
177,721.4173566266942
178,721.4522470492279
179,721.4866424259728
180,721.5205067319073
181,721.5538054611224
182,721.5865055849979
183,721.6185755089022
184,721.6499850324184
185,721.6807053173271
186,721.7107088672507
187,721.7399695224735
188,721.7684624725359
189,721.7961642877849
190,721.8230529695269
191,721.8491080170205
192,721.8743105084554
193,721.898643192605
194,721.9220905883376
195,721.9446390905991
196,721.9662770831703
197,721.9869950595797
198,722.0067857535993
199,722.0256442798229
200,722.0435682831968
201,722.0605580944721
202,722.0766168871573
203,722.091750831049
204,722.1059692374349
205,722.1192846911504
206,722.1317131649535
207,722.1432741124186
208,722.1539905364971
209,722.1638890315927
210,722.1729997972259
211,722.1813566211539
212,722.188996829393
213,722.19596120042
214,722.2022938413392
215,722.2080420247651
216,722.2132559860407
217,722.217988681055
218,722.222295505813
219,722.2262339802919
220,722.2298634005735
221,722.2332444641346
222,722.2364388732409
223,722.2395089209008
224,722.2425170632029
225,722.2455254813846
226,722.2485956367315
227,722.2517878213165
228,722.2551607075096
229,722.2587708989668
230,722.262672485395
231,722.2669166030397
232,722.2715510028903
233,722.2766196291058
234,722.2821622108586
235,722.288213871456
236,722.29480475915
237,722.3019597042843
238,722.3096979070982
239,722.3180326597077
240,722.3269711049592
241,722.336514034378
242,722.3466557274123
243,722.3573838344558
244,722.3686793064356
245,722.3805163737971
246,722.3928625773857
247,722.4056788531433
248,722.4189196719482
249,722.4325332355279
250,722.4464617291293
251,722.460641631137
252,722.475004078616
253,722.4894752859501
254,722.5039770121938
255,722.5184270722342
256,722.5327398873945
257,722.5468270721578
258,722.5605980547144
259,722.5739607296125
260,722.586822140559
261,722.599089190308
262,722.6106693730424
263,722.6214715232492
264,722.6314065740322
265,722.640388316988
266,722.6483341550185
267,722.655165838896
268,722.6608101785138
269,722.6651997207734
270,722.6682733874237
271,722.6699770669504
272,722.6702641544607
273,722.6690960327342
274,722.6664424868223
275,722.6622820443337
276,722.6566022342413
277,722.649399758874
278,722.6406805766303
279,722.6304598964324
280,722.6187620880706
281,722.6056205144758
282,722.5910772925287
283,722.5751829890131
284,722.557996258576
285,722.5395834312692
286,722.5200180577006
287,722.4993804191363
288,722.4777570081911
289,722.4552399842181
290,722.4319266071549
291,722.4079186542072
292,722.3833218242804
293,722.3582451347899
294,722.3328003146285
295,722.3071011963474
296,722.2812631101596
297,722.2554022819254
298,722.2296352368957
299,722.2040782112599
300,722.1788465747545
301,722.1540542690135
302,722.1298132668989
303,722.1062330572586
304,722.0834201577597
305,722.0614776563294
306,722.0405047802087
307,722.0205964912626
308,722.0018431067336
309,721.9843299452997
310,721.9681369989042
311,721.9533386316069
312,721.9400033075824
313,721.9281933508602
314,721.9179647392098
315,721.9093669341987
316,721.9024427495536
317,721.8972282605596
318,721.8937527575174
319,721.8920387454717
320,721.8921019908144
321,721.8939516141104
322,721.8975902283308
323,721.9030141220642
324,721.9102134870166
325,721.9191726877901
326,721.9298705703999
327,721.9422808054371
328,721.9563722624357
329,721.9721094128806
330,721.9894527593094
331,722.0083592868456
332,722.0287829319609
333,722.0506750621664
334,722.0739849599255
335,722.0986603039554
336,722.124647640976
337,722.1518928410969
338,722.1803415305834
339,722.2099394965502
340,722.2406330590226
341,722.27236940675
342,722.3050968940156
343,722.3387652963132
344,722.3733260231603
345,722.4087322865274
346,722.4449392234195
347,722.4819039711648
348,722.5195856942861
349,722.5579455627461
350,722.5969466827337
351,722.6365539824546
352,722.6767340563167
353,722.7174549716176
354,722.7586860424764
355,722.8003975761004
356,722.8425605965647
357,722.8851465515592
358,722.9281270083525
359,722.9714733459832
360,723.0151564504871
361,723.0591464184403
362,723.1034122719697
363,723.1479216869085
364,723.1926407355578
365,723.2375336458974
366,723.2825625790861
367,723.3276874266226
368,723.3728656281821
369,723.4180520112135
370,723.4631986537855
371,723.508254772707
372,723.5531666392512
373,723.5978775244766
374,723.6423276750647
375,723.6864543194654
376,723.730191703897
377,723.7734711585772
378,723.8162211954669
379,723.8583676387899
380,723.899833788623
381,723.9405406166172
382,723.9804069917532
383,724.019349933163
384,724.0572848868647
385,724.0941260240588
386,724.129786560019
387,724.164179093956
388,724.1972159714246
389,724.2288096718463
390,724.2588732238712
391,724.2873206498562
392,724.3140674379617
393,724.3390310376558
394,724.3621313730204
395,724.3832913683764
396,724.4024374817151
397,724.4195002427346
398,724.4344147936761
399,724.4471214321187
400,724.4575661547748
401,724.4657012000005
402,724.471485584644
403,724.4748856284954
404,724.4758754573979
405,724.4744374745964
406,724.4705627894868
407,724.4642515933994
408,724.4555134728043
409,724.4443676510963
410,724.4308431509991
411,724.4149788708406
412,724.3968235693364
413,724.376435754775
414,724.3538834755703
415,724.3292440104277
416,724.302603458152
417,724.2740562290345
418,724.2437044411603
419,724.2116572258171
420,724.1780299469801
421,724.1429433411183
422,724.1065225853907
423,724.0688963042184
424,724.0301955256751
425,723.9905525998539
426,723.9501000915849
427,723.9089696601233
428,723.8672909389219
429,723.8251904291678
430,723.7827904212712
431,723.7402079588884
432,723.6975538600033
433,723.6549318087649
434,723.6124375303501
435,723.5701580594167
436,723.5281711107223
437,723.4865445581361
438,723.4453360258423
439,723.4045925933691
440,723.3643506141162
441,723.3246356450936
442,723.2854624836485
443,723.2468353050051
444,723.2087478924419
445,723.1711839503275
446,723.1341174897553
447,723.0975132772595
448,723.0613273383411
449,723.0255075085797
450,722.989994025933
451,722.9547201588273
452,722.9196128657451
453,722.8845934826027
454,722.8495784339199
455,722.81447996324
456,722.7792068784297
457,722.7436653086435
458,722.7077594710895
459,722.6713924463837
460,722.6344669611792
461,722.5968861762698
462,722.5585544775196
463,722.5193782656576
464,722.4792667396225
465,722.4381326674248
466,722.3958931385073
467,722.3524702918315
468,722.3077920140686
469,722.2617926026863
470,722.2144133897997
471,722.165603323996
472,722.1153195081428
473,722.0635276910393
474,722.0102027101829
475,721.9553288826129
476,721.8989003410436
477,721.8409213128267
478,721.7814063392398
479,721.7203804324653
480,721.6578791683303
481,721.593948714818
482,721.5286457989154
483,721.4620376164419
484,721.3942016903311
485,721.3252256822939
486,721.25520716135
487,721.1842533310748
488,721.1124807160643
489,721.0400148070626
490,720.9669896631099
491,720.8935474677878
492,720.8198380354759
493,720.746018262934
494,720.6722515217483
495,720.5987069882976
496,720.5255589099114
497,720.4529858085525
498,720.3811696261818
499,720.3102948184542
500,720.2405474052593
501,720.1721139876844
502,720.1051807413788
503,720.0399323964364
504,719.9765512138666
505,719.9152159682892
506,719.8561009457371
507,719.7993749648577
508,719.7452004293317
509,719.6937324184776
510,719.6451178214882
511,719.5994945188568
512,719.556990612857
513,719.5177237077755
514,719.481800240006
515,719.4493148580656
516,719.4203498531342
517,719.3949746417985
518,719.3732453040126
519,719.3552041804014
520,719.3408795335336
521,719.330285277713
522,719.3234207816414
523,719.3202707482603
524,719.3208051758951
525,719.3249794042575
526,719.3327342481787
527,719.3439962212893
528,719.3586778508634
529,719.3766780834356
530,719.3978827791395
531,719.4221652917826
532,719.4493871316455
533,719.4793987082104
534,719.5120401497768
535,719.547142196174
536,719.5845271600564
537,719.624009951938
538,719.6653991640293
539,719.7084982078752
540,719.7531065007291
541,719.7990206951957
542,719.8460359453093
543,719.893947199765
544,719.9425505103737
545,719.9916443420741
546,720.0410308703188
547,720.0905172518585
548,720.1399168552733
549,720.1890504379215
550,720.2377472567204
551,720.2858461019047
552,720.3331962455419
553,720.3796582991746
554,720.4251049765805
555,720.4694217582704
556,720.512507454878
557,720.5542746677647
558,720.5946501467579
559,720.6335750463397
560,720.6710050824923
561,720.7069105928227
562,720.7412765027158
563,720.7741022002957
564,720.8054013229948
565,720.8352014584419
566,720.8635437622962
567,720.8904824960097
568,720.9160844886966
569,720.9404285290898
570,720.9636046951694
571,720.9857136297557
572,721.0068657699641
573,721.0271805371352
574,721.046785492168
575,721.0658154598074
576,721.084411624943
577,721.1027206042062
578,721.1208934962904
579,721.1390849140007
580,721.1574520005039
581,721.1761534324175
582,721.195348413592
583,721.215195665331
584,721.2358524205983
585,721.2574734309102
586,721.2802099950844
587,721.3042090190578
588,721.3296121156898
589,721.356554753097
590,721.3851654599481
591,721.4155650963002
592,721.447866198272
593,721.4821724033435
594,721.5185779603004
595,721.557167324477
596,721.5980148357868
597,721.6411844745841
598,721.6867296889021
599,721.7346932861196
600,721.7851073824642
601,721.8379934047242
602,721.8933621397914
603,721.9512138290323
604,722.0115383058509
605,722.0743151758475
606,722.1395140393421
607,722.2070947558202
608,722.2770077495298
609,722.349194355143
610,722.4235872017598
611,722.5001106323305
612,722.5786811542004
613,722.6592079154068
614,722.7415932005218
615,722.8257329389492
616,722.9115172178094
617,722.9988307914341
618,723.0875535803312
619,723.1775611541087
620,723.2687251947177
621,723.3609139380496
622,723.4539925932428
623,723.5478237401367
624,723.6422677061157
625,723.7371829240091
626,723.8324262731085
627,723.9278534063811
628,724.0233190685693
629,724.1186774111782
630,724.2137823105744
631,724.308487694689
632,724.4026478826734
633,724.4961179404462
634,724.5887540533597
635,724.6804139155661
636,724.7709571345623
637,724.8602456488187
638,724.9481441560446
639,725.0345205495146
640,725.119246360186
641,725.2021972030354
642,725.2832532268325
643,725.3622995671764
644,725.4392268028372
645,725.5139314151692
646,725.5863162496557
647,725.6562909774705
648,725.723772553242
649,725.7886856633553
650,725.850963157783
651,725.9105464578419
652,725.9673859319721
653,726.0214412313056
654,726.0726815766219
655,726.121085988554
656,726.1666434535499
657,726.2093530191368
658,726.2492238136458
659,726.2862749874741
660,726.3205355745981
661,726.3520442741499
662,726.3808491525646
663,726.4070072675133
664,726.4305842161497
665,726.4516536123934
666,726.4702965005191
667,726.4866007141733
668,726.5006601905557
669,726.5125742491026
670,726.5224468431038
671,726.5303857914616
672,726.5365019963541
673,726.5409086512796
674,726.5437204432253
675,726.5450527524349
676,726.5450208532174
677,726.5437391194141
678,726.541320238593
679,726.5378744396711
680,726.5335087392288
681,726.5283262120672
682,726.5224252915174
683,726.5158991047033
684,726.5088348476202
685,726.5013132048521
686,726.4934078190294
687,726.485184815173
688,726.4767023841779
689,726.4680104279411
690,726.4591502671693
691,726.450154412596
692,726.4410464006646
693,726.4318406944186
694,726.4225426492961
695,726.4131485430149
696,726.4036456697479
697,726.3940125008793
698,726.3842189164567
699,726.3742265119503
700,726.3639889838124
701,726.3534525949709
702,726.3425567186382
703,726.3312344566417
704,726.3194133272567
705,726.3070160169033
706,726.2939611894545
707,726.2801643460036
708,726.2655387268384
709,726.2499962463648
710,726.2334484511442
711,726.2158074912314
712,726.1969870955726
713,726.1769035431045
714,726.1554766217918
715,726.132630567525
716,726.1082949737626
717,726.0824056619385
718,726.0549055024476
719,726.0257451762234
720,725.9948838673033
721,725.9622898774
722,725.9279411543769
723,725.8918257275567
724,725.8539420440521
725,725.8142992018783
726,725.7729170773995
727,725.7298263464158
728,725.6850683998998
729,725.6386951572243
730,725.5907687819185
731,725.5413613075546
732,725.4905541837342
733,725.4384377534012
734,725.3851106725402
735,725.3306792822825
736,725.2752569422009
737,725.2189633322312
738,725.1619237289805
739,725.1042682603602
740,725.0461311411286
741,724.987649891475
742,724.9289645410284
743,724.8702168214058
744,724.8115493516492
745,724.7531048225343
746,724.6950251871035
747,724.6374508653327
748,724.5805199707037
749,724.5243675660786
750,724.4691249555567
751,724.4149190176963
752,724.3618715838459
753,724.3100988638678
754,724.2597109204887
755,724.2108111928368
756,724.1634960694263
757,724.1178545108049
758,724.0739677221392
759,724.0319088760255
760,723.9917428854583
761,723.9535262259637
762,723.9173068049513
763,723.8831238760687
764,723.8510079965516
765,723.8209810253569
766,723.7930561591377
767,723.7672380027473
768,723.7435226715228
769,723.7218979236478
770,723.7023433215597
771,723.6848304213966
772,723.669322989238
773,723.655777242736
774,723.644142116735
775,723.6343595516669
776,723.626364803777
777,723.6200867763629
778,723.6154483709616
779,723.6123668567333
780,723.6107542552808
781,723.6105177373895
782,723.6115600284023
783,723.61377982034
784,723.6170721908592
785,723.6213290310116
786,723.6264394850048
787,723.6322904053208
788,723.6387668255026
789,723.6457524511308
790,723.6531301675598
791,723.6607825611482
792,723.6685924492687
793,723.6764434138248
794,723.6842203336242
795,723.6918099123664
796,723.6991012003673
797,723.7059861088907
798,723.7123599161897
799,723.7181217646171
800,723.7231751486497
801,723.7274283941981
802,723.7307951299252
803,723.7331947515341
804,723.7345528799093
805,723.7348018130273
806,723.7338809694322
807,723.7317373184261
808,723.7283257898334
809,723.7236096546486
810,723.7175608670426
811,723.7101603580768
812,723.7013982719382
813,723.6912741362698
814,723.679796958911
815,723.6669852441943
816,723.6528669233944
817,723.637479196175
818,723.6208682825097
819,723.6030890870758
820,723.5842047805721
821,723.564286304928
822,723.543411811811
823,723.5216660459682
824,723.499139686381
825,723.4759286583903
826,723.4521334285322
827,723.427858291364
828,723.4032106552309
829,723.3783003325099
830,723.3532388393267
831,723.3281387094729
832,723.3031128269909
833,723.2782737819402
834,723.2537332543802
835,723.2296014321013
836,723.205986467797
837,723.1829939814879
838,723.1607266142219
839,723.1392836387928
840,723.1187606318495
841,723.0992492093287
842,723.080836824349
843,723.0636066243235
844,723.0476373625025
845,723.0330033582645
846,723.019774499965
847,723.0080162840271
848,722.9977898842704
849,722.9891522461733
850,722.9821562016525
851,722.9768506008894
852,722.9732804585485
853,722.9714871122928
854,722.971508391794
855,722.9733787963851
856,722.9771296789111
857,722.9827894323295
858,722.9903836748354
859,722.9999354294046
860,723.0114652947641
861,723.0249916064579
862,723.0405305882631
863,723.0580964953529
864,723.0777017511049
865,723.099357078864
866,723.1230716278792
867,723.1488530897069
868,723.1767077993595
869,723.2066408156662
870,723.2386559775994
871,723.2727559365318
872,723.3089421670228
873,723.3472149595552
874,723.387573397486
875,723.4300153182407
876,723.4745372565492
877,723.5211343659063
878,723.5698003138696
879,723.6205271475367
880,723.6733051272912
881,723.7281225288194
882,723.7849654149906
883,723.8438173805907
884,723.9046592741225
885,723.9674689016748
886,724.0322207182842
887,724.0988855125734
888,724.1674300907675
889,724.2378169661687
890,724.3100040598657
891,724.3839444183158
892,724.4595859535835
893,724.5368712121547
894,724.6157371781195
895,724.6961151162038
896,724.7779304595892
897,724.8611027465964
898,724.9455456092097
899,725.031166815423
900,725.1178683667741
901,725.205546652217
902,725.2940926591839
903,725.3833922417742
904,725.4733264444726
905,725.5637718780681
906,725.654601142796
907,725.7456832922811
908,725.8368843307009
909,725.928067734695
910,726.0190949910345
911,726.1098261412673
912,726.2001203258163
913,726.2898363221836
914,726.3788330744701
915,726.4669702137342
916,726.5541085703939
917,726.6401106809695
