frame_number,force
0,721.8446188763795
1,721.8613821863898
2,721.8787851714012
3,721.8963470907705
4,721.9135908689483
5,721.9300509208471
6,721.9452818783114
7,721.958868007496
8,721.9704327850214
9,721.9796479046704
10,721.986241017283
11,721.9900017225185
12,721.9907855928391
13,721.9885162288101
14,721.9831855288902
15,721.9748525031837
16,721.963640975473
17,721.9497363082851
18,721.9333809275287
19,721.9148681766693
20,721.8945341133035
21,721.8727472182139
22,721.8498963575471
23,721.826377533436
24,721.8025800008066
25,721.7788723442497
26,721.7555891556541
27,721.7330189763876
28,721.7113940848996
29,721.690882507584
30,721.6715823962269
31,721.6535187824484
32,721.6366427412879
33,721.6208330899707
34,721.6059007785509
35,721.5915960175296
36,721.5776179635143
37,721.5636265763814
38,721.5492561902272
39,721.5341303796159
40,721.5178777056068
41,721.5001478118489
42,721.4806271967857
43,721.4590539525857
44,721.4352308505926
45,721.409036253279
46,721.380432355982
47,721.349470254257
48,721.3162914091829
49,721.2811252776413
50,721.2442830969636
51,721.2061479671039
52,721.1671614765738
53,721.1278072606524
54,721.0885921067247
55,721.0500255069309
56,721.0125988365354
57,720.976765501848
58,720.9429233601902
59,720.9114004791927
60,720.8824449696281
61,720.8562192625543
62,720.8327988359977
63,720.8121750789614
64,720.7942617674224
65,720.7789045178599
66,720.7658925209364
67,720.7549717907334
68,720.7458591059413
69,720.7382558151844
70,720.731860733972
71,720.7263814411181
72,720.7215433888313
73,720.7170964220894
74,720.7128185819555
75,720.708517383074
76,720.7040289874242
77,720.6992157507956
78,720.6939625218342
79,720.6881719745136
80,720.6817592796486
81,720.6746465488592
82,720.6667576157047
83,720.6580137824945
84,720.6483310980811
85,720.6376195021737
86,720.6257838429738
87,720.6127264939445
88,720.5983511492666
89,720.5825673415285
90,720.5652952381784
91,720.5464703276533
92,720.526047733157
93,720.5040060544998
94,720.4803507279871
95,720.4551168672425
96,720.4283714665122
97,720.4002147852412
98,720.3707807149442
99,720.3402359520785
100,720.308777851801
101,720.2766309090665
102,720.2440418974809
103,720.211273802319
104,720.1785988488328
105,720.1462911353774
106,720.1146195247703
107,720.083841439983
108,720.0541980757591
109,720.0259113424585
110,719.9991826308092
111,719.9741932388902
112,719.9511060882104
113,719.9300682512984
114,719.9112138369009
115,719.8946668575408
116,719.8805437604028
117,719.8689553486182
118,719.8600079102794
119,719.8538034855161
120,719.8504392491541
121,719.8500059253184
122,719.8525850341384
123,719.8582447190723
124,719.8670340362514
125,719.8789759103462
126,719.894059311127
127,719.9122313843599
128,719.9333902406262
129,719.9573789883799
130,719.9839815146078
131,720.0129204823917
132,720.0438579784869
133,720.0763991645704
134,720.1100991633572
135,720.1444732865426
136,720.1790105995904
137,720.2131906313255
138,720.2465026837216
139,720.278466763604
140,720.3086548567936
141,720.3367112046366
142,720.3623703427568
143,720.3854718094332
144,720.4059706133827
145,720.4239428045414
146,720.4395857942965
147,720.4532133460992
148,720.465245381117
149,720.4761929790834
150,720.4866392196113
151,720.4972167105374
152,720.5085827245796
153,720.5213928975111
154,720.5362745400962
155,720.5538007461798
156,720.5744665011002
157,720.5986678535119
158,720.6266850016651
159,720.658669964913
160,720.6946393594526
161,720.7344726291388
162,720.7779159007126
163,720.8245914235179
164,720.8740122392185
165,720.9256013212594
166,720.9787141131037
167,721.0326633209269
168,721.0867448921024
169,721.140264145679
170,721.1925609599843
171,721.2430328928707
172,721.2911552480087
173,721.336497368741
174,721.3787346769087
175,721.4176560969275
176,721.4531665945517
177,721.4852847428498
178,721.5141355520493
179,721.5399391951316
180,721.5629965899884
181,721.5836729498157
182,721.6023803642224
183,721.6195602910867
184,721.6356666366662
185,721.651149970337
186,721.6664433641946
187,721.6819502871876
188,721.6980348456908
189,721.7150144540715
190,721.7331547957084
191,721.7526667376864
192,721.7737047187601
193,721.7963660882065
194,721.8206909843688
195,721.8466625983344
196,721.8742079679159
197,721.9031996530215
198,721.9334586870444
199,721.9647590916381
200,721.996834021448
201,722.0293833420434
202,722.0620822541301
203,722.0945905216944
204,722.1265618818611
205,722.1576532386582
206,722.1875332921883
207,722.2158903679423
208,722.2424393507368
209,722.2669277216697
210,722.2891407112047
211,722.3089055225067
212,722.3260944803503
213,722.3406268969137
214,722.3524694811293
215,722.3616352216916
216,722.3681807569999
217,722.3722022924915
218,722.3738302079639
219,722.3732226546408
220,722.3705586112892
221,722.3660309492024
222,722.3598400097422
223,722.352188067165
224,722.3432748990605
225,722.3332945627786
226,722.3224333920177
227,722.3108691716045
228,722.2987713987059
229,722.2863024713502
230,722.273619554032
231,722.2608767931591
232,722.2482275468833
233,722.2358263624512
234,722.2238305381286
235,722.2124012122442
236,722.2017040163395
237,722.1919093817128
238,722.1831925595492
239,722.1757333190753
240,722.1697151948264
241,722.1653241219843
242,722.1627463425863
243,722.1621655628243
244,722.1637594477547
245,722.1676956103505
246,722.1741272694616
247,722.1831887336871
248,722.1949908528537
249,722.2096165963907
250,722.2271169615736
251,722.2475074203952
252,722.2707650086811
253,722.2968259638741
254,722.3255836576647
255,722.3568865679292
256,722.390536193892
257,722.4262850525866
258,722.4638351198372
259,722.5028372293805
260,722.5428919594319
261,722.5835524086006
262,722.6243290607661
263,722.6646967459897
264,722.7041035566718
265,722.7419814565554
266,722.7777581977886
267,722.8108700585267
268,722.8407749043156
269,722.8669651972652
270,722.8889807405457
271,722.9064210099361
272,722.9189568327711
273,722.926340979991
274,722.9284170322288
275,722.9251257548123
276,722.9165082332705
277,722.902705208746
278,722.883952403051
279,722.8605720661224
280,722.8329613686846
281,722.8015784625026
282,722.7669270290207
283,722.7295400506354
284,722.6899634993053
285,722.6487406748262
286,722.6063979294169
287,722.5634323505803
288,722.5203016602895
289,722.4774163098868
290,722.4351336624114
291,722.3937542262654
292,722.3535199708324
293,722.314614701272
294,722.2771663362449
295,722.2412508241297
296,722.206897374964
297,722.1740946308007
298,722.1427973576542
299,722.1129333092372
300,722.0844101271231
301,722.0571223945369
302,722.030959079224
303,722.0058115120261
304,721.9815818032224
305,721.9581913069331
306,721.9355885422711
307,721.9137559627542
308,721.8927150874223
309,721.8725296515959
310,721.8533065686013
311,721.8351946557871
312,721.8183812561081
313,721.8030870009557
314,721.7895589741921
315,721.7780625229827
316,721.7688720231845
317,721.7622610481958
318,721.758492482184
319,721.7578090428001
320,721.7604244784818
321,721.766515560196
322,721.7762150129037
323,721.7896056420365
324,721.8067159187815
325,721.8275171298842
326,721.8519220050392
327,721.8797846912022
328,721.9109020820094
329,721.945016681918
330,721.9818212147753
331,722.0209650368146
332,722.0620621911503
333,722.1047007801516
334,722.1484532710655
335,722.1928873260499
336,722.2375767183387
337,722.2821118963951
338,722.3261098160228
339,722.3692227503328
340,722.411145884319
341,722.451623599124
342,722.4904544304587
343,722.5274947240448
344,722.5626610093404
345,722.5959310792723
346,722.6273437032854
347,722.6569968343523
348,722.6850441494441
349,722.7116898362824
350,722.7371816851273
351,722.7618026806647
352,722.7858613715097
353,722.8096813495746
354,722.8335902169574
355,722.8579084264841
356,722.8829383538707
357,722.9089539685991
358,722.9361915653068
359,722.9648421147498
360,722.9950457458001
361,723.026888623744
362,723.0604021556393
363,723.0955642260292
364,723.1323021402071
365,723.1704970232679
366,723.2099894382003
367,723.2505859326308
368,723.2920661907741
369,723.3341905027436
370,723.3767073533146
371,723.4193610438019
372,723.4618993393177
373,723.5040811115476
374,723.5456838138003
375,723.5865104825999
376,723.6263959570199
377,723.6652121705706
378,723.7028725489871
379,723.7393355807699
380,723.7746075175257
381,723.8087440091109
382,723.8418503428767
383,723.8740798647576
384,723.9056301789961
385,723.9367368977764
386,723.9676649792061
387,723.9986979558962
388,724.0301255984981
389,724.0622307733083
390,724.0952763373084
391,724.1294927502619
392,724.165066715148
393,724.2021307974443
394,724.2407538185219
395,724.2809318948179
396,724.3225802009961
397,724.3655257893192
398,724.4095020582647
399,724.4541456511087
400,724.4989965760074
401,724.5435021514423
402,724.5870250642955
403,724.6288554575762
404,724.668226606149
405,724.7043334774685
406,724.7363533677691
407,724.7634678177687
408,724.784885058391
409,724.7998622694067
410,724.8077269730675
411,724.8078969604998
412,724.7998982421782
413,724.7833805766694
414,724.7581301582744
415,724.7240790976728
416,724.6813114572107
417,724.6300657479458
418,724.5707338643905
419,724.5038564169571
420,724.4301144051186
421,724.3503172405342
422,724.26538729088
423,724.1763413059575
424,724.0842692202822
425,723.9903108607734
426,723.8956310634841
427,723.8013937012224
428,723.7087351809527
429,723.6187380578868
430,723.5324055121165
431,723.4506375347058
432,723.3742097199425
433,723.3037555080807
434,723.2397525934381
435,723.1825140549021
436,723.1321845764812
437,723.0887418902039
438,723.0520033342806
439,723.0216372266443
440,722.9971785954933
441,722.9780486519079
442,722.9635772343217
443,722.9530272936862
444,722.9456203136025
445,722.9405614395558
446,722.9370631367775
447,722.9343664211425
448,722.931758999906
449,722.9285899082325
450,722.9242804303072
451,722.9183313101989
452,722.9103264792587
453,722.8999336542727
454,722.8869021415936
455,722.8710581118004
456,722.8522976409301
457,722.8305779889967
458,722.8059077832916
459,722.7783368553439
460,722.7479464376698
461,722.7148403193571
462,722.6791373915555
463,722.6409657704154
464,722.6004584326981
465,722.5577501434743
466,722.5129754135493
467,722.4662672165425
468,722.417756173777
469,722.3675699353637
470,722.3158326081514
471,722.2626642486745
472,722.2081805207046
473,722.1524925551699
474,722.0957069193439
475,722.0379255189999
476,721.979245259513
477,721.9197573102059
478,721.8595457761993
479,721.7986855310423
480,721.7372390418564
481,721.6752522904687
482,721.6127502616195
483,721.5497327624712
484,721.4861714359755
485,721.4220087154653
486,721.3571592114497
487,721.2915137336903
488,721.2249459075464
489,721.157321142922
490,721.0885075061851
491,721.0183878064496
492,720.9468719842804
493,720.8739087540193
494,720.7994954398067
495,720.7236850731022
496,720.6465900849903
497,720.5683822928823
498,720.4892892724283
499,720.4095875470671
500,720.3295932719205
501,720.2496512113564
502,720.1701228321012
503,720.0913743174203
504,720.0137652690509
505,719.9376387657296
506,719.8633133072632
507,719.7910770607768
508,719.721184739665
509,719.6538573046804
510,719.5892844372084
511,719.5276294450325
512,719.4690360063186
513,719.4136359916241
514,719.3615575329646
515,719.312932528811
516,719.2679028908342
517,719.2266250454561
518,719.1892724554997
519,719.1560361515159
520,719.1271233978287
521,719.102754669349
522,719.0831591539024
523,719.0685690629729
524,719.0592130848868
525,719.055309311729
526,719.0570579550971
527,719.0646341584329
528,719.0781811553092
529,719.0978038751042
530,719.1235629412273
531,719.1554689673491
532,719.1934771567669
533,719.2374823478491
534,719.2873147127925
535,719.3427362993655
536,719.4034385884056
537,719.4690412783804
538,719.5390925772028
539,719.613071348004
540,719.6903915121746
541,719.7704091081562
542,719.8524322387367
543,719.9357337945148
544,720.0195664526478
545,720.1031791903176
546,720.1858344698697
547,720.2668252685489
548,720.345491148005
549,720.4212325669314
550,720.4935227019379
551,720.5619162454478
552,720.6260549818301
553,720.6856702600533
554,720.740582637319
555,720.790698963446
556,720.8360071499902
557,720.8765689354523
558,720.9125110888518
559,720.9440155914226
560,720.9713093535836
561,720.9946539692838
562,721.0143359103251
563,721.0306574527035
564,721.0439285170962
565,721.0544594849583
566,721.0625549359127
567,721.0685082114962
568,721.0725968069121
569,721.0750787900031
570,721.0761906215661
571,721.0761467940972
572,721.0751415859255
573,721.073352977599
574,721.0709484728319
575,721.0680923180329
576,721.0649535122251
577,721.0617140172919
578,721.0585765909467
579,721.0557715985844
580,721.0535620845396
581,721.0522464243905
582,721.0521580922873
583,721.053662402764
584,721.0571504054118
585,721.0630303359103
586,721.071717154745
587,721.083620770159
588,721.0991335647018
589,721.1186178580418
590,721.1423939994152
591,721.1707298887334
592,721.2038327665239
593,721.241843968017
594,721.2848369961655
595,721.3328188363604
596,721.3857340349397
597,721.4434707725098
598,721.5058680177877
599,721.5727228537252
600,721.64379720313
601,721.7188234033854
602,721.7975083422779
603,721.8795361408859
604,721.964569634603
605,722.0522511094002
606,722.1422028429523
607,722.234027994521
608,722.3273123534136
609,722.4216274159838
610,722.5165351606804
611,722.6115946948112
612,722.7063707143142
613,722.8004435243693
614,722.8934202047045
615,722.9849463241823
616,723.0747174422872
617,723.1624895650067
618,723.2480877978393
619,723.3314126317537
620,723.4124435301876
621,723.4912396839219
622,723.5679379472816
623,723.6427480807752
624,723.7159454970409
625,723.7878617251309
626,723.8588728279514
627,723.9293861299154
628,723.999825836201
629,724.0706183099559
630,724.1421777981263
631,724.2148932829758
632,724.2891169672965
633,724.3651546992189
634,724.4432584034255
635,724.5236203642958
636,724.6063690765627
637,724.6915663383095
638,724.7792052602236
639,724.869208902388
640,724.9614293584624
641,725.055647277673
642,725.1515719997572
643,725.2488426335041
644,725.347030501161
645,725.445643382213
646,725.5441319282094
647,725.6418984795505
648,725.7383082849703
649,725.8327028609428
650,725.9244150356615
651,726.0127851338349
652,726.0971777069258
653,726.1769981450802
654,726.2517084538
655,726.3208414813299
656,726.3840129340034
657,726.4409306215662
658,726.4914005583157
659,726.5353297694676
660,726.572725826755
661,726.6036932217194
662,726.6284267033852
663,726.6472017246562
664,726.6603622518629
665,726.6683064401591
666,726.6714709804918
667,726.6703151234451
668,726.6653053943477
669,726.6569018716117
670,726.6455466844485
671,726.6316551272644
672,726.615609501584
673,726.5977555430394
674,726.5784011297549
675,726.5578168895995
676,726.5362382888305
677,726.513868789851
678,726.490883723367
679,726.4674346136685
680,726.4436537857584
681,726.4196591392714
682,726.3955589863496
683,726.3714568288649
684,726.3474559316776
685,726.323663582883
686,726.3001950229349
687,726.2771770858836
688,726.2547515174549
689,726.2330777299818
690,726.212334597429
691,726.1927209254425
692,726.174454364527
693,726.1577685740497
694,726.1429083747855
695,726.1301226446441
696,726.1196549698626
697,726.111732491443
698,726.1065537744967
699,726.1042767112299
700,726.1050074005797
701,726.1087906856822
702,726.1156027067366
703,726.1253455881351
704,726.1378442854011
705,726.1528456120162
706,726.1700194547478
707,726.188962122798
708,726.2092016723991
709,726.2302049490648
710,726.2513860458723
711,726.2721159129759
712,726.291732963275
713,726.3095546633418
714,726.3248901841463
715,726.3370541158752
716,726.3453810545838
717,726.3492406845219
718,726.348052884284
719,726.3413023403908
720,726.3285521226917
721,726.309455673825
722,726.283766692427
723,726.2513464331302
724,726.2121680171552
725,726.1663174643179
726,726.113991302162
727,726.0554907472797
728,725.991212585807
729,725.9216370339785
730,725.8473130736976
731,725.7688420360864
732,725.6868604595206
733,725.6020233388965
734,725.5149887613182
735,725.4264046769284
736,725.3368982875799
737,725.2470682658434
738,725.1574797077295
739,725.0686614021133
740,724.981104767431
741,724.8952637238007
742,724.8115548095897
743,724.730356977424
744,724.6520107209188
745,724.5768164703541
746,724.5050324527323
747,724.436872348821
748,724.3725031187456
749,724.3120433731191
750,724.2555626268554
751,724.2030816452318
752,724.154573913847
753,724.1099681168321
754,724.0691514228871
755,724.0319733534704
756,723.998250037846
757,723.9677687269834
758,723.9402925186214
759,723.9155653147632
760,723.8933170387253
761,723.8732690517845
762,723.8551396107446
763,723.8386492100296
764,723.8235257208236
765,723.8095092381318
766,723.7963564574143
767,723.7838443612854
768,723.7717730953992
769,723.7599680799404
770,723.7482815065032
771,723.736593368917
772,723.7248121290809
773,723.7128750806029
774,723.7007484575806
775,723.6884273452309
776,723.6759354716044
777,723.663324958258
778,723.6506760490711
779,723.6380967093208
780,723.6257218132229
781,723.6137115044716
782,723.6022483376565
783,723.591533016019
784,723.5817788440133
785,723.5732053029035
786,723.566031353516
787,723.5604691030135
788,723.5567183232839
789,723.554962048281
790,723.555363196857
791,723.5580619087465
792,723.563173086446
793,723.5707835829576
794,723.5809486077734
795,723.5936871801518
796,723.6089767101414
797,723.6267469422468
798,723.6468735713671
799,723.6691719155216
800,723.6933911393987
801,723.7192096321392
802,723.7462322220085
803,723.7739899646616
804,723.801943240181
805,723.8294887455946
806,723.8559706340226
807,723.8806956242704
808,723.902951523056
809,723.9220283251351
810,723.9372408818346
811,723.9479520522523
812,723.9535952592921
813,723.9536954167671
814,723.9478872272097
815,723.9359298917611
816,723.9177174040601
817,723.8932838539259
818,723.8628034756626
819,723.8265854684868
820,723.7850638998025
821,723.738783298596
822,723.6883808364224
823,723.6345662408224
824,723.5781007366551
825,723.5197762741215
826,723.4603960277637
827,723.4007567270953
828,723.3416329873729
829,723.2837635735934
830,723.2278394429375
831,723.1744933796856
832,723.124291018138
833,723.0777230919322
834,723.035198874718
835,722.997040911642
836,722.9634812317697
837,722.9346593245133
838,722.9106222766595
839,722.8913275097548
840,722.8766484331827
841,722.8663830426327
842,722.8602651504833
843,722.8579776578714
844,722.8591671271108
845,722.8634588611386
846,722.8704717000911
847,722.8798318012346
848,722.8911847887374
849,722.9042058305168
850,722.918607394203
851,722.9341446292113
852,722.9506184888572
853,722.9678768252988
854,722.9858137601391
855,723.0043676419806
856,723.023517819025
857,723.0432803004086
858,723.063702254749
859,723.0848553010768
860,723.1068277040474
861,723.1297158209945
862,723.1536153675388
863,723.17861321462
864,723.204780472195
865,723.232167484137
866,723.2608009918002
867,723.2906832240178
868,723.321792310032
869,723.354083392137
870,723.3874901178095
871,723.4219266378427
872,723.4572905918736
873,723.4934676353089
874,723.5303378259501
875,723.5677837858484
876,723.6057001512021
877,723.6440035182708
878,723.6826419501938
879,723.7216031729241
880,723.7609208106599
881,723.8006782625239
882,723.8410100282289
883,723.8821004701356
884,723.9241801562987
885,723.9675200257485
886,724.0124236612477
887,724.0592179974308
888,724.1082428342056
889,724.1598395218359
890,724.2143391450019
891,724.2720505256949
892,724.3332484103327
893,724.3981622555397
894,724.466966043811
895,724.5397695523741
896,724.616611462145
897,724.6974546100258
898,724.7821835727566
899,724.8706046730744
900,724.9624484637998
901,725.0573747721544
902,725.1549804010652
903,725.2548095012875
904,725.3563664479888
905,725.4591308410155
906,725.5625740437495
907,725.6661764993281
908,725.7694449259458
909,725.871928394365
910,725.9732322448165
911,726.0730288630208
912,726.1710645560407
913,726.267162128759
914,726.3612191771099
915,726.4532024876495
916,726.5431392063944
917,726.6311056182033
