acceleration,velocity,displacement
-0.0002027868388447871,0.0,0.0
-0.0002923745990599701,-1.237903594761893e-07,-3.0947589869047323e-11
-0.0003852154618844861,-2.9318787471230337e-07,-1.351921484161705e-10
-0.0004813424711868574,-5.098273579801393e-07,-3.3594595658928117e-10
-0.0005808191680938563,-7.753677678003177e-07,-6.572447380343954e-10
-0.0006837371008828746,-1.0915068350445005e-06,-1.1239633887456e-09
-0.0007902129197925065,-1.4599943402133458e-06,-1.7618386825600616e-09
-0.0009003851175852555,-1.8826438495577864e-06,-2.5974982300028446e-09
-0.0010144105061485745,-2.361342755491244e-06,-3.658494881265102e-09
-0.0011324605372506286,-2.898060516341045e-06,-4.973345699223174e-09
-0.0012547175730848745,-3.494855043924921e-06,-6.5715745892896655e-09
-0.001381371193191721,-4.15387723549407e-06,-8.483757659144414e-09
-0.0015126146006285998,-4.87737368394915e-06,-1.0741570389005218e-08
-0.0016486411697604103,-5.667687626546403e-06,-1.3377835716629106e-08
-0.0017896411599603403,-6.52725820897659e-06,-1.6426572175509854e-08
-0.0019357986042682193,-7.45861815003373e-06,-1.9923041265262432e-08
-0.0020872883778829407,-8.46438989557152e-06,-2.3903793276663745e-08
-0.0022442734661495705,-9.547280356579647e-06,-2.8406710839701537e-08
-0.002406902479238661,-1.0710074342926704e-05,-3.347104951457813e-08
-0.002575307478488319,-1.195562683235845e-05,-3.913747480839942e-08
-0.002749602168758386,-1.3286854244170126e-05,-4.5448095077531564e-08
-0.0029298804770088054,-1.4706724905611923e-05,-5.2446489864977075e-08
-0.0031162155021265472,-1.621824890039576e-05,-6.0177733316479e-08
-0.0033086588011609695,-1.782446747621764e-05,-6.868841241063235e-08
-0.0035072399706491198,-1.952844216917016e-05,-7.80266398219793e-08
-0.0037119664777426754,-2.133324378126811e-05,-8.824206130958887e-08
-0.003922823689527405,-2.3241941323085628e-05,-9.93858575856773e-08
-0.004139775044937697,-2.5257591006701903e-05,-1.1151074066812419e-07
-0.004362762319075035,-2.7383225347705088e-05,-1.2467094475672595e-07
-0.004591705945827137,-2.9621842413930632e-05,-1.3892221169713488e-07
-0.004826505383666901,-3.1976395246304144e-05,-1.5432177111219358e-07
-0.005067039519955452,-3.444978147220973e-05,-1.7092831529182205e-07
-0.005313167106395093,-3.704483312879737e-05,-1.8880196894207382e-07
-0.0055647272094532406,-3.976430670775945e-05,-2.0800425390121302e-07
-0.0058215396563160654,-4.261087342420178e-05,-2.2859804893420331e-07
-0.0060834054658727025,-4.558710970474897e-05,-2.50647544716441e-07
-0.006350107272884352,-4.8695487889438235e-05,-2.742181941149878e-07
-0.006621409770627693,-5.193836715031624e-05,-2.993766578749264e-07
-0.006897060202552344,-5.5317984643611254e-05,-3.261907458234083e-07
-0.007176788929082108,-5.8836446926519865e-05,-3.547293537159411e-07
-0.007460310094263955,-6.249572168235638e-05,-3.8506239586816016e-07
-0.007747322425408824,-6.629762981227456e-05,-4.172607337418179e-07
-0.008037510209727393,-7.024383797105862e-05,-4.5139610068765117e-07
-0.00833054449332325,-7.433585164682127e-05,-4.875410230921211e-07
-0.008626084538336668,-7.857500890473625e-05,-5.257687382300105e-07
-0.008923779563451148,-8.29624749301832e-05,-5.661531091887404e-07
-0.009223270788969583,-8.749923751828839e-05,-6.087685373008583e-07
-0.009524193806282825,-9.218610366710149e-05,-6.536898725972058e-07
-0.009826181283051582,-9.702369743943508e-05,-7.009923228738399e-07
-0.010128865996843229,-0.0001020124592594088,-7.507513620485509e-07
-0.010431884169213935,-0.00010715264680092309,-8.030426385636339e-07
-0.01073487905774987,-0.00011244433760766404,-8.579418846657807e-07
-0.011037504753669013,-0.00011788743356051876,-9.155248274578264e-07
-0.011339430119867837,-0.00012348166727890297,-9.75867102667682e-07
-0.011640342784648887,-0.00012922661050503216,-1.0390441721136657e-06
-0.011939953082252848,-0.0001351216844717576,-1.1051312458578633e-06
-0.012237997808292288,-0.00014116617219439389,-1.1742032100244012e-06
-0.012534243645434533,-0.0001473592325578256,-1.2463345612124561e-06
-0.012828490120238806,-0.00015369991599924394,-1.3215993483517236e-06
-0.013120571974893932,-0.00016018718152302714,-1.4000711227322913e-06
-0.013410360869358253,-0.0001668199147340902,-1.4818228967965707e-06
-0.013697766364172555,-0.00017359694654247288,-1.5669271121157116e-06
-0.013982736169585135,-0.0001805170721759123,-1.6554556167953078e-06
-0.014265255678176611,-0.00018757907013785272,-1.7474796523737491e-06
-0.014545346820976093,-0.0001947817207626409,-1.8430698500988726e-06
-0.014823066301018014,-0.0002021238240431394,-1.9422962363003176e-06
-0.01509850326841269,-0.00020960421643549708,-2.045228246419977e-06
-0.015371776511450365,-0.00021722178638046284,-2.1519347471239667e-06
-0.015643031247952795,-0.00022497548832031364,-2.262484065799161e-06
-0.015912435605854928,-0.00023286435503376557,-2.3769440266376806e-06
-0.016180176881419883,-0.00024088750815558427,-2.495381992435018e-06
-0.016446457660524744,-0.00024904416679107045,-2.617864911171682e-06
-0.01671149188281041,-0.00025733365417690427,-2.7444593664136756e-06
-0.01697550091607723,-0.00026575540237662617,-2.875231630552058e-06
-0.017238709687005686,-0.0002743089550273969,-3.0102477199030637e-06
-0.017501342889402718,-0.000282993968171499,-3.149573450702788e-06
-0.01776362127303214,-0.00029181020921210775,-3.2932744950486894e-06
-0.01802575801276351,-0.0003007575540335567,-3.4414164358601054e-06
-0.01828795516696147,-0.0003098359823284879,-3.5940648199506166e-06
-0.01855040024298279,-0.000319045571180974,-3.7512852083279823e-06
-0.018813262885417844,-0.00032838648696307415,-3.913143222863994e-06
-0.019076691691143722,-0.00033785897560721455,-4.0797045885065666e-06
-0.019340811142927954,-0.0003474633513157325,-4.251035170237303e-06
-0.0196057186464312,-0.00035719998376307225,-4.4272010040070045e-06
-0.019871481658968237,-0.0003670692838394221,-4.608268320907628e-06
-0.02013813491598195,-0.0003770716879831596,-4.7943035638632734e-06
-0.020405677786855963,-0.0003872076411588691,-4.985373396148781e-06
-0.020674071812947913,-0.0003974775785588201,-5.181544701078203e-06
-0.02094323849001177,-0.00040788190613456,-5.382884572251548e-06
-0.02121305735668814,-0.000418420980096235,-5.589460293809246e-06
-0.02148336444582617,-0.0004290950855468636,-5.8013393102200205e-06
-0.021753951146645568,-0.0004399044144449815,-6.018589185217982e-06
-0.022024563510580075,-0.0004508490431092879,-6.241277549606549e-06
-0.02229490201531611,-0.00046192890949076196,-6.469472037756561e-06
-0.022564621789394574,-0.00047314379044193964,-6.703240212739736e-06
-0.022833333297589027,-0.00048449327921368555,-6.942649480153643e-06
-0.023100603489852944,-0.000495976763410546,-7.187766990809701e-06
-0.023365957417642188,-0.0005075934036374198,-7.438659532571692e-06
-0.023628880318743353,-0.0005193421130715162,-7.695393411748926e-06
-0.023888820165635687,-0.000531221538192611,-7.958034324564959e-06
-0.02414519066423373,-0.0005432300409000784,-8.22664721933813e-06
-0.02439737468005364,-0.0005553656822361502,-8.501296150122187e-06
-0.024644728058395064,-0.0005676262079207624,-8.782044122661415e-06
-0.024886583793101918,-0.0005800090358836367,-9.068952933612514e-06
-0.02512225648182166,-0.0005925112459523676,-9.362083004071516e-06
-0.02535104698564037,-0.0006051295718192332,-9.661493208514415e-06
-0.025572247197019615,-0.0006178603953648982,-9.967240700310448e-06
-0.025785144819480556,-0.0006306997433690232,-1.027938073499393e-05
-0.025989028073423258,-0.0006436432865922491,-1.0597966492484247e-05
-0.02618319025921193,-0.0006566863411754079,-1.0923048899426162e-05
-0.026366934128624807,-0.000669823872272367,-1.1254676452788106e-05
-0.026539576037911735,-0.0006830504998140011,-1.1592895045809698e-05
-0.026700449875553377,-0.0006963605062923673,-1.193774779733629e-05
-0.026848910768555747,-0.0007097478464533946,-1.228927488552273e-05
-0.026984338571282483,-0.0007232061587883542,-1.2647513386833168e-05
-0.027106141136627005,-0.0007367287787153316,-1.301249712120909e-05
-0.02721375736748723,-0.0007503087533413601,-1.3384256504223263e-05
-0.02730666004575312,-0.0007639388576946702,-1.3762818406982271e-05
-0.027384358431865295,-0.0007776116123140748,-1.4148206024484457e-05
-0.027446400622029698,-0.0007913193020775485,-1.4540438753082363e-05
-0.02749237565018566,-0.0008050539961456023,-1.4939532077638151e-05
-0.02752191533116995,-0.0008188075688909413,-1.5345497468897286e-05
-0.02753469585586638,-0.0008325717216877003,-1.5758342291541947e-05
-0.027530439157847118,-0.0008463380054411286,-1.6178069723324153e-05
-0.027508914063912523,-0.0008600978437465686,-1.660467868562108e-05
-0.027469937217335226,-0.0008738425565668805,-1.7038163785699442e-05
-0.02741337373663902,-0.000887563384305374,-1.7478515270917505e-05
-0.02733913756123671,-0.000901251512129843,-1.792571899502631e-05
-0.027247191441573542,-0.0009148980943805456,-1.8379756396653907e-05
-0.02713754654495106,-0.0009284942788771768,-1.8840604489968338e-05
-0.02701026165845352,-0.0009420312309280279,-1.930823586741964e-05
-0.026865441976012518,-0.0009555001568366443,-1.9782618714360806e-05
-0.026703237461980563,-0.0009688923266961426,-2.0263716835244005e-05
-0.02652384079208183,-0.0009821990962596582,-2.0751489690982955e-05
-0.0263274848843893,-0.0009954119276787761,-2.1245892446967564e-05
-0.026114440044196722,-0.0010085224089109227,-2.1746876031114987e-05
-0.025885010756284632,-0.001021522271611043,-2.225438720124548e-05
-0.02563953217353898,-0.001034403407343499,-2.2768368620984116e-05
-0.02537836637999785,-0.001047157881981883,-2.328875894331546e-05
-0.025101898541937107,-0.0010597779482123667,-2.3815492900864023e-05
-0.024810533084103352,-0.0010722560561188769,-2.4348501401946832e-05
-0.02450469003056281,-0.0010845848618975433,-2.488771163145094e-05
-0.024184801637618752,-0.0010967572348145886,-2.5433047155628972e-05
-0.02385130942985498,-0.001108766262581457,-2.5984428029977985e-05
-0.023504661730609402,-0.001120605255371573,-2.6541770909466243e-05
-0.023145311752208287,-0.0011322677487422775,-2.7104989160494707e-05
-0.02277371628090932,-0.001143747505750557,-2.7673992974117916e-05
-0.02239033496368535,-0.0011550385185617057,-2.824868948019598e-05
-0.021995630180688352,-0.001166135009847799,-2.8828982862298357e-05
-0.021590067463179572,-0.001177031434258766,-2.9414774473324996e-05
-0.02117411639046476,-0.001187722480222177,-3.000596295194523e-05
-0.020748251879142653,-0.0011982030722895787,-3.060244434007317e-05
-0.020312955769080744,-0.0012084683742016346,-3.1204112201695974e-05
-0.01986871860601732,-0.001218513792795409,-3.1810857743445236e-05
-0.019416041510981884,-0.0012283349828246589,-3.242256993735025e-05
-0.018955438015008288,-0.0012379278527061563,-3.3039135646232954e-05
-0.018487435735824623,-0.0012472885711438645,-3.366043975219546e-05
-0.018012577786183738,-0.0012564135745243665,-3.428636528861252e-05
-0.017531423823052346,-0.0012652995749266756,-3.491679357597528e-05
-0.017044550664263542,-0.0012739435685485045,-3.555160436184408e-05
-0.01655255241461166,-0.0012823428443182233,-3.619067596506076e-05
-0.0160560400604803,-0.0012904949924369964,-3.683388542424956e-05
-0.015555640510564076,-0.0012983979125797576,-3.748110865050375e-05
-0.01505199508127686,-0.0013060498214777178,-3.813222058401812e-05
-0.01454575745551259,-0.001313449259611915,-3.878709535429053e-05
-0.014037591181298596,-0.0013205950967711177,-3.944560644338629e-05
-0.013528166806296586,-0.0013274865362680164,-4.010762685164608e-05
-0.013018158752855507,-0.0013341231176578045,-4.0773029265127537e-05
-0.01250824203376988,-0.001340504717854461,-4.14416862240056e-05
-0.011999088907488424,-0.0013466315505897754,-4.211347029111666e-05
-0.011491365577858759,-0.0013525041642111122,-4.278825421981688e-05
-0.010985729046597123,-0.0013581234378672261,-4.346591112033646e-05
-0.010482824214856903,-0.0013634905761825897,-4.414631462384892e-05
-0.009983281306722745,-0.0013686071025629846,-4.482933904353531e-05
-0.009487713666197623,-0.0013734748513062147,-4.551485953200261e-05
-0.008996715967368665,-0.0013780959587146064,-4.620275223450782e-05
-0.008510862868028888,-0.0013824728534234559,-4.689289443754233e-05
-0.008030708119347004,-0.0013866082461702998,-4.758516471244077e-05
-0.007556784114110454,-0.001390505119228664,-4.827944305379051e-05
-0.007089601819785389,-0.001394166715712138,-4.897561101252571e-05
-0.006629651012096139,-0.0013975965289201085,-4.967355182368377e-05
-0.006177400709710463,-0.0014007982918505602,-5.037315052887644e-05
-0.005733299712918447,-0.0014037759669562175,-5.107429409357814e-05
-0.005297777163261816,-0.0014065337361752626,-5.1776871519361006e-05
-0.004871243057229271,-0.0014090759912303854,-5.2480773951212416e-05
-0.004454088657436432,-0.0014114073241590518,-5.318589478005978e-05
-0.00404668674912363,-0.0014135325180106917,-5.389212974060221e-05
-0.003649391694971768,-0.0014154565376217156,-5.4599377004510316e-05
-0.0032625392535721976,-0.0014171845203588516,-5.530753726900546e-05
-0.0028864461457655914,-0.001418721766708686,-5.601651384077235e-05
-0.0025214093737124456,-0.0014200737305885556,-5.672621271509666e-05
-0.0021677053163827917,-0.0014212460092610795,-5.743654265005907e-05
-0.0018255886397328773,-0.0014222443327501083,-5.814741523556186e-05
-0.0014952910660369046,-0.0014230745526765507,-5.8858744956918525e-05
-0.00117702004011639,-0.001423742630453089,-5.957044925270093e-05
-0.0008709573111021019,-0.0014242546247908937,-6.028244856651193e-05
-0.0005772574257850208,-0.0014246166784751156,-6.099466639232843e-05
-0.00029604611503722167,-0.001424835004360321,-6.170702931303729e-05
-2.7418554261478474e-05,-0.0014249158705276458,-6.241946703175928e-05
0.00022856250881730312,-0.0014248655845390068,-6.313191239552594e-05
0.00047186874383158814,-0.0014246904767258445,-6.384430141084216e-05
0.0007025083043615922,-0.0014243968824637961,-6.455657325063957e-05
0.0009205279122183605,-0.001423991123409651,-6.526867025210792e-05
0.0011260148934866693,-0.0014234794877082248,-6.59805379048874e-05
0.0013190991007068955,-0.0014228682092096764,-6.669212482911687e-05
0.001499954656676356,-0.0014221634457703305,-6.740338274286188e-05
0.0016688014591999423,-0.0014213712567413615,-6.81142664184898e-05
0.00182590639596718,-0.0014204975797775697,-6.882473362761953e-05
0.0019715842314671317,-0.001419548207120711,-6.95347450743441e-05
0.0021061981371932126,-0.001418528761528546,-7.024426431650641e-05
0.00223015983946543,-0.0014174446720343814,-7.095325767489715e-05
0.002343929356449586,-0.0014163011497354027,-7.16616941303396e-05
0.0024480142902871143,-0.0014151031638237185,-7.236954520872937e-05
0.002542968638055791,-0.0014138554180916328,-7.307678485420821e-05
0.002629391092054942,-0.0014125623281591052,-7.378338929077089e-05
0.002707922812891775,-0.0014112279996828685,-7.448933687273138e-05
0.0027792446704320546,-0.0014098562078120377,-7.51946079246051e-05
0.002844073956410379,-0.001408450378155327,-7.589918457109694e-05
0.0029031605843151836,-0.0014070135695201456,-7.660305055801581e-05
0.0029572828107073826,-0.0014055484586713899,-7.73061910650637e-05
0.0030072425316686325,-0.0014040573273357958,-7.800859251156549e-05
0.003053860220003147,-0.001402542051647878,-7.871024235631141e-05
0.003097969569634143,-0.0014010040942004686,-7.941112889277349e-05
0.003140411907145277,-0.0013994444988312737,-8.011124104103143e-05
0.0031820304219603223,-0.0013978638882489974,-8.08105681378015e-05
0.003223664260194533,-0.0013962624645784587,-8.150909972600837e-05
0.0032661425239842935,-0.001394640012882414,-8.22068253453736e-05
0.003310278216845856,-0.0013929959076972064,-8.29037343255185e-05
0.0033568621745388473,-0.0013913291225993603,-8.359981558309264e-05
0.0034066570179645574,-0.0013896382428012345,-8.429505742444278e-05
0.0034603911591114325,-0.0013879214807569656,-8.498944735533234e-05
0.0035187528863165033,-0.0013861766947456085,-8.568297189920799e-05
0.0035823845558019484,-0.001384401410385079,-8.637561642549066e-05
0.0036518769231854075,-0.0013825928450153322,-8.706736498934076e-05
0.0037277636579832246,-0.00138074793487004,-8.77582001843121e-05
0.0038105160929675116,-0.0013788633649323024,-8.844810300926269e-05
0.0039005382675998514,-0.0013769356013421604,-8.91370527508313e-05
0.003998162327954198,-0.001374960926193272,-8.982502688271516e-05
0.004103644341058897,-0.0013729354745260188,-9.051200098289498e-05
0.004217160570900145,-0.001370855273298029,-9.119794866985098e-05
0.0043388042522755155,-0.001368716282092235,-9.188284155869855e-05
0.0044685828923005,-0.001366514435306091,-9.256664923804814e-05
0.0046064161290358075,-0.0013642456855507568,-9.324933926826234e-05
0.004752134180493821,-0.0013619060479733744,-9.393087720164337e-05
0.004905476921337342,-0.0013594916451979166,-9.461122662493619e-05
0.005066093625107439,-0.0013569987525613055,-9.5290349224376e-05
0.005233543405371604,-0.0013544238433036858,-9.596820487334225e-05
0.005407296381393674,-0.0013517636333569944,-9.664475174250741e-05
0.005586735585967222,-0.0013490151253651543,-9.731994643218795e-05
0.005771159627683309,-0.0013461756515617416,-9.799374412641967e-05
0.005959786116648881,-0.0013432429151256585,-9.866609876809152e-05
0.00615175585596045,-0.0013402150296325062,-9.933696325428105e-05
0.0063461377850109,-0.0013370905562222633,-0.00010000628965074475
0.0065419346365084285,-0.0013338685381168835,-0.00010067402942432953
0.006738089248222669,-0.0013305485321457007,-0.00010134013369189518
0.006933491463492685,-0.0013271306369677719,-0.00010200455348417354
0.00712698556170345,-0.0013236155177114729,-0.00010266724002284336
0.007317378173916705,-0.0013200044267775678,-0.00010332814500896562
0.0075034466525572925,-0.0013162992205709493,-0.00010398722092080275
0.007683947871785566,-0.0013125023719398636,-0.00010464442131893045
0.00785762743203228,-0.0013086169781139092,-0.0001052997011564439
0.008023229227331147,-0.0013046467639490683,-0.00010595301709195964
0.008179505313552366,-0.0013005960803138474,-0.00010660432780302536
0.008325225996824887,-0.001296469897486253,-0.00010725359429747539
0.008459190047290401,-0.0012922737934752241,-0.00010790078022021577
0.00858023493239133,-0.0012880139372303037,-0.00010854585215289215
0.008687246953798916,-0.0012836970667587562,-0.00010918877990388942
0.008779171164654655,-0.0012793304622291427,-0.0001098295367861364
0.008855020945341395,-0.0012749219142016437,-0.00011046809988024409
0.008913887129709426,-0.001270479687182881,-0.00011110445028059022
0.008954946591936287,-0.0012660124787524697,-0.00011173857332207407
0.008977470214712078,-0.0012615293745508076,-0.00011237045878539989
0.008980830157376858,-0.0012570397994577855,-0.00011300010107890204
0.008964506332330587,-0.0012525534653353586,-0.00011362749939510032
0.008928091987489084,-0.0012480803157554037,-0.00011425265784037301
0.008871298289295573,-0.0012436304681862076,-0.00011487558553635841
0.008793957810215223,-0.00123921415416133,-0.0001154962966919453
0.008696026849058371,-0.0012348416579965116,-0.00011611481064498475
0.008577586551104166,-0.001230523254646471,-0.00011673115187314549
0.008438842841562176,-0.0012262691472983045,-0.00011734534997363168
0.008280125227904552,-0.001222089405280938,-0.00011795743961177649
0.008101884551944783,-0.0012179939028359756,-0.00011856746043880571
0.00790468978016672,-0.0012139922592529478,-0.00011917545697932794
0.007689223920824517,-0.0012100937808277,-0.0001197814784893481
0.00745627915983125,-0.0012063074050575361,-0.00012038557878581941
0.007206751316987794,-0.0012026416474383314,-0.00012098781604894337
0.00694163373018789,-0.0011991045511765375,-0.00012158825259859708
0.006662010666067799,-0.0011957036400774734,-0.0001221869546464106
0.006369050332791102,-0.0011924458748277587,-0.0001227839920251369
0.00606399755024946,-0.0011893376128569986,-0.0001233794378970581
0.005748166128211808,-0.0011863845719373833,-0.00012397336844325669
0.005422931011337402,-0.001183591797652496,-0.00012456586253565416
0.005089720257113807,-0.0011809636348353832,-0.00012515700139377613
0.004750006908997999,-0.0011785037030438554,-0.00012574686822824596
