frame_number,force
0,721.9935187661274
1,721.9869251759817
2,721.9800921599897
3,721.9730172861481
4,721.9656958778789
5,721.9581211972995
6,721.9502846590422
7,721.9421760701462
8,721.9337838893774
9,721.9250954980179
10,721.9160974743505
11,721.9067758654672
12,721.8971164517718
13,721.8871050010599
14,721.8767275103883
15,721.8659704350669
16,721.8548209044158
17,721.8432669228391
18,721.8312975527429
19,721.8189030745142
20,721.806075119563
21,721.7928067749375
22,721.7790926606158
23,721.7649289820388
24,721.7503135609242
25,721.7352458476953
26,721.7197269193234
27,721.7037594666748
28,721.6873477750571
29,721.6704977004749
30,721.6532166427072
31,721.6355135155509
32,721.6173987147719
33,721.5988840849542
34,721.5799828866782
35,721.5607097648003
36,721.5410807172348
37,721.5211130623751
38,721.5008254029087
39,721.4802375841008
40,721.4593706447292
41,721.4382467582319
42,721.4168891608269
43,721.3953220632677
44,721.3735705435982
45,721.3516604190532
46,721.3296180955421
47,721.3074703932576
48,721.2852443475772
49,721.2629669857889
50,721.2406650817061
51,721.2183648912956
52,721.1960918731772
53,721.1738703987869
54,721.1517234584409
55,721.1296723713159
56,721.1077365090522
57,721.0859330436257
58,721.0642767297272
59,721.0427797302044
60,721.0214514907855
61,721.0002986677449
62,720.9793251095682
63,720.9585318913502
64,720.9379173989839
65,720.9174774591698
66,720.8972055105285
67,720.8770928103331
68,720.857128670664
69,720.8373007174346
70,720.8175951657842
71,720.7979971055482
72,720.778490790934
73,720.759059929442
74,720.7396879666416
75,720.7203583652417
76,720.7010548782299
77,720.6817618160999
78,720.6624643075116
79,720.6431485520682
80,720.6238020640583
81,720.6044139068663
82,720.5849749186564
83,720.565477930447
84,720.5459179774316
85,720.5262925031085
86,720.5066015538905
87,720.4868479603041
88,720.4670375002013
89,720.4471790394454
90,720.4272846458923
91,720.4073696731349
92,720.387452811592
93,720.3675561058751
94,720.3477049382581
95,720.3279279782334
96,720.3082570979511
97,720.2887272532581
98,720.2693763302568
99,720.2502449577476
100,720.2313762865234
101,720.212815737207
102,720.1946107190882
103,720.1768103233063
104,720.1594649949465
105,720.1426261900942
106,720.126346024919
107,720.110676923893
108,720.0956712734466
109,720.0813810861284
110,720.0678576788707
111,720.0551513673269
112,720.0433111767916
113,720.0323845694205
114,720.0224171874548
115,720.0134526124655
116,720.005532140767
117,719.9986945752061
118,719.9929760338364
119,719.9884097764291
120,719.9850260497697
121,719.9828519520025
122,719.9819113152292
123,719.9822246049247
124,719.9838088352583
125,719.986677501144
126,719.9908405297545
127,719.9963042550827
128,720.0030714186672
129,720.0111411986032
130,720.0205092682066
131,720.0311678852851
132,720.0431060125777
133,720.0563094692997
134,720.0707611128602
135,720.0864410489978
136,720.1033268678673
137,720.1213939024743
138,720.1406155037126
139,720.160963323641
140,720.1824075969096
141,720.2049174100706
142,720.2284609493931
143,720.2530057190079
144,720.2785187226625
145,720.3049666042789
146,720.3323157447403
147,720.3605323143836
148,720.3895822823857
149,720.4194313860045
150,720.4500450645646
151,720.4813883645703
152,720.5134258229784
153,720.5461213360005
154,720.5794380215148
155,720.6133380840326
156,720.6477826912958
157,720.6827318706239
158,720.7181444316954
159,720.7539779211619
160,720.7901886133683
161,720.8267315401873
162,720.863560561622
163,720.9006284772781
164,720.9378871765983
165,720.9752878229589
166,721.0127810645683
167,721.0503172644613
168,721.0878467422161
169,721.1253200201287
170,721.162688066109
171,721.1999025253368
172,721.236915933584
173,721.2736819068433
174,721.3101553034686
175,721.3462923559051
176,721.3820507697819
177,721.4173897894395
178,721.4522702311789
179,721.486654488188
180,721.5205065133509
181,721.5537917872549
182,721.5864772785443
183,721.6185314027322
184,721.6499239843928
185,721.680626226899
186,721.7106106935443
187,721.7398513035082
188,721.7683233452171
189,721.7960035082612
190,721.82286993351
191,721.8489022796844
192,721.874081803566
193,721.8983914505741
194,721.9218159529295
195,721.9443419340362
196,721.9659580193694
197,721.9866549552338
198,722.0064257367931
199,722.025265745863
200,722.0431728973502
201,722.0601477913522
202,722.076193866558
203,722.0913175501004
204,722.1055283990262
205,722.1188392286392
206,722.1312662232485
207,722.1428290255825
208,722.1535508020651
209,722.1634582818384
210,722.1725817676426
211,722.1809551164602
212,722.1886156874178
213,722.1956042542738
214,722.2019648803201
215,722.2077447544837
216,722.212993988262
217,722.2177653737745
218,722.222114104076
219,722.2260974582501
220,722.2297744552308
221,722.2332054811843
222,722.2364518953414
223,722.2395756186904
224,722.2426387093236
225,722.2457029277487
226,722.2488292952441
227,722.2520776482427
228,722.255506191647
229,722.259171053768
230,722.263125845167
231,722.2674212233354
232,722.2721044651964
233,722.2772190499085
234,722.2828042551369
235,722.2888947706106
236,722.2955203333228
237,722.3027053889687
238,722.3104687838843
239,722.3188234909633
240,722.3277763722149
241,722.337327980157
242,722.347472400213
243,722.358197136559
244,722.3694830441709
245,722.3813043098513
246,722.3936284846984
247,722.4064165698982
248,722.4196231571394
249,722.4331966245547
250,722.4470793888506
251,722.4612082137968
252,722.4755145740497
253,722.4899250715049
254,722.5043618998365
255,722.5187433523693
256,722.5329843689562
257,722.5469971185628
258,722.5606916152691
259,722.5739763659709
260,722.5867590478261
261,722.5989472124032
262,722.6104490119754
263,722.6211739420211
264,722.6310335929478
265,722.6399424032548
266,722.6478184056031
267,722.6545839567162
268,722.6601664421505
269,722.6644989479776
270,722.6675208927709
271,722.6691786140581
272,722.6694259032502
273,722.6682244823004
274,722.6655444145687
275,722.6613644421277
276,722.6556722424399
277,722.6484645991313
278,722.6397474844321
279,722.6295360542789
280,722.617854560168
281,722.6047361837095
282,722.5902228003985
283,722.5743646791162
284,722.5572201241358
285,722.5388550671046
286,722.5193426169263
287,722.4987625747904
288,722.4772009199177
289,722.4547492700934
290,722.4315043207047
291,722.4075672666193
292,722.3830432117683
293,722.3580405710155
294,722.3326704680604
295,722.3070461324095
296,722.2812822980129
297,722.255494605718
298,722.2297990113116
299,722.2043112011979
300,722.1791460189426
301,722.1544169073214
302,722.1302353710619
303,722.106710464682
304,722.0839483080598
305,722.0620516302829
306,722.0411193408139
307,722.0212461266565
308,722.0025220747376
309,721.9850323193876
310,721.9688567153934
311,721.9540695378682
312,721.9407392110505
313,721.9289280685957
314,721.9186921477408
315,721.9100810193463
316,721.9031376559203
317,721.8978983403272
318,721.8943926181561
319,721.8926432959327
320,721.8926664857682
321,721.8944716957989
322,721.8980619656077
323,721.9034340462008
324,721.9105786238516
325,721.9194805858206
326,721.930119324454
327,721.9424690756175
328,721.9564992880573
329,721.9721750211562
330,721.9894573685549
331,722.0083039040194
332,722.0286691444121
333,722.050505023543
334,722.0737613702764
335,722.0983863841445
336,722.1243271016124
337,722.1515298462693
338,722.1799406567675
339,722.2095056871203
340,722.2401715748564
341,722.2718857734535
342,722.3045968463291
343,722.3382547202797
344,722.3728108966554
345,722.4082186187667
346,722.444432994073
347,722.4814110697315
348,722.519111860388
349,722.5574963280071
350,722.5965273148923
351,722.6361694323235
352,722.6763889081564
353,722.7171533974386
354,722.7584317607168
355,722.8001938150612
356,722.8424100629144
357,722.8850514041507
358,722.928088837511
359,722.9714931583342
360,723.0152346592987
361,723.0592828393935
362,723.1036061242307
363,723.1481715993602
364,723.1929447580367
365,723.2378892652629
366,723.2829667399333
367,723.3281365564334
368,723.3733556667025
369,723.4185784438353
370,723.4637565486944
371,723.5088388215303
372,723.5537712009116
373,723.5984966719278
374,723.6429552445716
375,723.6870839620939
376,723.7308169388826
377,723.7740854282287
378,723.8168179212405
379,723.858940278139
380,723.9003758922207
381,723.9410458855467
382,723.9808693342851
383,724.0197635207628
384,724.0576442091058
385,724.0944259421358
386,724.1300223585527
387,724.1643465307562
388,724.1973113248384
389,724.2288297852612
390,724.2588155468856
391,724.2871832755886
392,724.313849135974
393,724.3387312820014
394,724.3617503649944
395,724.3828300535972
396,724.4018975612157
397,724.4188841777684
398,724.4337258039492
399,724.4463634871541
400,724.4567439581177
401,724.4648201659868
402,724.4705518075065
403,724.4739058436692
404,724.4748569950057
405,724.4733882052348
406,724.4694910625894
407,724.4631661685958
408,724.4544234448335
409,724.4432823689633
410,724.4297721321834
411,724.4139317114685
412,724.395809851316
413,724.3754649509667
414,724.3529648541237
415,724.3283865394591
416,724.3018157119568
417,724.2733462970235
418,724.2430798406875
419,724.2111248200318
420,724.1775958687946
421,724.1426129243245
422,724.1063003038721
423,724.0687857200974
424,724.030199247104
425,723.9906722490203
426,723.9503362833591
427,723.9093219916301
428,723.8677579901687
429,723.8257697746985
430,723.7834786526486
431,723.7410007176308
432,723.6984458804283
433,723.6559169700273
434,723.6135089168158
435,723.5713080283895
436,723.5293913664459
437,723.4878262309268
438,723.4466697551737
439,723.4059686137286
440,723.3657588424685
441,723.3260657688354
442,723.2869040480077
443,723.2482777989309
444,723.2101808321534
445,723.1725969598286
446,723.1355003777658
447,723.0988561101398
448,723.0626205086983
449,723.0267417993313
450,722.9911606696793
451,722.9558108924384
452,722.9206199801072
453,722.8855098674934
454,722.8503976180143
455,722.8151961492778
456,722.7798149736036
457,722.7441609502803
458,722.708139047679
459,722.6716531139925
460,722.6346066552612
461,722.5969036188675
462,722.5584491798462
463,722.5191505260619
464,722.4789176369702
465,722.4376640499689
466,722.3953076083661
467,722.3517711852295
468,722.3069833775319
469,722.2608791654201
470,722.213400532489
471,722.1644970442782
472,722.1141263829863
473,722.0622548362626
474,722.0088577373489
475,721.9539198535562
476,721.8974357202936
477,721.8394099182053
478,721.779857290923
479,721.7188031008236
480,721.656283120873
481,721.5923436625563
482,721.5270415424164
483,721.4604439917763
484,721.3926285150391
485,721.3236827014292
486,721.2537039936194
487,721.1827994150746
488,721.1110852566259
489,721.038686721748
490,720.9657375289418
491,720.8923794683683
492,720.8187619087389
493,720.7450412498736
494,720.6713803165666
495,720.5979476905026
496,720.5249169789563
497,720.4524660216326
498,720.3807760397884
499,720.3100307342405
500,720.2404153406994
501,720.172115651919
502,720.1053170165513
503,720.040203324727
504,719.976955990342
505,719.9157529395983
506,719.8567676146088
507,719.8001680002885
508,719.7461156822897
509,719.6947649428989
510,719.6462619003092
511,719.6007436948213
512,719.5583377238555
513,719.5191609265025
514,719.4833191177578
515,719.4509063725375
516,719.4220044600976
517,719.396682330544
518,719.3749956564261
519,719.3569864335037
520,719.3426826452627
521,719.3320979956783
522,719.3252317145233
523,719.3220684394754
524,719.3225781790866
525,719.3267163601146
526,719.3344239620409
527,719.3456277409487
528,719.3602405439411
529,719.378161713696
530,719.3992775811088
531,719.4234620430539
532,719.4505772222641
533,719.4804742065345
534,719.5129938642161
535,719.5479677322209
536,719.5852189720422
537,719.6245633889696
538,719.6658105095812
539,719.708764712536
540,719.7532264076158
541,719.798993257577
542,719.8458614360177
543,719.893626912057
544,719.942086750011
545,719.9910404105373
546,720.0402910392139
547,720.0896467287197
548,720.1389217411078
549,720.1879376769806
550,720.236524579111
551,720.2845219597613
552,720.3317797435491
553,720.3781591202696
554,720.4235333036796
555,720.4677881928735
556,720.5108229334129
557,720.5525503765253
558,720.5928974362644
559,720.6318053459061
560,720.6692298157355
561,720.7051410947965
562,720.7395239392979
563,720.7723774904149
564,720.803715064238
565,720.8335638565454
566,720.8619645649931
567,720.888970931672
568,720.9146492101653
569,720.939077563017
570,720.9623453971097
571,720.9845526451487
572,721.0058090010665
573,721.0262331158985
574,721.045951759021
575,721.065098948288
576,721.0838150521209
577,721.1022458668325
578,721.1205416726052
579,721.1388562711329
580,721.1573460074087
581,721.1761687783074
582,721.1954830318106
583,721.2154467625878
584,721.2362165114241
585,721.2579463771154
586,721.2807870499264
587,721.3048848757322
588,721.3303809596887
589,721.3574103178953
590,721.3861010854097
591,721.4165737891141
592,721.4489406936506
593,721.4833052271591
594,721.5197614908175
595,721.5583938528621
596,721.599276624649
597,721.642473813899
598,721.6880389487941
599,721.736014966099
600,721.7864341568335
601,721.8393181639668
602,721.894678027834
603,721.952514276327
604,722.0128170582589
605,722.0755663193163
606,722.1407320203771
607,722.2082743977572
608,722.2781442646235
609,722.3502833524941
610,722.4246246911198
611,722.5010930238543
612,722.579605254263
613,722.6600709186587
614,722.7423926784303
615,722.8264668251497
616,722.9121837906807
617,722.9994286543978
618,723.0880816404535
619,723.178018599627
620,723.269111472139
621,723.3612287294627
622,723.4542357944578
623,723.5479954402281
624,723.642368168888
625,723.7372125718437
626,723.8323856735867
627,723.9277432619916
628,724.023140209705
629,724.1184307925043
630,724.2134690107192
631,724.3081089190944
632,724.4022049693423
633,724.4956123682437
634,724.5881874524702
635,724.679788079684
636,724.7702740343773
637,724.859507446354
638,724.9473532194129
639,725.0336794676584
640,725.1183579571767
641,725.2012645515001
642,725.2822796600642
643,725.3612886894638
644,725.4381824975262
645,725.5128578499568
646,725.5852178786095
647,725.6551725392872
648,725.7226390653018
649,725.7875424111984
650,725.8498156797311
651,725.9094005245927
652,725.9662475211065
653,726.0203164967685
654,726.0715768133615
655,726.1200075926309
656,726.1655978781396
657,726.2083467269581
658,726.2482632264353
659,726.285366433179
660,726.3196852330061
661,726.3512581216959
662,726.3801329070726
663,726.4063663336441
664,726.4300236323139
665,726.4511779998558
666,726.469910015346
667,726.4863070025825
668,726.5004623481204
669,726.5124747841666
670,726.5224476446799
671,726.5304881018232
672,726.5367063884808
673,726.5412150112999
674,726.5441279579776
675,726.5455599022611
676,726.545625410093
677,726.5444381505015
678,726.5421101152854
679,726.5387508521616
680,726.5344667165979
681,726.5293601478343
682,726.5235289745552
683,726.517065755365
684,726.5100571588875
685,726.5025833882669
686,726.4947176551171
687,726.486525708014
688,726.4780654197349
689,726.4693864357296
690,726.4605298848481
691,726.451528153056
692,726.4424047211764
693,726.4331740673933
694,726.4238416342105
695,726.4144038590581
696,726.4048482687341
697,726.395153639925
698,726.3852902298446
699,726.3752200815172
700,726.364897407125
701,726.3542690505124
702,726.3432750272261
703,726.3318491383209
704,726.3199196529487
705,726.3074100541444
706,726.2942398416061
707,726.2803253843847
708,726.26558081531
709,726.2499189579902
710,726.2332522766485
711,726.2154938390844
712,726.1965582836119
713,726.1763627816962
714,726.1548279885951
715,726.1318789740055
716,726.1074461236921
717,726.081466002225
718,726.0538821667498
719,726.0246459219125
720,725.993717006445
721,725.961064202525
722,725.9266658599001
723,725.8905103277837
724,725.852596288767
725,725.8129329905581
726,725.7715403731146
727,725.7284490904748
728,725.6837004282734
729,725.6373461197363
730,725.5894480651177
731,725.5400779620727
732,725.4893168567953
733,725.437254626995
734,725.3839894076227
735,725.329626969238
736,725.2742800576879
737,725.2180677024494
738,725.1611144993356
739,725.103549871466
740,725.0455073110826
741,724.9871236043346
742,724.9285380414177
743,724.869891615166
744,724.811326212419
745,724.7529838040948
746,724.6950056412545
747,724.6375314649872
748,724.5806987378195
749,724.5246419039709
750,724.4694916850808
751,724.415374416751
752,724.3624114296259
753,724.3107184773056
754,724.2604052123364
755,724.2115747108694
756,724.1643230462764
757,724.1187389119672
758,724.0749032937086
759,724.0328891917594
760,723.992761392775
761,723.954576290535
762,723.9183817535901
763,723.88421703767
764,723.852112740888
765,723.8220907995756
766,723.7941645218623
767,723.7683386557424
768,723.7446094889282
769,723.7229649788173
770,723.7033849115554
771,723.6858410892037
772,723.6702975437795
773,723.6567107767784
774,723.6450300227918
775,723.63519753601
776,723.6271488986667
777,723.6208133506051
778,723.616114138898
779,723.6129688857743
780,723.6112899721122
781,723.6109849330076
782,723.6119568621568
783,723.6141048231642
784,723.6173242678387
785,723.6215074633865
786,723.626543931623
787,723.6323209034842
788,723.6387237910807
789,723.6456366777808
790,723.6529428248806
791,723.6605251916093
792,723.6682669637912
793,723.6760520859387
794,723.6837657921583
795,723.6912951326459
796,723.6985294938927
797,723.7053611114549
798,723.7116855743807
799,723.7174023206329
800,723.7224151233322
801,723.7266325681621
802,723.7299685226272
803,723.7323425980925
804,723.7336806054558
805,723.7339150043543
806,723.7329853437182
807,723.730838688877
808,723.7274300281744
809,723.7227226505105
810,723.7166884844256
811,723.7093083892008
812,723.7005723889232
813,723.6904798412105
814,723.679039533021
815,723.6662696968009
816,723.6521979416442
817,723.6368610963677
818,723.6203049639946
819,723.602583989627
820,723.5837608461095
821,723.5639059443652
822,723.543096877693
823,723.5214178114136
824,723.498958830675
825,723.4758152594054
826,723.4520869620068
827,723.4278776369563
828,723.4032941091862
829,723.3784456267215
830,723.3534431665206
831,723.3283987541998
832,723.3034248020664
833,723.2786334699308
834,723.2541360536801
835,723.2300424070862
836,723.2064604024782
837,723.1834954360256
838,723.1612499835846
839,723.1398232127889
840,723.1193106557026
841,723.0998039439622
842,723.0813906055632
843,723.0641539201117
844,723.0481728278286
845,723.0335218867144
846,723.0202712717848
847,723.0084868101507
848,722.9982300460368
849,722.9895583305092
850,722.9825249315631
851,722.9771791611524
852,722.9735665165433
853,722.9717288339264
854,722.9717044525097
855,722.9735283872658
856,722.9772325079183
857,722.9828457207674
858,722.9903941491851
859,722.999901308728
860,723.0113882739145
861,723.0248738353519
862,723.0403746474555
863,723.0579053681354
864,723.0774787923153
865,723.0991059805701
866,723.1227963821088
867,723.1485579484466
868,723.176397232122
869,723.2063194650058
870,723.2383286129968
871,723.2724274070697
872,723.3086173532372
873,723.3468987247996
874,723.3872705391137
875,723.4297305189111
876,723.4742750359981
877,723.5208990335813
878,723.569595922896
879,723.6203574505392
880,723.673173534628
881,723.7280320697909
882,723.7849187025699
883,723.843816580188
884,723.9047060768398
885,723.9675645024464
886,724.032365799224
887,724.0990802317792
888,724.1676740767515
889,724.2381093180007
890,724.3103433530438
891,724.3843287163003
892,724.4600128248574
893,724.5373377525912
894,724.61624003836
895,724.6966505336738
896,724.7784942947126
897,724.8616905227101
898,724.9461525556391
899,725.0317879131471
900,725.1184983960902
901,725.206180241792
902,725.2947243358648
903,725.3840164805202
904,725.4739377177904
905,725.5643647043667
906,725.6551701331381
907,725.7462231950901
908,725.8373900740737
909,725.9285344660788
910,726.0195181141353
911,726.1102013501692
912,726.2004436363749
913,726.2901041008168
914,726.3790420644874
915,726.4671175593269
916,726.5541918383731
917,726.6401278802776
