acceleration,velocity,displacement
-0.00013588744850193116,0.0,0.0
-0.00022577231367022898,-9.041494054304004e-08,-2.260373513576001e-11
-0.0003195325681682335,-2.2674116100265567e-07,-1.0189276052218393e-10
-0.0004171739029215243,-4.1091777877509514e-07,-2.6130749546662164e-10
-0.0005187268025472518,-6.448929551422892e-07,-5.252601789459677e-10
-0.0006242445835190532,-9.306358016588654e-07,-9.191423681462563e-10
-0.0007338010775138487,-1.270147216917091e-06,-1.4693381227902453e-09
-0.0008474880104992883,-1.6654694889203752e-06,-2.2032422992496118e-09
-0.0009654121527798177,-2.118694529740152e-06,-3.149283303914744e-09
-0.0010876923301517114,-2.631970650473034e-06,-4.336949598968041e-09
-0.0012144563843927512,-3.2075078291091496e-06,-5.796819218863587e-09
-0.0013458381554746755,-3.847581464076006e-06,-7.560591542159875e-09
-0.0014819745382722341,-4.554534637512733e-06,-9.66112056755706e-09
-0.0016230026494971914,-5.3307789344550895e-06,-1.2132448960549015e-08
-0.0017690571255991772,-6.178793878229182e-06,-1.5009842163720083e-08
-0.0019202675597738284,-7.1011250495724335e-06,-1.8329821895670488e-08
-0.0020767560827122437,-8.100380960193952e-06,-2.2130198398112083e-08
-0.002238635104161962,-9.179228756912503e-06,-2.64501008273887e-08
-0.0024060052552787523,-1.0340388846772682e-05,-3.133000522831e-08
-0.0025789535865882005,-1.158662855723942e-05,-3.681175957931302e-08
-0.002757552067546715,-1.2920754970773149e-05,-4.293860546131616e-08
-0.0029418564052309283,-1.434560708896756e-05,-4.9755195976251334e-08
-0.003131905170363438,-1.5864047482866152e-05,-5.730760961920976e-08
-0.0033277192023440016,-1.7478953576043012e-05,-6.564335988393705e-08
-0.003529301259493318,-1.9193208691502343e-05,-7.481140045082339e-08
-0.0037366358773893013,-2.1009692975722996e-05,-8.486212586762973e-08
-0.00394968939287288,-2.2931274293288543e-05,-9.584736768488262e-08
-0.004168410087897442,-2.4960799163481124e-05,-1.0782038604907503e-07
-0.004392728411887943,-2.710108378842747e-05,-1.2083585678705218e-07
-0.0046225572545723,-2.9354905205042532e-05,-1.349498540354197e-07
-0.004857792257006407,-3.172499258293721e-05,-1.5021982848241463e-07
-0.00509831215716283,-3.421401868647952e-05,-1.6670458129976882e-07
-0.005343979164119149,-3.682459151680002e-05,-1.8446423385058871e-07
-0.005594639347484538,-3.955924614470094e-05,-2.0356019326596397e-07
-0.005850123025880986,-4.242043673804232e-05,-2.2405511398664977e-07
-0.006110245145700809,-4.541052878093777e-05,-2.460128553663948e-07
-0.00637480565680105,-4.853179148156324e-05,-2.6949843543202006e-07
-0.006643589906000271,-5.178639037226357e-05,-2.945779808954768e-07
-0.006916369073560579,-5.517638011715378e-05,-3.2131867351783113e-07
-0.007192900674091872,-5.8703697554066894e-05,-3.497886929356363e-07
-0.00747292914203943,-6.237015500809971e-05,-3.8005715607617794e-07
-0.00775618652892568,-6.617743392584099e-05,-4.1219405330966315e-07
-0.00804239334850081,-7.012707889519761e-05,-4.4627018151492277e-07
-0.008331259607018093,-7.422049213407734e-05,-4.823570742722415e-07
-0.008622486047879272,-7.845892854780168e-05,-5.205269294427113e-07
-0.00891576563102581,-8.284349146752795e-05,-5.608525344465437e-07
-0.00921078526408905,-8.737512919130667e-05,-6.034071896112524e-07
-0.009507227801149227,-9.205463245761624e-05,-6.482646300234831e-07
-0.009804774317877062,-9.688263298737282e-05,-6.954989463847303e-07
-0.010103106656338616,-0.00010185960323092673,-7.451845054393053e-07
-0.010401910215500843,-0.0001069858574488866,-7.973958706092586e-07
-0.010700876951372769,-0.000112261554240605,-8.522077235316315e-07
-0.010999708542564416,-0.0001176867006140893,-9.096947872453051e-07
-0.011298119666413595,-0.0001232611576663338,-9.699317518154108e-07
-0.011595841314589959,-0.0001289846479115847,-1.0329932032098904e-06
-0.011892624056987969,-0.00013485676425447918,-1.0989535562514064e-06
-0.01218824114362974,-0.00014087698055463362,-1.1678869924536847e-06
-0.012482491323723923,-0.00014704466367147204,-1.2398674035102111e-06
-0.012775201265762733,-0.0001533590868188437,-1.3149683411327901e-06
-0.01306622748162679,-0.00015981944400569108,-1.3932629738389238e-06
-0.013355457684191066,-0.00016642486529714555,-1.4748240511646329e-06
-0.013642811536994483,-0.00017317443260244194,-1.5597238756395297e-06
-0.01392824078409768,-0.00018006719568271497,-1.648034282710819e-06
-0.0142117287745964,-0.0001871021880723885,-1.739826628649595e-06
-0.014493289415351636,-0.0001942784426198755,-1.8351717863226609e-06
-0.014772965597258885,-0.00020159500637302813,-1.934140148570887e-06
-0.015050827148854438,-0.00020905095455955647,-2.036801638804033e-06
-0.015326968379884504,-0.0002166454034417412,-2.1432257283043574e-06
-0.015601505285597178,-0.00022437752185811163,-2.2534814596293208e-06
-0.01587457248660608,-0.00023224654130116245,-2.3676374754191395e-06
-0.016146319978754264,-0.00024025176441750252,-2.485762051848806e-06
-0.016416909765000473,-0.00024839257185344123,-2.607923135916542e-06
-0.016686512436752784,-0.00025666842740387953,-2.7341883857308722e-06
-0.016955303761757867,-0.0002650788814535072,-2.864625212945219e-06
-0.017223461317967505,-0.00027362357272343857,-2.9993008264894555e-06
-0.017491161192140912,-0.0002823022283509657,-3.1382822767580565e-06
-0.017758574746860732,-0.0002911146623357161,-3.281636499429727e-06
-0.018025865456880234,-0.0003000607723866513,-3.4294303581103188e-06
-0.018293185823424124,-0.0003091405352067274,-3.5817306850086636e-06
-0.01856067438248128,-0.00031835400025820375,-3.7386043188748964e-06
-0.01882845282128657,-0.0003277012820591457,-3.900118139454234e-06
-0.01909662320752999,-0.00033718255106634983,-4.066339097735608e-06
-0.01936526532556084,-0.00034679802319962256,-4.237334241302101e-06
-0.019634434108025,-0.000356547948058019,-4.413170734116511e-06
-0.01990415715432694,-0.000366432595873607,-4.5939158700994175e-06
-0.02017443234186484,-0.0003764522432476549,-4.779637079879733e-06
-0.02044522555732569,-0.0003866071577224526,-4.97040193012226e-06
-0.020716468592926956,-0.00039689758126001576,-5.166278114867877e-06
-0.02098805726020573,-0.00040732371272329896,-5.367333438363706e-06
-0.021259849773430945,-0.0004178856894817081,-5.5736357889149575e-06
-0.021531665450529813,-0.0004285835682876983,-5.785253103357309e-06
-0.021803283772023684,-0.0004394173055933367,-6.002253321827568e-06
-0.022074443825757403,-0.000450386737492782,-6.224704332599098e-06
-0.022344844149799627,-0.00046149155948667126,-6.452673906843961e-06
-0.022614142975678247,-0.0004727313062680407,-6.686229623282639e-06
-0.02288195887221035,-0.00048410533173001284,-6.925438782782152e-06
-0.023147871792236072,-0.0004956127893961244,-7.1703683130636864e-06
-0.02341142452529005,-0.000507252613475506,-7.4210846637815945e-06
-0.02367212455686233,-0.0005190235007460441,-7.677653692336981e-06
-0.023929446329784637,-0.0005309238934677058,-7.940140540890419e-06
-0.024182833896271214,-0.0005429519635242198,-8.2086095051384e-06
-0.024431703940945935,-0.0005551055979835241,-8.483123895515337e-06
-0.024675449146340896,-0.0005673823862553458,-8.763745891575054e-06
-0.024913441862263602,-0.0005797796090074969,-9.050536390390764e-06
-0.02514503802643184,-0.0005922942289796708,-9.343554849887556e-06
-0.025369581267048157,-0.0006049228838030408,-9.642859128083233e-06
-0.025586407106272514,-0.000617661880896371,-9.948505319258087e-06
-0.025794847183066755,-0.0006305071944687058,-1.0260547588099356e-05
-0.025994233422967087,-0.0006434544646202143,-1.0579038002871586e-05
-0.026183902096222865,-0.0006564989985000118,-1.0904026368651643e-05
-0.026363197722331335,-0.0006696357734546503,-1.1235560061640309e-05
-0.026531476797415077,-0.0006828594420845869,-1.1573683865525119e-05
-0.026688111337395373,-0.0006961643391182895,-1.1918439810825839e-05
-0.026832492238844433,-0.0007095444900123495,-1.2269867018108498e-05
-0.026964032459538503,-0.0007229936211869452,-1.2628001545908321e-05
-0.02708217001724434,-0.000736505171806141,-1.2992876244156593e-05
-0.027186370803716206,-0.0007500723070113811,-1.3364520613860974e-05
-0.027276131210324316,-0.0007636879325148912,-1.3742960673742542e-05
-0.02735098055825248,-0.0007773447104570354,-1.4128218834485524e-05
-0.027410483321296857,-0.0007910350764269228,-1.4520313781206513e-05
-0.027454241129308395,-0.0008047512575395741,-1.4919260364698137e-05
-0.027481894548197994,-0.0008184852914589507,-1.532506950194777e-05
-0.02749312464439304,-0.0008322290462570985,-1.5737748086376783e-05
-0.027487654348971144,-0.0008459742410054396,-1.6157298908192416e-05
-0.027465249630831846,-0.0008597124670003903,-1.6583720585193874e-05
-0.027425720468682083,-0.0008734352095252688,-1.701700750432529e-05
-0.027368921590022785,-0.000887133870039945,-1.7457149774216594e-05
-0.027294752935835144,-0.0009007997886714094,-1.7904133188894433e-05
-0.027203159814974,-0.0009144242668591117,-1.8357939202777064e-05
-0.027094132723661707,-0.0009279985899937706,-1.8818544916990286e-05
-0.026967706814045655,-0.0009415140498781975,-1.9285923076958277e-05
-0.02682396100054329,-0.0009549619668318447,-1.9760042081135787e-05
-0.026663016697207467,-0.0009683337112562823,-2.0240866000657818e-05
-0.026485036186543,-0.0009816207244772199,-2.0728354609591195e-05
-0.02629022063000804,-0.0009948145386813577,-2.1222463425380838e-05
-0.026078807739920943,-0.0010079067957738399,-2.1723143758994636e-05
-0.025851069140543043,-0.001020889264993956,-2.2230342774186584e-05
-0.02560730745905783,-0.0010337538591438562,-2.2744003555221036e-05
-0.0253478532114729,-0.001046492649311489,-2.326406518233487e-05
-0.025073061578136307,-0.0010590978780088912,-2.3790462814164967e-05
-0.024783309183202634,-0.001071561970699226,-2.4323127776341995e-05
-0.024478990994359778,-0.0010838775457436165,-2.4861987655452707e-05
-0.024160517449204406,-0.0010960374228545075,-2.540696639760224e-05
-0.02382831190100841,-0.0011080346301920608,-2.5957984410863882e-05
-0.02348280846024819,-0.001119862410282375,-2.651495867098249e-05
-0.023124450286607617,-0.001131514224969089,-2.7077802829795355e-05
-0.022753688360942555,-0.0011429837596309766,-2.764642732594537e-05
-0.02237098074354162,-0.0011542649269070976,-2.822073949757989e-05
-0.02197679230563072,-0.0011653518701693908,-2.880064369684901e-05
-0.021571594901077608,-0.001176238966971068,-2.9386041406134123e-05
-0.021155867923417296,-0.0011869208326771917,-2.997683135604619e-05
-0.020730099176452733,-0.0011973923244521592,-3.057290964532853e-05
-0.020294785979369658,-0.0012076485457411148,-3.1174169862876847e-05
-0.019850436423507683,-0.0012176848513418342,-3.178050321214758e-05
-0.01939757068988655,-0.0012274968531201828,-3.239179863826308e-05
-0.018936722326841147,-0.0012370804263743646,-3.300794295813672e-05
-0.01846843938568076,-0.001246431716802495,-3.362882099393094e-05
-0.01799328532306066,-0.0012555471479796805,-3.425431571012648e-05
-0.017511839595126037,-0.0012644234292092272,-3.488430835442371e-05
-0.01702469788296819,-0.0012730575635787507,-3.5518678602620705e-05
-0.01653247190175981,-0.0012814468560249327,-3.6157304707521625e-05
-0.01603578876022442,-0.0012895889211904288,-3.680006365182546e-05
-0.015535289852498598,-0.0012974816908436096,-3.744683130483397e-05
-0.015031629281996159,-0.0013051234206272334,-3.809748258270168e-05
-0.01452547184195977,-0.0013125126959082224,-3.8751891611835546e-05
-0.014017490608944711,-0.0013196484365209486,-3.940993189494284e-05
-0.013508364230039843,-0.0013265299002306948,-4.007147647913075e-05
-0.01299877399191089,-0.0013331566847861825,-4.073639812538497e-05
-0.01248940075601151,-0.001339528728473163,-4.140456947869981e-05
-0.011980921843155263,-0.0013456463091229547,-4.207586323809884e-05
-0.011474007955930591,-0.0013515100415727262,-4.275015232577276e-05
-0.01096932023006838,-0.0013571208736192259,-4.3427310054570746e-05
-0.010467507496055298,-0.0013624800805507567,-4.410721029311324e-05
-0.009969203812673343,-0.0013675892583779388,-4.4789727627845415e-05
-0.009475026316482643,-0.0013724503159102278,-4.547473752141746e-05
-0.008985573421349364,-0.0013770654658446858,-4.616211646685619e-05
-0.008501423394358457,-0.0013814372150486127,-4.6851742137079515e-05
-0.008023133319660852,-0.0013855683542271175,-4.754349352939845e-05
-0.007551238436828735,-0.0013894619471662398,-4.823725110474679e-05
-0.007086251810038596,-0.0013931213197279566,-4.893289692147034e-05
-0.00662866425899643,-0.0013965500487452152,-4.963031476358863e-05
-0.0061789444698979535,-0.0013997519509274389,-5.032939026350679e-05
-0.005737539206658333,-0.001402731071846578,-5.103001101920029e-05
-0.005304873554349937,-0.00140549167503683,-5.173206670592115e-05
-0.004881351140200596,-0.0014080382312104678,-5.243544918248297e-05
-0.004467354286133384,-0.0014103754075670512,-5.3140052592177354e-05
-0.004063244050423427,-0.0014125080571511905,-5.3845773458356916e-05
-0.0036693601203460517,-0.001414441208193883,-5.4552510774693187e-05
-0.003286020527947242,-0.0014161800533559563,-5.526016609008065e-05
-0.0029135211767458255,-0.0014177299387821297,-5.596864358811517e-05
-0.0025521351843072614,-0.0014190963528723929,-5.66778501610288e-05
-0.002202112061262563,-0.0014202849146837853,-5.738769547791785e-05
-0.0018636767594545987,-0.0014213013618889646,-5.809809204706104e-05
-0.0015370286269698068,-0.0014221515382355707,-5.880895527209217e-05
-0.0012223403021289808,-0.0014228413804678454,-5.952020350176803e-05
-0.000919756562541899,-0.001423376904684013,-6.0231758073055995e-05
-0.0006293931263882309,-0.0014237641921062457,-6.094354334725356e-05
-0.0003513353908965791,-0.001424009374235567,-6.165548673883902e-05
-8.563709242197382e-05,-0.0014241186173563965,-6.2367518736737e-05
0.00016768111728917456,-0.0014240981063501797,-6.307957291766365e-05
0.00040863316595097913,-0.0014239540277793696,-6.379158595119604e-05
0.0006372690930035632,-0.0014236925522146308,-6.450349759619454e-05
0.0008536765701683625,-0.001423319815798838,-6.521525068819791e-05
0.001057982355732219,-0.0014228419010673629,-6.592679111741446e-05
0.001250353628362238,-0.0014222648170713393,-6.663806779694913e-05
0.0014309991473547398,-0.0014215944788774101,-6.734903262093632e-05
0.001600170189538048,-0.0014208366865431869,-6.805964041229147e-05
0.0017581612214256355,-0.0014199971036904459,-6.876984885984988e-05
0.0019053102759655468,-0.001419081235816098,-6.94796184447265e-05
0.002041999011154651,-0.001418094408494318,-7.01889123558041e-05
0.002168652430518814,-0.0014170417456338996,-7.089769639433615e-05
0.0022857382432975295,-0.0014159281479654456,-7.160593886773599e-05
0.002393765837608588,-0.001414758271945219,-7.231361047271365e-05
0.002493284838181552,-0.0014135365092762715,-7.302068416801902e-05
0.002584883226004306,-0.001412266967260225,-7.372713503715314e-05
0.0026691850082141808,-0.0014109534502016704,-7.443294014151861e-05
0.002746847436312093,-0.0014095994420905388,-7.513807836459167e-05
0.0028185577781245875,-0.0014082080907869296,-7.584253024781104e-05
0.002885029658977541,-0.0014067821939276542,-7.654627781898969e-05
0.0029469990030090007,-0.0014053241867621575,-7.724930441416215e-05
0.0030052196219345867,-0.0014038361321059216,-7.795159449387917e-05
0.0030604585085250106,-0.0014023197125733067,-7.865313345504898e-05
0.0031134908928816983,-0.0014007762252229551,-7.935390743949805e-05
0.003165095114148416,-0.0013992065787211975,-8.005390314048408e-05
0.0032160473532716186,-0.0013976112931043424,-8.075310760844047e-05
0.003267116267091568,-0.0013959905021992517,-8.145150805726637e-05
0.0033190575612874747,-0.001394343958742157,-8.214909167250172e-05
0.0033726085386418143,-0.0013926710422171747,-8.284584542274155e-05
0.003428482658165261,-0.001390970769417973,-8.354175587565034e-05
0.003487364138039425,-0.0013892418077189217,-8.423680901993457e-05
0.0035499026306866632,-0.0013874824910267403,-8.493099009462098e-05
0.003616707994218369,-0.001385690838370514,-8.56242834269703e-05
0.0036883451849379287,-0.001383864575075725,-8.631667228033186e-05
0.0037653293010550437,-0.0013820011564542266,-8.700813871321434e-05
0.003848120815381819,-0.0013800977939251173,-8.769866345080918e-05
0.003937121041940594,-0.0013781514834607868,-8.838822577015566e-05
0.0040326678873728525,-0.0013761590362284584,-8.907680340007796e-05
0.004135031940437403,-0.001374117111271506,-8.976437243695296e-05
0.004244412949016666,-0.0013720222500491423,-9.045090727728312e-05
0.004360936724842016,-0.0013698709126306777,-9.113638056795308e-05
0.004484652506689615,-0.0013676595153227947,-9.182076317494144e-05
0.004615530807257358,-0.0013653844694943079,-9.250402417114571e-05
0.004753461768385224,-0.0013630422213503973,-9.318613084385689e-05
0.004898254052163703,-0.00136062929239526,-9.38670487222933e-05
0.005049634298551914,-0.0013581423203075811,-9.454674162546902e-05
0.005207247180327886,-0.0013555780999378612,-9.522517173053037e-05
0.0053706560821927506,-0.001352933624122231,-9.590229966154539e-05
0.005539344424091069,-0.0013502061239956602,-9.657808459857486e-05
0.005712717641889417,-0.001347393108479165,-9.725248440669356e-05
0.005890105833870301,-0.001344492402610225,-9.792545578446591e-05
0.006070767078472509,-0.0013415021843821392,-9.8596954431214e-05
0.006253891422908699,-0.0013384210197567939,-9.926693523224874e-05
0.006438605528501736,-0.0013352478955189412,-9.993535246106767e-05
0.006623977938241006,-0.0013319822496522555,-0.00010060215999736046
0.006809024914473783,-0.0013286239989390768,-0.0001012673115595083
0.006992716788607063,-0.0013251735635133066,-0.00010193076095012139
0.0071739847705434255,-0.001321631888123519,-0.0001025924623130306
0.007351728177054484,-0.0013180004598866194,-0.00010325237040003313
0.0075248220495793645,-0.001314281322329961,-0.00010391044084558728
0.0076921251383012534,-0.0013104770855329908,-0.00010456663044755301
0.007852488226624064,-0.0013065909321917596,-0.0001052208974519842
0.00800476275776754,-0.0013026266194456617,-0.00010587320183989356
0.008147809708071715,-0.0012985884763292018,-0.00010652350561383728
0.008280508635921726,-0.0012944813967432035,-0.00010717177308210538
0.008401766823430364,-0.0012903108278783655,-0.00010781797113826077
0.008510528418973297,-0.0012860827540677646,-0.0001084620695337473
0.008605783480341413,-0.001281803676092936,-0.00010910404114128747
0.008686576812167127,-0.0012774805860198087,-0.00010974386220681565
0.008752016492714895,-0.0012731209376935883,-0.000110381512587744
0.008801281996677353,-0.0012687326130712403,-0.00011101697597543522
0.008833631836004899,-0.0012643238846130698,-0.0001116502400998563
0.008848410649758831,-0.0012599033739916288,-0.00011228129691450747
0.008845055672478244,-0.0012554800074110696,-0.00011291014275985815
0.008823102502192634,-0.001251062967867402,-0.00011353677850367776
0.008782190080673213,-0.0012466616447216856,-0.00011416120965682503
0.008722064796093892,-0.0012422855810024938,-0.00011478344646325607
0.008642583626351502,-0.0012379444188968824,-0.00011540350396323091
0.00854371626199045,-0.0012336478439247968,-0.00011602140202893632
0.008425546180095046,-0.0012294055283142754,-0.00011663716537199609
0.008288270679678009,-0.001225227074099332,-0.00011725082352259948
0.008132199924316918,-0.0012211219564483334,-0.0001178624107802364
0.007957755059247403,-0.0012170994677024424,-0.00011847196613627409
0.007765465476819634,-0.0012131686625684256,-0.0001190795331688418
0.007555965304507321,-0.001209338304873094,-0.00011968515991070218
0.007329989192877539,-0.0012056168162487477,-0.00012028889869098265
0.007088367489198352,-0.0012020122270782287,-0.00012089080595181439
0.00683202088771504,-0.0011985321299840003,-0.00012149094204107995
0.006561954640245279,-0.0011951836361020103,-0.00012208937098260147
0.006279252392051523,-0.001191973334343936,-0.00012268616022521295
0.00598506969118908,-0.0011889072538231258,-0.0001232813803722547
0.005680627215797996,-0.001185990829596379,-0.00012387510489310957
0.005367203771014344,-0.001183228871849676,-0.00012446740981847108
0.005046129113318077,-0.001180625538628593,-0.00012505837342109065
0.0047187766571395616,-0.0011781843121859785,-0.0001256480758837943
