frame_number,force
0,721.9979181444247
1,721.9913026925248
2,721.9844020151606
3,721.9772156934844
4,721.9697414838525
5,721.9619754622161
6,721.9539121946241
7,721.9455449301203
8,721.9368658104977
9,721.9278660902754
10,721.918536360404
11,721.9088667703717
12,721.8988472448281
13,721.8884676920961
14,721.8777182030443
15,721.8665892397208
16,721.8550718134077
17,721.84315765084
18,721.8308393456476
19,721.8181104909834
20,721.8049657899542
21,721.7914011425643
22,721.7774137100395
23,721.763001958617
24,721.7481656852866
25,721.7329060282168
26,721.7172254649882
27,721.701127802007
28,721.6846181581382
29,721.6677029446265
30,721.6503898422046
31,721.6326877756577
32,721.6146068862835
33,721.5961585032314
34,721.5773551149108
35,721.5582103411147
36,721.5387389053686
37,721.5189566059698
38,721.4988802838631
39,721.478527785774
40,721.4579179211178
41,721.4370704106823
42,721.4160058244254
43,721.3947455056477
44,721.3733114793882
45,721.351726343542
46,721.3300131414501
47,721.3081952147911
48,721.2862960361335
49,721.2643390216399
50,721.2423473256881
51,721.2203436200633
52,721.1983498609748
53,721.1763870479357
54,721.1544749797378
55,721.1326320142314
56,721.1108748400285
57,721.0892182690225
58,721.0676750582707
59,721.0462557683817
60,721.0249686635967
61,721.0038196566143
62,720.9828122990326
63,720.9619478163454
64,720.9412251850193
65,720.9206412483206
66,720.9001908669271
67,720.8798670997196
68,720.8596614095435
69,720.8395638884325
70,720.8195634968162
71,720.7996483114099
72,720.7798057768259
73,720.7600229567023
74,720.7402867814477
75,720.7205842912217
76,720.7009028738795
77,720.6812304978135
78,720.6615559390591
79,720.6418690014809
80,720.6221607289983
81,720.6024236095133
82,720.5826517709633
83,720.56284117035
84,720.542989776379
85,720.5230977452712
86,720.5031675877376
87,720.4832043238141
88,720.4632156216857
89,720.4432119166654
90,720.423206506805
91,720.4032156221559
92,720.3832584656374
93,720.3633572245984
94,720.3435370529165
95,720.3238260236119
96,720.3042550518086
97,720.2848577878199
98,720.2656704803071
99,720.2467318098442
100,720.2280826937297
101,720.2097660634943
102,720.1918266172028
103,720.174310549392
104,720.1572652625154
105,720.1407390649961
106,720.1247808618554
107,720.1094398439151
108,720.0947651809054
109,720.0808057227886
110,720.0676097123895
111,720.0552245110631
112,720.0436963379199
113,720.0330700224705
114,720.0233887705396
115,720.0146939435567
116,720.0070248514495
117,720.0004185593987
118,719.9949097089777
119,719.990530354557
120,719.9873098158522
121,719.9852745469174
122,719.9844480210023
123,719.9848506301524
124,719.9864995988644
125,719.989408912549
126,719.9935892631424
127,719.9990480149053
128,720.00578919306
129,720.0138134970763
130,720.0231183397849
131,720.0336979131495
132,720.0455432811958
133,720.0586425000657
134,720.0729807644417
135,720.0885405788928
136,720.105301952097
137,720.1232426109434
138,720.1423382297266
139,720.1625626674664
140,720.1838882049361
141,720.2062857728406
142,720.2297251633121
143,720.2541752178998
144,720.2796039864313
145,720.3059788527195
146,720.3332666249463
147,720.3614335902536
148,720.3904455345037
149,720.4202677296427
150,720.4508648927033
151,720.4822011217288
152,720.5142398144382
153,720.5469435757284
154,720.5802741207058
155,720.6141921806527
156,720.6486574194444
157,720.6836283671353
158,720.7190623762303
159,720.754915605091
160,720.791143031983
161,720.8276985022196
162,720.8645348097193
163,720.9016038130083
164,720.9388565838499
165,720.9762435843625
166,721.0137148666773
167,721.0512202886547
168,721.08870973945
169,721.1261333688067
170,721.1634418135644
171,721.2005864146759
172,721.23751941875
173,721.2741941595817
174,721.3105652164274
175,721.3465885465183
176,721.3822215898722
177,721.4174233455532
178,721.4521544203689
179,721.4863770532173
180,721.5200551201715
181,721.5531541263125
182,721.5856411901838
183,721.6174850258736
184,721.6486559267507
185,721.6791257542369
186,721.7088679347414
187,721.7378574675613
188,721.7660709458008
189,721.7934865912056
190,721.8200843025487
191,721.8458457160542
192,721.8707542754523
193,721.8947953088887
194,721.917956110326
195,721.9402260242524
196,721.9615965339061
197,721.9820613541225
198,722.001616529951
199,722.0202605414406
200,722.0379944136604
201,722.0548218294725
202,722.0707492414446
203,722.0857859788829
204,722.0999443460008
205,722.113239707312
206,722.1256905565853
207,722.1373185663141
208,722.1481486154454
209,722.1582087936937
210,722.1675303809689
211,722.1761478002861
212,722.1840985421915
213,722.191423058612
214,722.1981646244644
215,722.2043691661605
216,722.2100850568697
217,722.2153628789378
218,722.2202551546004
219,722.2248160472682
220,722.2291010368623
221,722.2331665734185
222,722.2370697132332
223,722.2408677414253
224,722.2446177842724
225,722.2483764142834
226,722.2521992507728
227,722.256140558617
228,722.2602528478101
229,722.2645864762458
230,722.269189257806
231,722.2741060775447
232,722.2793785157796
233,722.2850444833139
234,722.2911378705667
235,722.297688213919
236,722.3047203830207
237,722.3122542929822
238,722.3203046450833
239,722.328880698964
240,722.337986078558
241,722.3476186136246
242,722.3577702186946
243,722.3684268114561
244,722.3795682728362
245,722.391168451045
246,722.4031952115574
247,722.4156105345076
248,722.4283706604659
249,722.441426285219
250,722.4547228039523
251,722.468200604809
252,722.4817954107825
253,722.4954386674048
254,722.5090579723951
255,722.5225775429934
256,722.5359187171288
257,722.5490004854221
258,722.5617400518497
259,722.574053421365
260,722.5858560125724
261,722.5970632926385
262,722.6075914303597
263,722.6173579621556
264,722.6262824648896
265,722.6342872287521
266,722.6412979228281
267,722.6472442455253
268,722.6520605521382
269,722.6556864526804
270,722.6580673742417
271,722.6591550827972
272,722.6589081592726
273,722.6572924240658
274,722.6542813035879
275,722.649856132217
276,722.644006383643
277,722.6367298271147
278,722.628032606476
279,722.6179292427713
280,722.6064425637842
281,722.5936035654569
282,722.57945121063
283,722.5640321705636
284,722.5474005149337
285,722.5296173566154
286,722.510750457947
287,722.4908738046341
288,722.4700671520757
289,722.4484155476564
290,722.4260088322824
291,722.4029411249584
292,722.379310294666
293,722.3552174235755
294,722.330766264943
295,722.306062698456
296,722.281214185437
297,722.2563292259478
298,722.2315168195255
299,722.206885931509
300,722.1825449679044
301,722.15860126291
302,722.1351605836718
303,722.1123266561866
304,722.0902007147846
305,722.0688810758802
306,722.0484627354112
307,722.0290369890812
308,722.0106910749488
309,721.9935078384519
310,721.9775654204307
311,721.9629369693433
312,721.9496903795709
313,721.9378880580697
314,721.9275867214587
315,721.9188372252994
316,721.911684427391
317,721.9061670873856
318,721.9023178052333
319,721.9001630002971
320,721.899722931629
321,721.9010117588559
322,721.9040376429697
323,721.9088028866169
324,721.9153041132578
325,721.923532483462
326,721.9334739453416
327,721.9451095156575
328,721.958415588658
329,721.9733642704234
330,721.9899237364931
331,722.0080586096332
332,722.0277303533325
333,722.0488976757136
334,722.0715169382065
335,722.0955425632314
336,722.1209274350532
337,722.1476232880758
338,722.1755810773084
339,722.2047513263992
340,722.2350844493741
341,722.2665310430004
342,722.2990421474142
343,722.3325694731669
344,722.367065593194
345,722.4024840983867
346,722.4387797155091
347,722.4759083862292
348,722.5138273063083
349,722.5524949247551
350,722.591870903898
351,722.6319160423986
352,722.6725921640087
353,722.7138619754666
354,722.7556888974611
355,722.7980368728919
356,722.8408701567248
357,722.8841530919863
358,722.92784987709
359,722.9719243303249
360,723.0163396571663
361,723.0610582248241
362,723.1060413466894
363,723.1512490781328
364,723.1966400249272
365,723.2421711658797
366,723.287797691245
367,723.3334728581056
368,723.3791478636001
369,723.4247717369332
370,723.4702912514169
371,723.5156508582263
372,723.5607926437889
373,723.6056563124368
374,723.6501791950567
375,723.6942962835287
376,723.7379402905353
377,723.7810417349792
378,723.8235290539857
379,723.8653287424256
380,723.906365520092
381,723.9465625256305
382,723.985841535363
383,724.0241232044117
384,724.0613273273652
385,724.0973731163781
386,724.1321794957195
387,724.1656654128822
388,724.1977501673332
389,724.228353758804
390,724.2573972571396
391,724.284803194531
392,724.3104959786829
393,724.334402323232
394,724.3564516906017
395,724.376576742572
396,724.3947137946574
397,724.4108032714665
398,724.4247901613738
399,724.4366244696406
400,724.4462616690436
401,724.4536631459922
402,724.45879663842
403,724.4616366598204
404,724.4621649020087
405,724.4603706079952
406,724.456250906047
407,724.4498110964197
408,724.4410648828951
409,724.4300345419144
410,724.4167510228525
411,724.4012539740013
412,724.3835916899964
413,724.3638209774807
414,724.3420069367083
415,724.3182226578668
416,724.2925488323907
417,724.2650732811255
418,724.235890402383
419,724.2051005436355
420,724.1728093012694
421,724.1391267538822
422,724.1041666361151
423,724.068045461603
424,724.0308816048307
425,723.9927943522754
426,723.953902933402
427,723.914325542279
428,723.874178360987
429,723.8335745964515
430,723.7926235427419
431,723.7514296811928
432,723.7100918306401
433,723.6687023593719
434,723.627346469199
435,723.5861015606301
436,723.5450366864796
437,723.5042120992777
438,723.4636788958312
439,723.4234787604762
440,723.3836438069123
441,723.3441965168759
442,723.3051497722731
443,723.2665069757637
444,723.2282622530947
445,723.1904007291375
446,723.1528988691422
447,723.1157248772977
448,723.0788391456679
449,723.0421947473966
450,723.0057379687183
451,722.9694088750907
452,722.9331419076433
453,722.8968665065809
454,722.8605077579138
455,722.8239870594075
456,722.7872228017608
457,722.7501310619474
458,722.7126263067383
459,722.6746221049455
460,722.6360318468201
461,722.5967694686361
462,722.5567501797757
463,722.5158911885521
464,722.4741124218937
465,722.4313372334146
466,722.3874930944255
467,722.3425122626361
468,722.2963324234408
469,722.2488972990317
470,722.2001572214765
471,722.1500696670332
472,722.0985997496401
473,722.0457206714309
474,721.9914141276624
475,721.9356706632277
476,721.8784899781585
477,721.8198811798303
478,721.7598629795787
479,721.6984638313746
480,721.6357220108187
481,721.5716856343515
482,721.5064126207207
483,721.43997059849
484,721.3724367641037
485,721.3038976946144
486,721.2344491180455
487,721.1641956430523
488,721.0932504484906
489,721.0217349326726
490,720.9497783212355
491,720.8775172315422
492,720.8050951906122
493,720.7326621031258
494,720.6603736662639
495,720.5883907290943
496,720.5168785958963
497,720.4460062750339
498,720.3759456773233
499,720.3068707699105
500,720.2389566932235
501,720.172378849447
502,720.1073119713128
503,720.0439291801102
504,719.9824010417991
505,719.9228946297369
506,719.8655726019192
507,719.8105923001337
508,719.7581048780302
509,719.7082544643953
510,719.6611773666509
511,719.6170013180252
512,719.575844770427
513,719.5378162340683
514,719.5030136643664
515,719.4715238965796
516,719.4434221290373
517,719.4187714566771
518,719.3976224576443
519,719.3800128365865
520,719.365967128638
521,719.3554964679798
522,719.3485984246495
523,719.3452569131911
524,719.3454421765347
525,719.3491108479768
526,719.3562060935218
527,719.3666578362619
528,719.3803830635961
529,719.397286216728
530,719.4172596604648
531,719.4401842305369
532,719.4659298555875
533,719.4943562511158
534,719.5253136824265
535,719.5586437929777
536,719.5941804938981
537,719.6317509101422
538,719.6711763786506
539,719.7122734938067
540,719.7548551954102
541,719.7987318940393
542,719.8437126275447
543,719.8896062403956
544,719.9362225754246
545,719.983373666093
546,720.0308749169757
547,720.0785462603445
548,720.1262132770104
549,720.173708269861
550,720.2208712791659
551,720.2675510301631
552,720.3136058056299
553,720.3589042383021
554,720.4033260193665
555,720.4467625198042
556,720.4891173218427
557,720.5303066587728
558,720.5702597627393
559,720.608919121309
560,720.646240644395
561,720.6821937435055
562,720.7167613254373
563,720.7499397026094
564,720.7817384222959
565,720.8121800169944
566,720.8412996781434
567,720.8691448557462
568,720.895774787485
569,720.921259962433
570,720.9456815258343
571,720.9691306320447
572,720.9917077524436
573,721.0135219441116
574,721.0346900837154
575,721.0553360699487
576,721.0755899974997
577,721.0955873057321
578,721.1154679054043
579,721.1353752864287
580,721.1554556092506
581,721.1758567825776
582,721.1967275311989
583,721.2182164591945
584,721.2404711153213
585,721.2636370683014
586,721.287857000134
587,721.3132698255657
588,721.3400098456171
589,721.3682059427358
590,721.3979808250424
591,721.429450327237
592,721.462722775483
593,721.4978984223236
594,721.5350689553861
595,721.5743170808391
596,721.615716179941
597,721.6593300349778
598,721.7052126196259
599,721.753407948336
600,721.803949979595
601,721.856862568672
602,721.9121594664502
603,721.9698443620358
604,722.0299109679206
605,722.0923431472912
606,722.1571150833382
607,722.2241914902127
608,722.293527864967
609,722.3650707795257
610,722.4387582111711
611,722.5145199090138
612,722.5922777927502
613,722.6719463791068
614,722.7534332306434
615,722.8366394208408
616,722.9214600087294
617,723.0077845162
618,723.0954974018078
619,723.1844785261857
620,723.27460360571
621,723.3657446524129
622,723.457770399206
623,723.5505467103553
624,723.6439369777961
625,723.7378025042126
626,723.8320028741294
627,723.9263963150861
628,724.020840052287
629,724.1151906611988
630,724.2093044227438
631,724.3030376851466
632,724.396247235553
633,724.4887906833915
634,724.5805268560497
635,724.6713162061001
636,724.761021228413
637,724.8495068850414
638,724.9366410354871
639,725.0222948698731
640,725.1063433428152
641,725.1886656063815
642,725.2691454412002
643,725.3476716852961
644,725.4241386604447
645,725.4984465956305
646,725.5705020466424
647,725.6402183099062
648,725.7075158272886
649,725.7723225771156
650,725.8345744455808
651,725.8942155722578
652,725.9511986632198
653,726.0054852650298
654,726.0570459927609
655,726.1058607054517
656,726.1519186229661
657,726.1952183791085
658,726.2357680072064
659,726.2735848559701
660,726.3086954348169
661,726.3411351887756
662,726.3709482036858
663,726.3981868430091
664,726.422911318677
665,726.4451892002179
666,726.4650948685165
667,726.4827089221042
668,726.4981175443892
669,726.5114118399274
670,726.5226871470984
671,726.5320423335544
672,726.5395790796289
673,726.5454011538382
674,726.5496136840034
675,726.5523224273012
676,726.5536330425178
677,726.5536503679108
678,726.5524777084482
679,726.5502161366977
680,726.5469638120809
681,726.5428153234274
682,726.5378610597049
683,726.532186613524
684,726.5258722217134
685,726.5189922471991
686,726.5116147066185
687,726.5038008481064
688,726.4956047829213
689,726.4870731731133
690,726.4782449761866
691,726.4691512474284
692,726.4598150008012
693,726.4502511290032
694,726.4404663824038
695,726.430459406106
696,726.4202208351812
697,726.4097334498027
698,726.3989723934667
699,726.3879054578636
700,726.3764934370103
701,726.3646905512855
702,726.3524449397262
703,726.3396992171206
704,726.3263910914126
705,726.3124540363941
706,726.2978180141438
707,726.2824102409106
708,726.2661559892277
709,726.2489794182015
710,726.2308044234431
711,726.2115554981201
712,726.1911585970768
713,726.1695419966987
714,726.1466371436885
715,726.1223794856691
716,726.0967092756957
717,726.069572342059
718,726.040920814607
719,726.0107137990038
720,725.9789179906755
721,725.9455082207322
722,725.910467926903
723,725.8737895434012
724,725.8354748046953
725,725.7955349594941
726,725.7539908927534
727,725.7108731549878
728,725.6662218996096
729,725.6200867305572
730,725.572526464312
731,725.5236088125504
732,725.473409993657
733,725.4220142823935
734,725.3695135069175
735,725.3160065015271
736,725.2615985225234
737,725.206400633514
738,725.1505290651335
739,725.0941045526856
740,725.037251654135
741,724.9800980505224
742,724.9227738311108
743,724.8654107661889
744,724.8081415714898
745,724.7510991695387
746,724.6944159543812
747,724.6382230666085
748,724.5826496854951
749,724.5278223447509
750,724.4738642778126
751,724.420894797525
752,724.3690287137181
753,724.318375790979
754,724.269040248043
755,724.2211202996672
756,724.1747077415893
757,724.1298875791192
758,724.0867376999428
759,724.0453285917059
760,724.0057231046345
761,723.9679762586635
762,723.9321350937369
763,723.8982385616947
764,723.8663174583074
765,723.8363943938184
766,723.8084837997299
767,723.7825919692326
768,723.7587171291128
769,723.7368495417951
770,723.7169716367026
771,723.6990581701083
772,723.6830764124204
773,723.6689863616884
774,723.6567409820893
775,723.6462864662772
776,723.6375625206764
777,723.6305026728735
778,723.6250346000373
779,723.6210804767064
780,723.6185573394365
781,723.6173774651567
782,723.6174487602533
783,723.6186751585328
784,723.6209570278213
785,723.6241915864858
786,723.6282733321646
787,723.6330944851088
788,723.6385454476788
789,723.6445152800553
790,723.6508921906276
791,723.6575640380056
792,723.6644188404185
793,723.671345287804
794,723.6782332524081
795,723.684974294877
796,723.6914621639543
797,723.6975932885177
798,723.7032672608942
799,723.7083873106136
800,723.7128607681809
801,723.7165995188877
802,723.7195204469974
803,723.7215458708499
804,723.7226039693892
805,723.7226291998418
806,723.7215627045608
807,723.7193527028966
808,723.7159548620972
809,723.7113326399977
810,723.7054575915935
811,723.6983096315134
812,723.6898772448183
813,723.6801576391929
814,723.6691568322378
815,723.656889668271
816,723.6433797602593
817,723.6286593543738
818,723.6127691168416
819,723.5957578448583
820,723.5776821053562
821,723.5586058075081
822,723.5385997168676
823,723.5177409208032
824,723.4961122560887
825,723.4738017096637
826,723.4509018024287
827,723.4275089639242
828,723.4037229038382
829,723.3796459851288
830,723.355382603107
831,723.3310385746072
832,723.3067205411548
833,723.2825353900798
834,723.2585896979464
835,723.2349892010724
836,723.2118382980348
837,723.1892395891496
838,723.1672934580779
839,723.1460977004704
840,723.1257472034197
841,723.1063336774843
842,723.0879454407304
843,723.0706672522795
844,723.0545801915572
845,723.0397615786992
846,723.026284931134
847,723.0142199512453
848,723.0036325402635
849,722.994584834091
850,722.9871352574875
851,722.9813385938021
852,722.9772460681005
853,722.9749054419786
854,722.9743611185921
855,722.9756542563773
856,722.9788228894453
857,722.9839020517977
858,722.9909239018754
859,722.9999178440374
860,723.0109106444846
861,723.0239265404998
862,723.0389873431794
863,723.0561125347692
864,723.0753193621277
865,723.0966229273614
866,723.1200362749623
867,723.1455704723797
868,723.1732346793069
869,723.2030362011267
870,723.2349805238398
871,723.2690713304454
872,723.3053105009124
873,723.343698098561
874,723.3842323447336
875,723.4269095818014
876,723.4717242227349
877,723.5186686841442
878,723.5677332992302
879,723.6189062076987
880,723.6721732211265
881,723.7275176638404
882,723.7849201906877
883,723.8443585842199
884,723.9058075348238
885,723.969238407978
886,724.0346190031612
887,724.101913309235
888,724.1710812613801
889,724.2420785046424
890,724.314856168896
891,724.3893606599042
892,724.465533471281
893,724.5433110222457
894,724.6226245259647
895,724.7033998929925
896,724.7855576738793
897,724.8690130442858
898,724.9536758350298
899,725.039450608658
900,725.1262367836177
901,725.2139288069102
902,725.3024163758414
903,725.3915847087261
904,725.4813148631185
905,725.5714840987085
906,725.6619662806495
907,725.7526323178863
908,725.8433506300785
909,725.9339876359704
910,726.0244082556204
911,726.1144764190581
912,726.2040555749588
913,726.2930091946992
914,726.381201269247
915,726.46849679823
916,726.5547622718988
917,726.6398661475902
918,726.7236793228905
