frame_number,force
0,834.6812100000728
1,834.7711560816662
2,834.8581041601974
3,834.9390642834261
4,835.0109911366183
5,835.070647698949
6,835.114470803621
7,835.138538573925
8,835.138710025175
9,835.1109547590919
10,835.0518438565849
11,834.9591376074933
12,834.8323738552823
13,834.6733359825627
14,834.4862832325895
15,834.2778673626159
16,834.0567174420644
17,833.8327255544219
18,833.6161096660013
19,833.416372245215
20,833.2413057547373
21,833.096200891418
22,832.9833813672136
23,832.902127274666
24,832.8489750111562
25,832.8183152851827
26,832.8031679152248
27,832.7959996563502
28,832.789468345839
29,832.7770167340401
30,832.7532871141376
31,832.7143657152585
32,832.6578862951816
33,832.583028501221
34,832.4904453228187
35,832.3821487497777
36,832.261369218303
37,832.1323814163902
38,832.0002697014684
39,831.8706054772207
40,831.7490255732874
41,831.6407247975532
42,831.549902930851
43,831.4792361243708
44,831.4294661434374
45,831.3992019779506
46,831.3849987462545
47,831.3817251614653
48,831.3831682025142
49,831.3827715097945
50,831.374383595191
51,831.352912192886
52,831.3148264679306
53,831.2584902383293
54,831.1843264364671
55,831.0948061677962
56,830.9942446865582
57,830.8883940189784
58,830.7838524681447
59,830.6873500719236
60,830.6049985446066
61,830.5416054991641
62,830.5001440087219
63,830.4814396016923
64,830.4840931356775
65,830.5046154341525
66,830.5377227239065
67,830.5767336116004
68,830.6140157448373
69,830.6414492796282
70,830.6508961199161
71,830.6346789481344
72,830.5860770856325
73,830.4998360128315
74,830.3726663427781
75,830.2036820598239
76,829.9947069557232
77,829.7503756198105
78,829.4779765524266
79,829.1870208595249
80,828.8885578355697
81,828.5942919155023
82,828.3155826935251
83,828.062432518645
84,827.8425798473952
85,827.660808853565
86,827.5185577678462
87,827.413875956607
88,827.3417449697492
89,827.2947295811354
90,827.2638649557742
91,827.2396380868412
92,827.2129086944668
93,827.1756508573087
94,827.1214701293542
95,827.0459194284733
96,826.9466661278448
97,826.8235555237459
98,826.6785903423473
99,826.515814576723
100,826.3410676323282
101,826.1615760892129
102,825.9853738766575
103,825.8205769486408
104,825.6745819985886
105,825.5533026626981
106,825.4605755737825
107,825.3978389001239
108,825.3641155910051
109,825.3562593653788
110,825.3693774972247
111,825.3973380717638
112,825.4332866420087
113,825.4701221458031
114,825.5009081905297
115,825.5192233532115
116,825.5194765997948
117,825.4972161472258
118,825.449438090505
119,825.3748746062538
120,825.2742316294715
121,825.1503494976037
122,825.008259392756
123,824.8550972479106
124,824.6998253200358
125,824.5527131868112
126,824.424556343476
127,824.3256701553589
128,824.2647769949942
129,824.2479656508773
130,824.2779074105747
131,824.353458422719
132,824.4696943037965
133,824.6183524692112
134,824.7886167105374
135,824.9681508183904
136,825.1442621080284
137,825.3050664887865
138,825.440544873736
139,825.5434085655438
140,825.6097065272763
141,825.6391100603647
142,825.6348176203405
143,825.6030521548337
144,825.5521816374232
145,825.4915705918631
146,825.4303436040834
147,825.3762775593847
148,825.3350071332859
149,825.3096339818142
150,825.3007241062412
151,825.3066101085656
152,825.3238963785677
153,825.3480753499995
154,825.3741773402464
155,825.3973812847103
156,825.4135129324828
157,825.4193721310554
158,825.4128762743962
159,825.393063291877
160,825.3600285671596
161,825.3148639474421
162,825.259633496871
163,825.1973696949973
164,825.1320260374565
165,825.0683116716115
166,825.0113732790542
167,824.96635358678
168,824.9379078620283
169,824.9297762754817
170,824.9444863026362
171,824.9832084120632
172,825.0457362957337
173,825.130535651082
174,825.234813059287
175,825.3545863748578
176,825.4847682471644
177,825.619294681633
178,825.7513401252211
179,825.873652774801
180,825.979017159918
181,826.0608234572079
182,826.1137072676912
183,826.1342054314014
184,826.1213403885745
185,826.0770174620084
186,826.0061255143609
187,825.9162747377943
188,825.8171670430451
189,825.7196582514806
190,825.6346280672487
191,825.5718131033124
192,825.5387691137292
193,825.5401077458383
194,825.577104203796
195,825.6477034749408
196,825.7468810489079
197,825.8672593351369
198,825.9998562982798
199,826.1348577218507
200,826.2623559620437
201,826.3730485304055
202,826.4588961119339
203,826.5137094857755
204,826.5336126599589
205,826.5173356573601
206,826.4663104735015
207,826.3845607544771
208,826.2783882569897
209,826.1558748980107
210,826.0262395848857
211,825.8991061413598
212,825.7837458545503
213,825.6883538292481
214,825.6194067988946
215,825.5811456271646
216,825.5752396783564
217,825.6007068079123
218,825.6541452311441
219,825.7302672741428
220,825.8226446063359
221,825.9245293082282
222,826.0296159568229
223,826.1326361116977
224,826.2297170790525
225,826.3184903462266
226,826.39798834114
227,826.468402133767
228,826.5307799569067
229,826.5867332633012
230,826.6381946809906
231,826.6872493137898
232,826.7360430894416
233,826.7867616478563
234,826.8416638865028
235,826.9031345708088
236,826.973695707544
237,827.0559128300608
238,827.1521634943781
239,827.2642792658298
240,827.3931037871199
241,827.5380349281095
242,827.6966537574709
243,827.8645662967667
244,828.0355547850443
245,828.2020514768761
246,828.3558572323631
247,828.4889750591573
248,828.5944214790525
249,828.6668964127508
250,828.7032217238739
251,828.7025020674024
252,828.666020449884
253,828.5969374384032
254,828.4998900799477
255,828.3805744921208
256,828.2453597351183
257,828.100941183617
258,827.9540161702729
259,827.8109664027351
260,827.6775545266164
261,827.5586541427623
262,827.4580159672665
263,827.3780569057054
264,827.3196767865562
265,827.2821441241108
266,827.2631092538212
267,827.258789006151
268,827.2643333652786
269,827.2743401042808
270,827.2834355893582
271,827.2868068098485
272,827.2805735182558
273,827.2619371419971
274,827.2291146690465
275,827.1811237444794
276,827.117505416622
277,827.0380625906388
278,826.9426787692914
279,826.831267325703
280,826.7038756196207
281,826.5609307804604
282,826.4035730500094
283,826.2339825823392
284,826.0555810415815
285,825.8730078372043
286,825.6918401112835
287,825.5181134662026
288,825.3577591005333
289,825.2160749212991
290,825.0973021814918
291,825.0043235538027
292,824.9384716957145
293,824.8994443068261
294,824.885332830137
295,824.8927597597373
296,824.9170924628327
297,824.9526952008462
298,824.9932125427888
299,825.0319147187946
300,825.0621311458633
301,825.077751590379
302,825.0737345414809
303,825.0465636718329
304,824.9946159256832
305,824.9184139462658
306,824.820729668995
307,824.7065049462984
308,824.5825665610595
309,824.4571321353826
310,824.3391289801527
311,824.2373815408179
312,824.1597603297319
313,824.1124116316738
314,824.0991844535531
315,824.1213341050803
316,824.1775276901716
317,824.2641285008235
318,824.3757029323666
319,824.5056726724547
320,824.6470242249704
321,824.7929887749715
322,824.9376171862068
323,825.0761915184647
324,825.2054353175614
325,825.3235187374913
326,825.4299001274993
327,825.5250805097544
328,825.6103468144297
329,825.6875435378726
330,825.7588680393665
331,825.8266636315547
332,825.8931941858879
333,825.9604062932277
334,826.0297040490278
335,826.1017753862824
336,826.1765135175868
337,826.2530606751043
338,826.3299660475174
339,826.4054207999566
340,826.4775313712448
341,826.5446065577346
342,826.6054349260179
343,826.6595118694959
344,826.7071677829873
345,826.7495697779326
346,826.7886032458507
347,826.8266588461288
348,826.8663475570368
349,826.9101567770286
350,826.9600669105114
351,827.0171774489462
352,827.0814205165111
353,827.151433309736
354,827.2246128132382
355,827.2973192596882
356,827.3651677792341
357,827.423361172579
358,827.4670517324371
359,827.4917482952391
360,827.4937844507981
361,827.4708289911437
362,827.4223665624808
363,827.3500370268774
364,827.2577242741507
365,827.1513365744671
366,827.0383005482073
367,826.9268588205371
368,826.8252856972492
369,826.7411206059496
370,826.6804962523491
371,826.647625622845
372,826.6445007782988
373,826.6708329227034
374,826.7242272277645
375,826.8005503804369
376,826.8944293852038
377,826.9998237382713
378,827.1106335627275
379,827.2213261857714
380,827.3275609773325
381,827.4267575710998
382,827.5185061872995
383,827.6047028539745
384,827.6893327253317
385,827.7779031224604
386,827.8766047006551
387,827.9913343776922
388,828.1267468304516
389,828.2855046570535
390,828.4678597536089
391,828.6716310880461
392,828.8925701673442
393,829.125032391919
394,829.3628058417274
395,829.5999203607512
396,829.8312980077532
397,830.0531898104849
398,830.2634145204611
399,830.4614353319906
400,830.6482947513317
401,830.8264144298879
402,830.9992752310532
403,831.1710136124088
404,831.3459836031998
405,831.5283280878047
406,831.7215865205075
407,831.9283598261168
408,832.1500658773
409,832.3868269067929
410,832.637503006602
411,832.8998333678028
412,833.1706163523005
413,833.4458812432667
414,833.7210596592078
415,833.9912084174294
416,834.2513399658567
417,834.4968832513138
418,834.7242424964884
419,834.9313627595247
420,835.1181748413217
421,835.2867977830172
422,835.4414194036204
423,835.5878339868868
424,835.7326816719292
425,835.8825030277263
426,836.0427755986906
427,836.2171072457778
428,836.4067183033419
429,836.610281372105
430,836.8241348599223
431,837.0428448305792
432,837.2600445584259
433,837.4694291229132
434,837.6657393668046
435,837.8455595659528
436,838.007783925542
437,838.1536659735117
438,838.2864451274595
439,838.4106416286986
440,838.5311906094885
441,838.6526039537857
442,838.7783047695692
443,838.9102153295253
444,839.0486261025601
445,839.1923295289977
446,839.3389595613015
447,839.4854457653408
448,839.6284852027301
449,839.7649571818871
450,839.8922381235584
451,840.0084000524123
452,840.1122942704576
453,840.2035356741769
454,840.2824136461231
455,840.3497624474485
456,840.4068286618452
457,840.4551710417888
458,840.4966103950143
459,840.5332150139086
460,840.5672788427138
461,840.6012492315432
462,840.6375947430604
463,840.6786444171894
464,840.7264413090383
465,840.7826289401636
466,840.8483572683505
467,840.9241809505221
468,841.0099326610089
469,841.1045822676388
470,841.2061267073063
471,841.3115766973903
472,841.4170996131712
473,841.5183406906082
474,841.6108871309127
475,841.6907832475983
476,841.7549780614247
477,841.8016040997574
478,841.8300347204769
479,841.8407251100746
480,841.8348943867168
481,841.8141375266571
482,841.7800535177074
483,841.7339492178448
484,841.6766507729584
485,841.6084391755902
486,841.5291190195654
487,841.4382191816082
488,841.3353051860661
489,841.2203565882469
490,841.0941333735657
491,840.9584331189488
492,840.8161476145347
493,840.6710818243032
494,840.5275802765196
495,840.3900648004412
496,840.2625901775256
497,840.1484857198391
498,840.0501081978484
499,839.9687081487617
500,839.9044079174495
501,839.8562934519475
502,839.822619002535
503,839.8011075703198
504,839.7893044915859
505,839.7849203726109
506,839.7860959859072
507,839.7915361077073
508,839.8004816604637
509,839.8125192543132
510,839.8272733274748
511,839.8440799987458
512,839.8617685874859
513,839.878646927837
514,839.8927090716601
515,839.9020001504801
516,839.9050220472988
517,839.9010591038287
518,839.8903371969687
519,839.8739835432383
520,839.8538075730845
521,839.8319590901574
522,839.8105381539996
523,839.7912431893353
524,839.7751464750608
525,839.762654851921
526,839.7536413139484
527,839.7476578120979
528,839.7441120739287
529,839.7423289640274
530,839.741494244206
531,839.7405476409028
532,839.7381118196992
533,839.7325082245097
534,839.7218539409744
535,839.7041991839128
536,839.6776688824762
537,839.6405974912162
538,839.591666654602
539,839.5300555269172
540,839.45559452837
541,839.3688871876767
542,839.2713483776495
543,839.1651145826818
544,839.0528162058939
545,838.9372513815321
546,838.8210399034677
547,838.7063422048424
548,838.5947008515508
549,838.4870186136374
550,838.3836479394223
551,838.2845451259365
552,838.1894419770416
553,838.0979993694059
554,838.0099198762363
555,837.9250081897529
556,837.8431797713815
557,837.7644273191484
558,837.6887578148155
559,837.6161092406218
560,837.5462493157496
561,837.4786583634182
562,837.4124098309943
563,837.3460756759956
564,837.2776887130669
565,837.2047908985331
566,837.1245849342117
567,837.0341787894679
568,836.93087739452
569,836.8124598509478
570,836.6773939282848
571,836.5249654620004
572,836.3553222698902
573,836.1694436648803
574,835.969042542791
575,835.7563939279542
576,835.534084948054
577,835.3047112286619
578,835.0705870383063
579,834.8335561354302
580,834.5949669395347
581,834.35582099361
582,834.1170469501184
583,833.8798119858175
584,833.6457603985101
585,833.4170732655222
586,833.1962903387976
587,832.9859167666893
588,832.7879104458532
589,832.6031772542053
590,832.431190588215
591,832.2698124393677
592,832.115340381798
593,831.962758680995
594,831.806150506062
595,831.6392305527413
596,831.4559660364648
597,831.2512551315392
598,831.0216212712936
599,830.7658594334561
600,830.4855414970434
601,830.1852661438803
602,829.8725454912972
603,829.5572690445734
604,829.2507660722246
605,828.9645713933985
606,828.7090603043886
607,828.4921464024724
608,828.3182360459108
609,828.1876081934159
610,828.0963288115025
611,828.0367130548666
612,827.9982496268159
613,827.9688445798064
614,827.9362297282477
615,827.8893816959218
616,827.8197945008296
617,827.7224542848586
618,827.5963959290085
619,827.4447786556858
620,827.2744852397421
621,827.0953084896305
622,826.9188334675109
623,826.7571553156938
624,826.6215847109637
625,826.5214807991136
626,826.463323984176
627,826.4501129677633
628,826.4811430158578
629,826.552185122351
630,826.6560373064717
631,826.7833708747455
632,826.9237561453276
633,827.0667307919192
634,827.2027768183119
635,827.3241017623968
636,827.4251696818194
637,827.5029806944036
638,827.557129442532
639,827.5896706604118
640,827.6048018303647
641,827.6083665516716
642,827.6071943489594
643,827.608312096932
644,827.6180834784902
645,827.6413593947224
646,827.6807515960134
647,827.7361583685275
648,827.8046551227792
649,827.8808041243616
650,827.9573453072353
651,828.026136568821
652,828.0791616610785
653,828.1094390347595
654,828.1117251120947
655,828.0829715839016
656,828.0225447336786
657,827.9322384407465
658,827.8161123518331
659,827.6801749252804
660,827.5319262160572
661,827.3797821853544
662,827.2324082564749
663,827.0979892678065
664,826.9834708597919
665,826.8938353368629
666,826.8315074807073
667,826.7959937460356
668,826.7838319077811
669,826.7888825328703
670,826.8029453315138
671,826.8166387817497
672,826.820445503676
673,826.8058035222435
674,826.766113649075
675,826.69753893641
676,826.5995040102945
677,826.4748540938294
678,826.3296769627331
679,826.172807964445
680,826.015044516704
681,825.8681217562066
682,825.743551529867
683,825.651472465601
684,825.5996623417102
685,825.59282423904
686,825.6322070716369
687,825.7155820357649
688,825.8375638415722
689,825.9902239373258
690,826.1638936804179
691,826.3480244236545
692,826.5319819687235
693,826.705696246161
694,826.8601382705689
695,826.9876429345918
696,827.0821342315422
697,827.1393257518449
698,827.1569462762319
699,827.1349823185974
700,827.0758719299799
701,826.9845620433647
702,826.8683567600553
703,826.7365161392061
704,826.5996025325665
705,826.4686143079232
706,826.3539926990496
707,826.2646253280668
708,826.2069831081666
709,826.1845068419865
710,826.1973158497699
711,826.2422629268942
712,826.3133183705343
713,826.4022318086755
714,826.4993970586999
715,826.5948349593285
716,826.6792039073854
717,826.7447352619022
718,826.7859766616707
719,826.8002375888029
720,826.7876841625044
721,826.7511020637127
722,826.6953963978551
723,826.6269079535463
724,826.5526186417053
725,826.4793282086506
726,826.4129141583884
727,826.3578016545781
728,826.3167307054875
729,826.2908219958127
730,826.2798645529093
731,826.2827205225597
732,826.2977549753921
733,826.3232146286576
734,826.3574857637376
735,826.3991819705946
736,826.4470635565457
737,826.4998475057795
738,826.5559896762347
739,826.6135028110646
740,826.6698434613504
741,826.7218850564716
742,826.7659964808881
743,826.7982503578941
744,826.8147739670824
745,826.8122218464019
746,826.7883022853829
747,826.7422496685602
748,826.6751286271327
749,826.5899013640733
750,826.4912610954515
751,826.385282006879
752,826.2789420312583
753,826.1795639495347
754,826.0942151410073
755,826.0291067890864
756,825.9890376541102
757,825.9769389922316
758,825.9935891054653
759,826.0375614209449
760,826.1054391674535
761,826.192278332008
762,826.292243469299
763,826.3992971024608
764,826.5078150379952
765,826.6130372537268
766,826.7113263287682
767,826.8002534973615
768,826.878545593642
769,826.945917959018
770,827.0028164730691
771,827.0501077050877
772,827.0887770621069
773,827.1197014354525
774,827.1435466941065
775,827.1608047022306
776,827.1719387080483
777,827.1775653005823
778,827.1785862908185
779,827.1762080887635
780,827.1718396064288
781,827.1669117149335
782,827.1626830495496
783,827.1600835116119
784,827.1596157306169
785,827.161306490412
786,827.1646854373714
787,827.1687725094762
788,827.172080419303
789,827.1726711178605
790,827.1683147155894
791,827.1567658090387
792,827.1361166521416
793,827.1051541317217
794,827.063654101215
795,827.0125666821565
796,826.9540602726167
797,826.891412222253
798,826.8287658122935
799,826.7707921581406
800,826.7222868720607
801,826.6877187708072
802,826.6707607498168
803,826.6738621550339
804,826.6979346912165
805,826.74220750964
806,826.8042776683702
807,826.8803562032639
808,826.9656853581612
809,827.0550709349665
810,827.1434465124926
811,827.2263894843961
812,827.3005454645553
813,827.3639556286016
814,827.4162912257357
815,827.458981320746
816,827.4951927440013
817,827.5296079475708
818,827.5679697242286
819,827.6164266971508
820,827.6807891453929
821,827.765843279173
822,827.8748505328563
823,828.0092931602281
824,828.1688564767209
825,828.3515953897571
826,828.5542269564036
827,828.772503663108
828,829.0016316681824
829,829.236698305275
830,829.4730722988592
831,829.706744767522
832,829.934584230761
833,830.1544790089796
834,830.3653419489256
835,830.566966897981
836,830.7597553992191
837,830.9443628329541
838,831.1213284543611
839,831.2907484486523
840,831.4520371081649
841,831.603811054445
842,831.7439231799774
843,831.8696567865823
844,831.9780649583284
845,832.0664171145138
846,832.1327026954971
847,832.176130839076
848,832.1975406206336
849,832.1996135107784
850,832.1867945587683
851,832.1648936476776
852,832.1404239471043
853,832.1198024749189
854,832.1085669210372
855,832.1107506559605
856,832.1285114473092
857,832.1620441225672
858,832.2097421528754
859,832.2685265638294
860,832.3342477540867
861,832.4020893401025
862,832.4669484392443
863,832.5238074071106
864,832.5681201704372
865,832.5962042432301
866,832.6055879010286
867,832.5952524874516
868,832.5657347531815
869,832.5190829105753
870,832.4586785606747
871,832.3889512178724
872,832.3150184827466
873,832.2422736599993
874,832.1759279190871
875,832.120524102771
876,832.0794777315461
877,832.0547342728719
878,832.0466206816191
879,832.0539100160589
880,832.0740520054237
881,832.1034970307439
882,832.1380628498417
883,832.1733265910442
884,832.2050312989782
885,832.2294757168318
886,832.2438391339002
887,832.2464020456829
888,832.236646943455
889,832.2152387582594
890,832.1838872356177
891,832.1450990009951
892,832.1018474731198
893,832.0572156645455
894,832.0140753818658
895,831.9748432917934
896,831.941319096738
897,831.9145935852644
898,831.8950203260893
899,831.8822576688732
900,831.8753935804441
901,831.8731638164794
902,831.8742681809758
903,831.8777777776091
904,831.8835993345784
905,831.8929209282423
906,831.9085253003399
907,831.934847514458
908,831.9776881458637
909,832.0435708987515
910,832.1388321797216
911,832.2686070177599
912,832.4358966524348
913,832.6408717788341
914,832.880509834481
915,833.1486047584722
916,833.4361318353957
917,833.7319113751167
