frame_number,force
0,699.8658743460921
1,699.9392704999582
2,700.0118559387552
3,700.0833261950414
4,700.1534441293805
5,700.2220496713993
6,700.2890654432617
7,700.3544980981555
8,700.4184355437343
9,700.4810404382597
10,700.5425404273958
11,700.603215607616
12,700.6633837405241
13,700.7233838361078
14,700.7835588630558
15,700.8442384944502
16,700.9057229028723
17,700.9682686237879
18,701.0320773809541
19,701.0972885225814
20,701.1639753882064
21,701.2321455619718
22,701.3017446197229
23,701.3726627018913
24,701.444743101607
25,701.5177920665205
26,701.5915891118945
27,701.6658972357952
28,701.740472476261
29,701.8150722963971
30,701.8894623785801
31,701.9634215668277
32,702.0367449121717
33,702.1092450269971
34,702.1807521684293
35,702.2511135514258
36,702.3201922929053
37,702.387866166271
38,702.4540261619135
39,702.5185748570672
40,702.581424772278
41,702.6424970339405
42,702.7017206262776
43,702.7590323436847
44,702.8143773711607
45,702.8677103018156
46,702.9189963644457
47,702.9682126625946
48,703.015349263491
49,703.0604099733735
50,703.1034126050312
51,703.144388531192
52,703.1833813593722
53,703.2204446581193
54,703.2556387864415
55,703.2890270235264
56,703.3206713807674
57,703.350628676261
58,703.3789475748564
59,703.4056672602231
60,703.4308181879492
61,703.4544250149295
62,703.4765114056737
63,703.4971060967015
64,703.5162494288578
65,703.5339995208025
66,703.5504372915946
67,703.5656696098765
68,703.5798299776387
69,703.5930763891295
70,703.6055863166983
71,703.6175490823617
72,703.6291561220662
73,703.6405898298156
74,703.652011762238
75,703.663550978531
76,703.6752932238346
77,703.6872715808405
78,703.6994591240067
79,703.7117640239426
80,703.724027488869
81,703.7360248640882
82,703.7474700503094
83,703.758023126721
84,703.7673008003579
85,703.7748891880857
86,703.780358439723
87,703.7832786676512
88,703.7832364734188
89,703.7798511475128
90,703.7727895371202
91,703.7617787171541
92,703.7466159063845
93,703.7271754127773
94,703.7034126503929
95,703.6753653790587
96,703.6431522934322
97,703.6069690120876
98,703.5670814764361
99,703.5238168219142
100,703.4775519638235
101,703.4287004352276
102,703.3776983287362
103,703.324990361327
104,703.2710169731494
105,703.2162030433957
106,703.1609484800456
107,703.1056207798161
108,703.0505496354638
109,702.9960236855758
110,702.9422894891841
111,702.8895527092393
112,702.837981261815
113,702.7877098926205
114,702.738845445825
115,702.6914720954713
116,702.6456559544856
117,702.6014486467143
118,702.5588895679059
119,702.5180066425864
120,702.4788154009145
121,702.4413162348122
122,702.4054898594891
123,702.371291306709
124,702.3386430790121
125,702.3074282722027
126,702.2774845097049
127,702.2485994747548
128,702.2205087076026
129,702.1928961869829
130,702.1653980880948
131,702.1376100154513
132,702.1090978861419
133,702.0794123864297
134,702.0481064869786
135,702.0147549707779
136,701.9789745303694
137,701.9404429035891
138,701.8989157139116
139,701.8542400034393
140,701.8063637585408
141,701.7553409867854
142,701.7013321298049
143,701.6445998194794
144,701.5855002236015
145,701.5244705025103
146,701.4620132092913
147,701.3986787472271
148,701.3350471231711
149,701.2717101037474
150,701.2092545433233
151,701.1482473141485
152,701.0892220961537
153,701.0326682433896
154,700.9790218840822
155,700.9286592288321
156,700.8818917693917
157,700.838962778457
158,700.8000444558388
159,700.7652352900706
160,700.7345575954656
161,700.7079555346018
162,700.6852941196994
163,700.6663596910427
164,700.6508622514922
165,700.63843988673
166,700.6286653888934
167,700.6210550936605
168,700.6150797653229
169,700.6101771467838
170,700.6057656394515
171,700.6012585405871
172,700.5960782899439
173,700.5896701919189
174,700.5815150719238
175,700.5711403474364
176,700.5581291073532
177,700.5421270093598
178,700.5228470558961
179,700.5000724894672
180,700.473658107147
181,700.4435302733234
182,700.4096858877264
183,700.3721905985323
184,700.3311766412
185,700.2868407608646
186,700.2394426170039
187,700.1893038024662
188,700.1368072005935
189,700.0823960180228
190,700.0265716041157
191,699.9698891431233
192,699.9129504749262
193,699.8563936576874
194,699.8008793815039
195,699.7470748475874
196,699.6956361109013
197,699.6471900868554
198,699.6023174309006
199,699.561537306444
200,699.52529468897
201,699.4939504161758
202,699.4677738466595
203,699.4469378471963
204,699.4315158581418
205,699.4214808641531
206,699.4167061581064
207,699.4169678604355
208,699.4219492709133
209,699.4312472297454
210,699.444380655288
211,699.4608012707848
212,699.4799062854044
213,699.5010525527581
214,699.5235715702684
215,699.5467846184378
216,699.5700173474453
217,699.5926132061461
218,699.6139452904326
219,699.6334264188868
220,699.6505174435459
221,699.6647339390912
222,699.6756515150249
223,699.6829100965782
224,699.6862175891705
225,699.6853532880167
226,699.6801711714462
227,699.670602878895
228,699.6566598332339
229,699.6384337459727
230,699.6160947588049
231,699.5898867495395
232,699.5601197293457
233,699.5271595740612
234,699.491415463089
235,699.4533254330972
236,699.4133405717218
237,699.3719086697124
238,699.3294585221762
239,699.2863863022002
240,699.2430453368792
241,699.1997401615143
242,699.1567250483067
243,699.1142065458746
244,699.0723491516286
245,699.0312831359513
246,698.9911136274045
247,698.9519301794198
248,698.913816070833
249,698.8768565481603
250,698.8411451811626
251,698.8067875892295
252,698.7739020718101
253,698.7426171073798
254,698.7130661472137
255,698.6853804817127
256,698.6596811158953
257,698.6360705474053
258,698.6146251506951
259,698.5953886454723
260,698.5783669663541
261,698.563524772252
262,698.5507837948333
263,698.5400231822202
264,698.5310819226771
265,698.5237633299163
266,698.5178414528008
267,698.5130691425484
268,698.5091873547026
269,698.5059351002446
270,698.5030593685509
271,698.5003243758649
272,698.4975195962676
273,698.4944661358238
274,698.4910211290487
275,698.487080016348
276,698.4825767663601
277,698.4774822499112
278,698.4718010294266
279,698.4655668614262
280,698.4588372704054
281,698.4516876149061
282,698.4442050879424
283,698.4364830841355
284,698.4286163529846
285,698.4206973207798
286,698.4128138521224
287,698.4050485169006
288,698.3974791677641
289,698.3901804088183
290,698.3832254514089
291,698.3766879313068
292,698.3706434191772
293,698.3651704881664
294,698.3603512632563
295,698.356271372838
296,698.3530191919622
297,698.3506842613456
298,698.3493547888983
299,698.3491141287845
300,698.3500360700549
301,698.3521787520453
302,698.3555771645276
303,698.3602344748766
304,698.3661127593967
305,698.373124035164
306,698.3811227456952
307,698.3899009557714
308,698.3991873591217
309,698.4086507952181
310,698.4179084097684
311,698.4265380159836
312,698.4340937585202
313,698.440123955696
314,698.4441900170223
315,698.4458855204704
316,698.4448547567608
317,698.44081018563
318,698.4335482287919
319,698.4229626656015
320,698.4090547398534
321,698.3919391104305
322,698.3718450548176
323,698.3491127794449
324,698.3241851492327
325,698.2975954715748
326,698.2699520883438
327,698.241920510615
328,698.2142038052204
329,698.1875219722175
330,698.1625911140787
331,698.1401032422276
332,698.1207075510117
333,698.1049938811065
334,698.0934788769785
335,698.0865950298349
336,698.0846824729197
337,698.0879832010118
338,698.0966373982584
339,698.1106817161437
340,698.1300495229015
341,698.154573271853
342,698.183989180249
343,698.2179443327989
344,698.2560061047658
345,698.297673514533
346,698.3423899032417
347,698.3895562866605
348,698.4385448420821
349,698.4887122495479
350,698.5394129105141
351,698.5900122669582
352,698.6399004388771
353,698.6885062221336
354,698.7353112555346
355,698.779863972868
356,698.8217928342393
357,698.8608182532332
358,698.8967625788468
359,698.9295574907057
360,698.9592482756382
361,698.9859946588246
362,699.0100680788132
363,699.0318454457135
364,699.0517994998896
365,699.0704859548695
366,699.0885277368703
367,699.1065968467482
368,699.1253946113625
369,699.1456312542119
370,699.1680056987458
371,699.1931863004787
372,699.221792904967
373,699.2543804285013
374,699.2914241181933
375,699.3333066857921
376,699.3803075654183
377,699.4325946427762
378,699.4902189169765
379,699.5531125582695
380,699.6210906288725
381,699.6938564114959
382,699.7710099960198
383,699.852059594123
384,699.936434959288
385,700.0235022331394
386,700.1125795124033
387,700.202952461747
388,700.2938894066168
389,700.3846555172621
390,700.4745258804099
391,700.5627973619471
392,700.6487991807917
393,700.7319021390249
394,700.811526571388
395,700.8871492559994
396,700.9583096663499
397,701.0246159631268
398,701.0857510014189
399,701.1414784010042
400,701.1916484649779
401,701.2362035057376
402,701.275182011905
403,701.3087211036318
404,701.3370568434945
405,701.3605221160035
406,701.3795419239359
407,701.3946260799996
408,701.4063593787996
409,701.4153894045953
410,701.4224122131461
411,701.4281562570835
412,701.4333650658597
413,701.4387792984198
414,701.4451188524614
415,701.4530657180461
416,701.4632481564516
417,701.4762265702115
418,701.4924812086502
419,701.5124017318501
420,701.5362786325653
421,701.5642965200045
422,701.5965292875599
423,701.6329372622624
424,701.6733665630941
425,701.7175509942371
426,701.7651167878695
427,701.815590383651
428,701.8684092312564
429,701.9229353711162
430,701.9784713335703
431,702.0342777494815
432,702.0895920065841
433,702.1436472956138
434,702.1956914369596
435,702.2450049232847
436,702.2909176098497
437,702.3328234310745
438,702.3701925036801
439,702.4025801005592
440,702.4296322711059
441,702.451088250523
442,702.4667800853043
443,702.4766300044308
444,702.4806460347581
445,702.4789163248939
446,702.4716026526585
447,702.4589335668654
448,702.4411974673527
449,702.4187356831106
450,702.3919353888095
451,702.3612221177724
452,702.3270517078399
453,702.2899016952346
454,702.2502623650306
455,702.2086278011258
456,702.1654873138052
457,702.1213175858348
458,702.0765758273186
459,702.031694172185
460,701.9870754471453
461,701.9430902962447
462,701.9000755043461
463,701.8583332846451
464,701.8181313004105
465,701.779703269613
466,701.7432500951383
467,701.708941482114
468,701.6769179058307
469,701.6472926411307
470,701.6201534795986
471,701.5955638297495
472,701.57356309939
473,701.5541664946238
474,701.5373645268625
475,701.5231225447241
476,701.5113805094774
477,701.5020530598651
478,701.4950297477424
479,701.4901752572163
480,701.4873294718165
481,701.486307363988
482,701.4868987697439
483,701.488868157729
484,701.4919545213189
485,701.4958715181629
486,701.5003079599138
487,701.5049287396778
488,701.5093762891775
489,701.5132726756107
490,701.5162224733898
491,701.5178165605316
492,701.5176369504317
493,701.5152626484999
494,701.5102763452857
495,701.5022715891266
496,701.4908599972933
497,701.4756781208362
498,701.4563937629957
499,701.4327117570193
500,701.4043793048685
501,701.3711909415442
502,701.3329931351179
503,701.2896885601936
504,701.2412401384098
505,701.1876748815764
506,701.1290873590333
507,701.0656423704221
508,700.9975763051959
509,700.9251967387406
510,700.8488799463943
511,700.7690661426109
512,700.6862524251075
513,700.600983675855
514,700.5138419697317
515,700.4254352293796
516,700.3363858798012
517,700.2473201420024
518,700.1588584452159
519,700.0716073065819
520,699.9861529321777
521,699.9030566337659
522,699.8228518412963
523,699.746042109394
524,699.6730992888245
525,699.604461105133
526,699.540527699888
527,699.4816570554497
528,699.4281594914462
529,699.3802915900931
530,699.3382500515962
531,699.3021661040067
532,699.2721011210838
533,699.2480439714966
534,699.2299103357752
535,699.2175438876322
536,699.210719000321
537,699.2091445861753
538,699.2124687730299
539,699.220284293867
540,699.23213464208
541,699.2475211476024
542,699.2659111437359
543,699.2867473868694
544,699.3094588969341
545,699.3334733401304
546,699.3582309027997
547,699.3831993217594
548,699.4078894242442
549,699.4318702733456
550,699.4547828756735
551,699.4763514345775
552,699.4963913315967
553,699.5148133102699
554,699.5316235922226
555,699.5469198200251
556,699.5608828330257
557,699.5737643977762
558,699.5858711930321
559,699.597545638373
560,699.6091445034787
561,699.6210165136678
562,699.6334803262387
563,699.646804321489
564,699.6611895964973
565,699.6767572829231
566,699.6935408586684
567,699.7114836443224
568,699.7304413012846
569,699.7501888861693
570,699.7704318097672
571,699.7908198869245
572,699.810963576616
573,699.8304514954167
574,699.8488683125429
575,699.8658122180433
576,699.8809113247986
577,699.8938385482027
578,699.9043245875872
579,699.9121686199323
580,699.9172463427052
581,699.9195151382075
582,699.919016299884
583,699.9158743588989
584,699.910293571355
585,699.9025516496848
586,699.8929909143956
587,699.8820072003012
588,699.870037010582
589,699.8575435229301
590,699.8450021073811
591,699.8328859959744
592,699.8216526262474
593,699.811731023003
594,699.8035105063987
595,699.7973310545004
596,699.7934757017371
597,699.7921653025347
598,699.7935558272904
599,699.7977381644366
600,699.8047402196665
601,699.8145309252202
602,699.8270256370463
603,699.8420923886277
604,699.8595585962519
605,699.8792179796698
606,699.9008375896943
607,699.9241648921254
608,699.9489348348077
609,699.9748767299568
610,700.0017206633026
611,700.0292030477309
612,700.0570709094429
613,700.0850845775333
614,700.1130186939655
615,700.1406618307516
616,700.1678153275462
617,700.1942920891581
618,700.2199159981836
619,700.2445223914478
620,700.2679598099187
621,700.2900930217633
622,700.3108071513441
623,700.3300126101055
624,700.3476504503927
625,700.3636978052265
626,700.3781731958597
627,700.3911415415464
628,700.4027185982662
629,700.4130743559557
630,700.4224348031427
631,700.4310815187971
632,700.4393487368071
633,700.4476177766261
634,700.4563090215883
635,700.4658719218355
636,700.4767736865001
637,700.4894872934718
638,700.5044792130291
639,700.522196988353
640,700.5430567102409
641,700.5674305013378
642,700.5956342937161
643,700.6279163091706
644,700.6644466673762
645,700.7053084848941
646,700.7504907326127
647,700.7998830021281
648,700.8532722431906
649,700.910341557086
650,700.9706712503836
651,701.033742454944
652,701.098943635424
653,701.1655802501957
654,701.2328877016895
655,701.3000474671248
656,701.3662059516233
657,701.4304952480545
658,701.4920547492173
659,701.5500525303542
660,701.6037056015373
661,701.6522984004538
662,701.6951990934059
663,701.7318733139393
664,701.7618949797039
665,701.7849538958615
666,701.800859977686
667,701.8095440355701
668,701.8110551445444
669,701.805554723738
670,701.7933076284443
671,701.7746708118067
672,701.750080401204
673,701.7200382349248
674,701.6850988557696
675,701.6458576215607
676,701.6029401347132
677,701.5569928393749
678,701.5086744891696
679,701.4586482119846
680,701.407573986383
681,701.3561014098985
682,701.304862670558
683,701.2544656822644
684,701.2054874434616
685,701.1584677790453
686,701.1139036535941
687,701.0722441835242
688,701.0338863745418
689,700.9991715315163
690,700.9683822680722
691,700.9417400715495
692,700.9194034034795
693,700.9014662949302
694,700.8879573534174
695,700.878839121986
696,700.8740078871455
697,700.8732942542558
698,700.8764649219456
699,700.883225980526
700,700.8932278117798
701,700.9060714593087
702,700.9213162582328
703,700.938488515009
704,700.9570910404495
705,700.9766133117404
706,700.9965419488426
707,701.0163710764402
708,701.0356120767489
709,701.0538022491986
710,701.0705119699564
711,701.085350082721
712,701.0979674497054
713,701.1080588060813
714,701.1153631914682
715,701.1196632086965
716,701.120783264574
717,701.1185869403647
718,701.1129737598702
719,701.1038757638005
720,701.0912543684329
721,701.0750979681372
722,701.055420615616
723,701.0322618573822
724,701.0056874917699
725,700.9757908310693
726,700.9426941038848
727,700.9065498368666
728,700.8675421757472
729,700.8258880073826
730,700.7818375178248
731,700.7356736800069
732,700.6877102636793
733,700.6382882964753
734,700.5877713059664
735,700.5365399127767
736,700.4849863379269
737,700.4335092214287
738,700.3825089391487
739,700.3323834063315
740,700.2835241943485
741,700.236312687156
742,700.1911159942799
743,700.1482824359543
744,700.1081365952338
745,700.070974111474
746,700.0370564865619
747,700.0066061658805
748,699.9798020914133
749,699.9567758870975
750,699.9376088810437
751,699.9223302641459
752,699.9109167052826
753,699.9032936034362
754,699.8993379404302
755,699.8988825643966
756,699.9017217279553
757,699.9076177322248
758,699.9163084740221
759,699.9275155334574
760,699.9409522682244
761,699.9563313348749
762,699.9733711738542
763,699.9918011913436
764,700.0113655671666
765,700.0318258117152
766,700.0529623843913
767,700.0745758043771
768,700.0964876719896
769,700.1185418974666
770,700.1406062583918
771,700.1625742170078
772,700.1843667831679
773,700.2059341580334
774,700.2272568971647
775,700.2483463212632
776,700.2692439171402
777,700.2900196074384
778,700.3107690334967
779,700.3316102905617
780,700.3526807453575
781,700.3741345630514
782,700.3961413658864
783,700.4188860901032
784,700.4425696836006
785,700.4674099135691
786,700.4936413439901
787,700.5215135312837
788,700.5512866439184
789,700.5832240154386
790,700.617581576344
791,700.6545946161812
792,700.6944627741967
793,700.7373344298297
794,700.7832917454957
795,700.832337555215
796,700.8843851344419
797,700.9392516381296
798,700.9966556663135
799,701.0562190579989
800,701.117472721863
801,701.1798661790709
802,701.2427805062887
803,701.3055443796686
804,701.3674527842015
805,701.4277876755104
806,701.485839620627
807,701.5409293372461
808,701.5924280957408
809,701.6397760704763
810,701.682497885876
811,701.7202147850035
812,701.7526530329493
813,701.7796483462098
814,701.8011463101091
815,701.8171988772875
816,701.8279571313491
817,701.8336606501724
818,701.8346240989165
819,701.8312220335868
820,701.8238730787984
821,701.8130245118049
822,701.7991379168776
823,701.7826762085813
824,701.7640921465568
825,701.7438184712776
826,701.7222598410746
827,701.6997867320815
828,701.6767313508758
829,701.6533854278009
830,701.6299995607495
831,701.6067836578954
832,701.5839080512177
833,701.5615049997162
834,701.5396704995002
835,701.5184664809832
836,701.4979235075605
837,701.4780439608422
838,701.4588054860498
839,701.4401643074817
840,701.4220579909282
841,701.4044073574267
842,701.387117527806
843,701.3700784085077
844,701.3531651706203
845,701.3362393363079
846,701.319150988843
847,701.3017424466244
848,701.2838535704102
849,701.2653287344872
850,701.2460253480406
851,701.2258236271257
852,701.204637118121
853,701.1824233115458
854,701.159193579091
855,701.1350216224793
856,701.110049655496
857,701.0844916383269
858,701.0586330021013
859,701.0328264187747
860,701.0074833069824
861,700.9830609580303
862,700.9600454616966
863,700.9389310301054
864,700.9201967922324
865,700.9042824841312
866,700.8915645415163
867,700.882333962408
868,700.8767771295996
869,700.8749606526956
870,700.8768211517827
871,700.8821606969042
872,700.8906483398187
873,700.9018278497231
874,700.9151314066147
875,700.9298986228148
876,700.9453998631358
877,700.9608624496742
878,700.9754980464164
879,700.9885294158632
880,700.9992148860496
881,701.0068692714311
882,701.0108805879906
883,701.0107225197544
884,701.0059630342981
885,700.9962697447221
886,700.9814126531872
887,700.9612648487455
888,700.9358015497351
889,700.9050975881283
890,700.8693231538952
891,700.8287375106796
892,700.7836805129116
893,700.734562009204
894,700.6818494713704
895,700.6260543606751
896,700.5677178030916
897,700.5073960729077
898,700.4456461946023
899,700.383011771531
900,700.3200090870588
901,700.2571136666742
902,700.1947477561155
903,700.1332694000015
904,700.0729638724218
905,700.0140380721801
906,699.9566181890517
907,699.9007505830693
908,699.846405527486
909,699.7934833204496
910,699.7418222523212
911,699.6912079555799
912,699.6413837048984
913,699.5920612657194
914,699.542931932915
915,699.4936774641176
916,699.4439806600165
917,699.393535328774
