acceleration,velocity,displacement
-0.0120739791993734,0.0,0.0
-0.011046453623186835,-5.780108205640059e-06,-1.4450270514100148e-09
-0.010030277830668557,-1.1049291069103907e-05,-5.6523768700960065e-09
-0.009029714280638737,-1.581428909693073e-05,-1.2368271911604667e-08
-0.008048082858720959,-2.0083738381770654e-05,-2.1342778781280013e-08
-0.007087624505261766,-2.3867665222766334e-05,-3.2330629682414256e-08
-0.006149422488270389,-2.7176926971149375e-05,-4.5091777730893185e-08
-0.005233383664984215,-3.0022628509463026e-05,-5.939166660104629e-08
-0.004338277352900026,-3.241554376393409e-05,-7.500120966939557e-08
-0.003461826381957798,-3.436556969764855e-05,-9.169648803479123e-08
-0.002600843776685544,-3.5881237237309385e-05,-1.0925818976853071e-07
-0.001751408264986119,-3.69693002477273e-05,-1.2747082413978988e-07
-0.0009090712734963896,-3.7634420132347924e-05,-1.461217542348087e-07
-6.908675743496448e-05,-3.7878959640080764e-05,-1.6500009917791588e-07
0.0007733467486800838,-3.7702894642269486e-05,-1.8389556274850345e-07
0.0016228445755714217,-3.710384681120661e-05,-2.0259724811187248e-07
0.0024836090552155274,-3.607723340350988e-05,-2.208925181655516e-07
0.003359231612211361,-3.461652323665316e-05,-2.3856595732559237e-07
0.004252536322599447,-3.271358125295046e-05,-2.5539848344799326e-07
0.005165474022259529,-3.0359078666735715e-05,-2.7116664842791483e-07
0.006099071444141723,-2.7542942300135403e-05,-2.8564215366963263e-07
0.0070534347641179815,-2.4254815748070478e-05,-2.985915931816841e-07
0.008027802059278747,-2.0484506542221297e-05,-3.0977642375425706e-07
0.00902063532647076,-1.622239719578392e-05,-3.1895314968875835e-07
0.010029740713447614,-1.1459803185804327e-05,-3.2587369978415543e-07
0.01105240574164063,-6.189266572032266e-06,-3.302859672236146e-07
0.012085543686540138,-4.0477921498707387e-07,-3.3193447867036943e-07
0.013125836587525723,5.898065853529391e-06,-3.3056115701073384e-07
0.014169869045529535,1.2721992261793206e-05,-3.259061424819032e-07
0.015214245612028717,2.006802092618277e-05,-3.1770863918490924e-07
0.016255685905986344,2.7935503805686534e-05,-3.057077580019419e-07
0.01729109380565804,3.632219873359763e-05,-2.8964333236712087e-07
0.01831760008294871,4.522437220574932e-05,-2.692566896322841e-07
0.019332581363787054,5.463691756743326e-05,-2.4429136718898846e-07
0.02033366129551889,6.455347823225975e-05,-2.1449376823906522e-07
0.02131870093038405,7.496656878873549e-05,-1.796137564838164e-07
0.022285783943624016,8.58676900072375e-05,-1.3940519178482317e-07
0.023233199197150816,9.724743579243121e-05,-9.362641033490599e-08
0.02415942058699502,0.00010909559073846766,-4.204065370218127e-08
0.025063084221753573,0.00012140121694065481,1.5583548217599353e-08
0.025942965413595195,0.000134152729349492,7.947203479013607e-08
0.02679795995415808,0.0001473379606914303,1.4984470730036664e-07
0.027627073642474045,0.00016094421909058833,2.269152522458713e-07
0.02842942161779727,0.00017495834290565617,3.108908927449324e-07
0.02920423648548343,0.00018936675743147635,4.019721678292155e-07
0.02995088256180043,0.0002041555371932973,5.00352741485409e-07
0.030668873059647186,0.0002193104760986592,6.062192448083981e-07
0.031357887435054126,0.00023481716622233452,7.197511553886466e-07
0.03201778663200521,0.00025066108473909937,8.411207181290051e-07
0.032648623936775624,0.0002668276873812946,9.704929111591036e-07
0.03325064872341876,0.0002833025055463432,1.108025459391013e-06
0.03382430020132938,0.00030007124277753024,1.2538688964719814e-06
0.034370188863508164,0.00031711986504373964,1.408166673427299e-06
0.03488906465460141,0.00033443467842326704,1.5710553092940505e-06
0.03538177258380301,0.00035200238773286813,1.7426645758330842e-06
0.03584919854199551,0.00036981013051431776,1.923117705394881e-06
0.03629221067130242,0.00038784548281764226,2.1125316087278706e-06
0.03671160440914294,0.0004060964365877536,2.3110170885792195e-06
0.0371080610497642,0.00042455135295248035,2.518679035964278e-06
0.03748212915355197,0.0004431989005033094,2.7356165993282256e-06
0.037834235090199335,0.0004620279915642472,2.9619233223451148e-06
0.03816472404932319,0.0004810277313491278,3.1976872530734586e-06
0.038473927327423524,0.0005001873941933145,3.442991034459069e-06
0.038762247227718684,0.0005194964378321,3.6979119924654227e-06
0.03903024851072804,0.0005389445617667117,3.962522242365125e-06
0.0392787448213943,0.0005585218100997423,4.236888835331738e-06
0.03950886900385755,0.0005782187135560552,4.521073966245687e-06
0.03972211718914931,0.000598026460104307,4.815135259660778e-06
0.03992035836770514,0.0006179370789935205,5.119126144435235e-06
0.04010580441470468,0.000637943619689123,5.433096319105896e-06
0.04028093989328483,0.0006580403057661204,5.757092300469707e-06
0.040448415258594675,0.0006782226445540902,6.09115803804976e-06
0.040610910560213966,0.0006984874760087924,6.43533556819048e-06
0.04077097926305825,0.0007188329484646104,6.789665674308831e-06
0.04093088311462701,0.0007392584140590318,7.154188514939741e-06
0.04109242890750183,0.0007597642420645639,7.5289441789706405e-06
0.0412568170496015,0.0007803515535538398,7.913973127875241e-06
0.04142451068933507,0.0008010218854885739,8.309316487635845e-06
0.041595132876663804,0.0008217767963800736,8.715016158103007e-06
0.041767398025865134,0.0008426174291057059,9.131114714474452e-06
0.04193908309655042,0.0008635440493863098,9.557655084097456e-06
0.04210704298593921,0.0008845555809069321,9.994679991670767e-06
0.04226727238417097,0.0009056491597494597,1.0442231176834865e-05
0.04241501249518785,0.0009268197309692994,1.0900348399514554e-05
0.042544897324941225,0.0009480597084243316,1.1369068259362962e-05
0.042651132625588305,0.000969358715911964,1.1848422865447037e-05
0.04272770061510769,0.000990703424222138,1.2338438400480563e-05
0.042768582987363024,0.0010120774951227556,1.2839133630316787e-05
0.042767992279939646,0.0010334616389395812,1.3350518413832371e-05
0.042720598666392405,0.0010548337866761641,1.3872592270236307e-05
0.042621738100745925,0.0010761693708679486,1.4405343059622336e-05
0.04246758970830383,0.001097441702820211,1.4948745828044376e-05
0.04225531460869669,0.0011186224288994612,1.5502761860974293e-05
0.04198315314869048,0.001139682045838808,1.606733797965886e-05
0.041650481137628405,0.0011605904544103878,1.664240610472116e-05
0.04125782720250852,0.001181317531495422,1.7227883101197613e-05
0.04080685303525825,0.0012018337015548637,1.7823670909460185e-05
0.040300297241070336,0.0012221104891239458,1.8429656957129887e-05
0.03974188292514111,0.0012421210341654987,1.9045714837952247e-05
0.039136189891862724,0.0012618405523697495,1.967170523458606e-05
0.038488494849781986,0.0012812467235551607,2.0307477053567287e-05
0.03780458714584754,0.001300319994054068,2.0952868732969593e-05
0.03709057195432998,0.0013190437838291125,2.1607709677440388e-05
0.03635267518823202,0.001337404595614753,2.2271821772301355e-05
0.03559706288616017,0.001355392030133351,2.2945020928738382e-05
0.034829683237684594,0.0013729987166643124,2.3627118615437797e-05
0.03405613484239844,0.0013902201711843332,2.4317923337399958e-05
0.03328156255130681,0.0014070545955327594,2.501724202907923e-05
0.03251058197056393,0.001423502631663227,2.5724881335878226e-05
0.03174723395946744,0.001439567085645735,2.644064876520547e-05
0.030994970275336573,0.001455252636704436,2.716435369579301e-05
0.03025667014181888,0.0014705655468087247,2.78958082416713e-05
0.029534684336865957,0.001485513385428396,2.863482797473058e-05
0.028830899262629068,0.0015001047813282698,2.9381232516419745e-05
0.028146810707522646,0.0015143492088208078,3.0134846013957013e-05
0.027483597084546934,0.001528256810768825,3.0895497518854424e-05
0.026842183956129875,0.0015418382560289942,3.166302128555388e-05
0.026223294041648824,0.001555104625528439,3.2437257005943235e-05
0.02562747887053829,0.0015680673187564859,3.321804999201447e-05
0.025055129378332656,0.0015807379708187037,3.4005251314408266e-05
0.024506462982898644,0.0015931283689090115,3.4798717899340196e-05
0.023981485171035377,0.001605250355947495,3.559831258055432e-05
0.023479925961082938,0.0016171157087305245,3.640390409672383e-05
0.02300115581034482,0.0016287359791733813,3.72153670186998e-05
0.02254408977610748,0.0016401222905699944,3.8032581586135646e-05
0.0221070912324122,0.0016512850858221243,3.885543343023367e-05
0.021687886952717197,0.0016622338303684066,3.96838131592813e-05
0.021283504561857004,0.0016729766782470502,4.051761578643517e-05
0.02089024169748028,0.0016835201148118846,4.13567399846999e-05
0.020503674150474428,0.0016938685937738732,4.220108716184634e-05
0.020118708475629316,0.0017040241894303993,4.305056035764741e-05
0.01972968324950878,0.0017139862873616837,4.390506297684543e-05
0.019330521433067384,0.0017237513385323278,4.476449738331893e-05
0.018914932759963237,0.0017333127020805854,4.562876339347216e-05
0.01847665894482208,0.0017426606000067817,4.6497756718994004e-05
0.018009747068712577,0.0017517822015101654,4.737136741937324e-05
0.017508830934687778,0.0017606618460110155,4.824947843125353e-05
0.016969398962800662,0.0017692814034853876,4.913196424362763e-05
0.016388029950213958,0.0017776207607136413,5.001868978467739e-05
0.01576258252924383,0.0017856584138335057,5.090950957831418e-05
0.015092328523635571,0.0017933721415967256,5.180426721717174e-05
0.014378024024216644,0.0018007397297336886,5.270279518500434e-05
0.013621915168848028,0.0018077397145319547,5.360491504607075e-05
0.01282767873021919,0.0018143521130067216,5.451043800295542e-05
0.012000300957568096,0.0018205591079286684,5.5419165808189274e-05
0.011145901973077393,0.0018263456586613297,5.633089199983677e-05
0.010271517379041603,0.0018317000134993595,5.724540341787694e-05
0.009384852667104045,0.001836614106010896,5.816248194775451e-05
0.008494027770595285,0.0018410838261203207,5.9081906430787314e-05
0.007607327256341814,0.0018451091648770549,6.000345467853666e-05
0.0067329669209485994,0.0018486942384213774,6.0926905529361265e-05
0.005878882816981636,0.00185184720085586,6.185204088918057e-05
0.0050525463138398966,0.0018545800581385653,6.277864770392917e-05
0.004260808231037507,0.0018569083967747847,6.370651981765751e-05
0.003509774241459643,0.001858851042392909,6.463545967744943e-05
0.002804711188039143,0.0018604296637502837,6.556527985398523e-05
0.0021499798679760554,0.0018616683365142875,6.649580435405137e-05
0.0015489860308088351,0.0018625930779889836,6.742686970767719e-05
0.001004140425609029,0.001863231359603088,6.835832581707521e-05
0.0005168218642321412,0.0018636116001755484,6.929003655701987e-05
8.734274080892467e-05,0.0018637626413268086,7.022188011739546e-05
-0.00028507865291672207,0.0018637132073487817,7.115374907956436e-05
-0.0006023321080125809,0.0018634913546585494,7.208555022006619e-05
-0.000867408800597643,0.0018631239194313969,7.301720403858867e-05
-0.0010843686093170344,0.0018626359750789183,7.394864401221625e-05
-0.0012582782331532223,0.0018620503133683008,7.487981558432806e-05
-0.0013951184624083595,0.0018613869641944103,7.581067490371873e-05
-0.0015016604619850838,0.001860662769463312,7.674118733713317e-05
-0.0015853133834205823,0.0018598910260019606,7.767132578599949e-05
-0.0016539486684297657,0.001859081210488998,7.860106884512223e-05
-0.0017157085342360667,0.0018582387961883315,7.953039884679156e-05
-0.001778806654691771,0.0018573651673910996,8.045929983768643e-05
-0.00185132871131979,0.0018564576335495966,8.13877555379216e-05
-0.0019410402870431913,0.0018555095413000059,8.2315747331634e-05
-0.0020552096805390675,0.0018545104788081103,8.324325233666102e-05
-0.0022004529146212636,0.0018534465631593203,8.417024159715288e-05
-0.0023826066278496163,0.0018523007982737026,8.509667843751113e-05
-0.0026066315132807815,0.00185105348873842,8.602251700926416e-05
-0.0028765454562883633,0.0018496826944960278,8.694770105507278e-05
-0.003195383001031626,0.001848164712381698,8.787216290679221e-05
-0.003565176947765591,0.0018464745723944986,8.879582272798626e-05
-0.003986958174413344,0.0018445865386139538,8.971858800573838e-05
-0.004460770083886759,0.0018424746065493788,9.06403532920292e-05
-0.00498569362012245,0.0018401129906233766,9.15610001913224e-05
-0.005559877523769335,0.0018374765978374037,9.248039758843759e-05
-0.00618056741810026,0.0018345414866019363,9.339840210954743e-05
-0.006844128143224384,0.001831285312711605,9.431485880937582e-05
-0.007546057489429754,0.0018276877663034416,9.522960207912959e-05
-0.00828099519727645,0.0018237310031317651,9.614245677148839e-05
-0.00904273649810764,0.001819400070207919,9.705323953982331e-05
-0.009824262641423687,0.001814683320423036,9.796176038748105e-05
-0.010617801203365354,0.001809572804461839,9.886782441870228e-05
-0.011414926594339705,0.0018040646225124127,9.977123377544584e-05
-0.012206706178957985,0.0017981592143190882,0.00010067178973465372
-0.012983890481095524,0.0017918615651540749,0.00010156929492952201
-0.013737138870853049,0.0017851813078160878,0.00010246355564776455
-0.014457266762679426,0.0017781327064077047,0.0001033543841513205
-0.01513549751660397,0.0017707345153378838,0.0001042416009567569
-0.01576370211911128,0.001763009715428955,0.00010512503701444862
-0.016334612428058125,0.0017549851367921628,0.0001060045357275039
-0.016841998911422032,0.0017466909839572928,0.00010687995475769126
-0.01728080994260716,0.0017381602817437855,0.00010775116757411654
-0.017647274576761605,0.0017294282606139433,0.00010861806470970597
-0.01793897272749747,0.0017205316987878784,0.00010948055469955643
-0.018154876250427388,0.0017115082365433973,0.00011033856468338925
-0.01829536335277744,0.0017023956766425961,0.00011119204066168576
-0.018362207898755367,0.0016932312838297129,0.00011204094740180384
-0.018358544139520774,0.001684051095820144,0.0001128852679967163
-0.01828880578946086,0.0016748892583378985,0.00011372500308525582
-0.018158636972661936,0.0016657773976473677,0.00011456016974925213
-0.017974772697258636,0.0016567440452298877,0.00011539080010997145
-0.01774488868411934,0.0016478141298845433,0.00011621693965375006
-0.01747742383588205,0.0016390085517545428,0.00011703864532415983
-0.017181382021667826,0.0016303438502901554,0.000117855983424671
-0.016866122090137634,0.001621831974262204,0.0001186690273808091
-0.016541145923963614,0.0016134801572586786,0.00011947785541368931
-0.01621589423157357,0.0016052908972197942,0.00012028254817730894
-0.015899558544919517,0.0015972620340256709,0.0001210831864101203
-0.015600915345743245,0.001589386915553005,0.00012187984864751496
-0.015328185009271994,0.0015816546404642513,0.0001226726090365193
-0.015088915455821073,0.001574050365347978,0.00012346153528797234
-0.014889888504038717,0.0015665556643580131,0.00012424668679539885
-0.014737045501906366,0.0015591489308565268,0.00012502811294420248
-0.014635427395234844,0.0015518058126322415,0.00012580585163007467
-0.014589123426258175,0.0015444996749268683,0.00012657992800196445
-0.014601223400088886,0.0015372020882202814,0.00012735035344275123
-0.014673771579175793,0.0015298833394754652,0.00012811712479967517
-0.014807724992248788,0.0015225129653326092,0.0001288802238758772
-0.015002923722319494,0.0015150603031539671,0.00012963961719299885
-0.01525808383396275,0.0015074950512648966,0.00013039525603160358
-0.015570823391173416,0.0014997878244586125,0.00013114707675053445
-0.01593772817300107,0.001491910686567569,0.000131895001378291
-0.016354458109991293,0.001483837639996821,0.00013263893845993208
-0.016815891042999343,0.0014755450527085734,0.00013337878413310843
-0.01731629857510337,0.0014670120053040477,0.00013411442339761158
-0.01784954831575946,0.001458220543581332,0.00013484573153483293
-0.01840932516453646,0.001449155825211258,0.00013557257562703108
-0.018989360176486142,0.0014398061538760023,0.0001362948161218029
-0.0195836503403272,0.001430162901246799,0.00013701230838558358
-0.020186649343916157,0.0014202203263257382,0.0001377249041924767
-0.020793410706987654,0.0014099753113130122,0.0001384324531018864
-0.021399671020706702,0.0013994270408810886,0.00013913480368993493
-0.022001870545549047,0.0013885766554895247,0.00013983180461402757
-0.022597117658768397,0.0013774269084384453,0.00014052330550500956
-0.023183109442735467,0.0013659818516630693,0.00014120915769503495
-0.02375802214861812,0.001354246568765231,0.00014188921480014202
-0.024320384006025677,0.00134222696722657,0.00014256333318413998
-0.02486894129202335,0.0013299296359020579,0.00014323137233492213
-0.025402528126259424,0.0013173617685474871,0.00014389319518603452
-0.02591995108140801,0.0013045311487455702,0.00014454866841535777
-0.02641990020704879,0.001291446185923456,0.00014519766274902502
-0.02690089686133947,0.0012781159866563589,0.00014584005329216997
-0.027361284885162828,0.0012645504412197332,0.000146475719899139
-0.027799265615881308,0.0012507603035944721,0.00014710454758534255
-0.0282129707730617,0.0012367572444972363,0.0001477264269723655
-0.028600562327898243,0.0012225538612219962,0.0001483412547487953
-0.028960346244060874,0.0012081636340790065,0.00014894893412262055
-0.029290887583270944,0.0011936008256221734,0.00014954937523754583
-0.029591117124609136,0.0011788803244452033,0.0001501424955250627
-0.029860422804426585,0.0011640174394629444,0.00015072821996603972
-0.030098721539746274,0.0011490276533769011,0.00015130648123924968
-0.03030650809589877,0.0011339263459679899,0.0001518772197390859
-0.030484878207597738,0.0011187284993921158,0.00015244038345042592
-0.030635523767247715,0.0011034483988984045,0.00015299592767499854
-0.03076069889400773,0.0010880993432330905,0.00015354381461053142
-0.03086315714075975,0.0010726933792243986,0.0001540840127911458
-0.030946061760071454,0.0010572410744991909,0.0001546164964045767
-0.03101287276560172,0.0010417513408677726,0.00015514124450841845
-0.031067216707113342,0.001026231318499594,0.0001556582401732603
-0.031112747357696303,0.0010106863274833915,0.00015616746958475606
-0.031153006795145242,0.0009951198889451812,0.0001566689211388632
-0.031191295925944437,0.0009795338132649089,0.00015716258456441572
-0.031230562053936563,0.0009639283487699386,0.00015764845010492445
-0.03127330964405648,0.0009483023808454403,0.0001581265077873283
-0.03132153877303811,0.0009326536687411667,0.00015859674679972495
-0.03137671324588517,0.0009169791057364358,0.00015905915499334435
-0.03143975748314854,0.0009012749880541774,0.000159513718516792
-0.03151107928509388,0.0008855372788621168,0.00015996042158352108
-0.031590614779045116,0.0008697618553460821,0.00016039924636707313
-0.031677891383189716,0.0008539447288055233,0.00016083017301311102
-0.031772103770717874,0.0008380822300170464,0.00016125317975281667
-0.03187219694317362,0.0008221711548385735,0.00016166824309903058
-0.03197695022280395,0.0008062088680470791,0.00016207533810475198
-0.032085056111096716,0.0007901933664636039,0.00016247443866337964
-0.032195188141629055,0.0007741233054004225,0.00016286551783134564
-0.03230605237225203,0.0007579979952719523,0.00016324854815651373
-0.03241641872318249,0.0007418173774980936,0.00016362350199970624
-0.03252513123913631,0.0007255819900075139,0.00016399035184158265
-0.032631100004843136,0.000709292932196519,0.00016434907057213366
-0.03273328058374549,0.0006929518370493719,0.00016469963176444512
-0.032830648037529775,0.0006765608548940531,0.000165042009937431
-0.03292217148604628,0.000660122650013159,0.00016537618081365779
-0.03300679296117276,0.0006436404089013543,0.0001657021215783864
-0.03308341246088865,0.000627117857545839,0.0001660198111449982
-0.03315088025847298,0.0006105592843659986,0.00016632923043047616
-0.03320799758045852,0.0005939695649062657,0.00016663036264279423
-0.03325352720091271,0.0005773541837109229,0.00016692319357994854
-0.03328621557490509,0.0005607192480169684,0.0001672077119378805
-0.033304827816425804,0.0005440714871691357,0.00016748390962167704
-0.03330819699054445,0.0005274182309673931,0.00016775178205121117
-0.03329529007124246,0.0005107673592019464,0.0001680113284487535
-0.03326529312411579,0.0004941272134031068,0.00016826255209190477
-0.033217716302170165,0.00047750646104653536,0.00016850546051051717
-0.03315251526304543,0.00046091390315523145,0.00016874006560156762
