frame_number,force
0,664.4170500000517
1,664.9639303476584
2,665.4869741200397
3,665.9642877257951
4,666.3776205984904
5,666.7136402791408
6,666.9646848234041
7,667.1289692490544
8,667.2102812877574
9,667.2172500658211
10,667.1623077741052
11,667.0604790991022
12,666.928121177709
13,666.7817089892714
14,666.6367375820136
15,666.5068025879025
16,666.4029123692102
17,666.3330623863067
18,666.3020707002086
19,666.3116549298419
20,666.360724061992
21,666.4458375078168
22,666.5617503800871
23,666.7019557945107
24,666.8591693072882
25,667.0257503830823
26,667.1940859442337
27,667.3569587113659
28,667.5078983931513
29,667.6414888079703
30,667.7535958792749
31,667.8414921857542
32,667.9038739483112
33,667.9407830008064
34,667.9534530105328
35,667.9441022503884
36,667.9156991850887
37,667.8717219076365
38,667.815912551249
39,667.7520126650102
40,667.6834781978182
41,667.6132043871469
42,667.54330856875
43,667.4750085330049
44,667.4086122829705
45,667.3436156689468
46,667.2788805996147
47,667.2128388868397
48,667.1436593432851
49,667.06934264481
50,666.9877490968713
51,666.8965928150373
52,666.7934477149349
53,666.6758086431731
54,666.5412325966997
55,666.3875557095001
56,666.213156159789
57,666.0172190135601
58,665.7999541710795
59,665.5627234959685
60,665.3080506892859
61,665.0395107606932
62,664.7615111877207
63,664.4789789922306
64,664.1969664941389
65,663.920197828663
66,663.6526039758623
67,663.3969232929545
68,663.1544535709177
69,662.925019988698
70,662.7071818935208
71,662.4986521753544
72,662.2968520327837
73,662.0994865041914
74,661.9050232608934
75,661.7129899890126
76,661.5240525820006
77,661.339878326975
78,661.1628235221905
79,660.995514877989
80,660.840408693101
81,660.6994011661985
82,660.5735361631533
83,660.4628348338247
84,660.366263430787
85,660.2818496662511
86,660.2069392896543
87,660.1385543758739
88,660.0737916137491
89,660.0101994028615
90,659.9460904339072
91,659.8807596698921
92,659.8145760633145
93,659.7489135533591
94,659.6859045267186
95,659.6280410117631
96,659.577696281468
97,659.5366666525377
98,659.5058243409278
99,659.4849326387153
100,659.4726318326167
101,659.466583767138
102,659.4637604207506
103,659.4608493962561
104,659.4547122521212
105,659.4427930029391
106,659.4233744037813
107,659.3956320544041
108,659.359510422851
109,659.31549786508
110,659.2643907473932
111,659.2071165076592
112,659.1446480660508
113,659.078005052117
114,659.0083140956851
115,658.9368940317886
116,658.8653394552387
117,658.7955907862461
118,658.7299854973387
119,658.6712722632861
120,658.6225497057617
121,658.5870876660737
122,658.5680093363711
123,658.567849295389
124,658.5880489017336
125,658.6284973463715
126,658.6872491561528
127,658.760520079035
128,658.8429833973265
129,658.9282948561538
130,659.0097167786207
131,659.080714767615
132,659.1354459327534
133,659.1691106368241
134,659.1781776099396
135,659.1605094389307
136,659.1154154160781
137,659.0436490970162
138,658.9473552582866
139,658.8299561540783
140,658.6959544666219
141,658.5506377965885
142,658.3997053927875
143,658.2488755261729
144,658.1035354454059
145,657.9684641961165
146,657.8476221852565
147,657.7439835164088
148,657.6593900435297
149,657.5944275891604
150,657.5483604541282
151,657.5191883969471
152,657.5038808089724
153,657.4987896377046
154,657.5001737982486
155,657.504722269078
156,657.5099603419548
157,657.5144581352109
158,657.5178175805264
159,657.5204762827452
160,657.5234106387646
161,657.5278273456889
162,657.53490715005
163,657.54563463308
164,657.5607303287422
165,657.5806847837999
166,657.6058643849109
167,657.6366307307769
168,657.6734152397112
169,657.7167207074992
170,657.7670590167929
171,657.8248562155788
172,657.8903556870523
173,657.9635360671898
174,658.0440463513983
175,658.1311529357135
176,658.2236955352918
177,658.320064464696
178,658.4182312154608
179,658.5158652730016
180,658.6105450631013
181,658.7000388043629
182,658.7826125415837
183,658.8573170784681
184,658.9242009976181
185,658.984395469848
186,659.0400333787726
187,659.0940003808995
188,659.1495467611414
189,659.2098014194047
190,659.2772327853755
191,659.3531159721749
192,659.4370995339415
193,659.5270003473235
194,659.618950401135
195,659.7079454140896
196,659.7887185179754
197,659.8567397665611
198,659.9090847747195
199,659.944952250606
200,659.9657241829738
201,659.9746022739337
202,659.9759595861987
203,659.9745825663832
204,659.9749542391781
205,659.9806793143213
206,659.9941046404484
207,660.0161509685898
208,660.0463394856425
209,660.0829676414832
210,660.123368613698
211,660.1641836005728
212,660.2015916389103
213,660.2314780324118
214,660.2495640929985
215,660.2515427010777
216,660.2332570413781
217,660.190938883703
218,660.1215066300931
219,660.0229134541986
220,659.8945186907725
221,659.7374265032662
222,659.5547141252781
223,659.3514781808288
224,659.1346553239943
225,658.9126032104915
226,658.6944556513067
227,658.489302072119
228,658.3052897942429
229,658.1487915768458
230,658.0237917273678
231,657.9316070388313
232,657.8709859497518
233,657.8385455557444
234,657.8294336722769
235,657.8380615674469
236,657.858756220994
237,657.8862259153415
238,657.9157995952751
239,657.943464789341
240,657.9657720680513
241,657.9796887547161
242,657.9824786549209
243,657.971667602472
244,657.9451252813607
245,657.9012520318315
246,657.8392225591122
247,657.7592285266966
248,657.662677539746
249,657.5523206979866
250,657.4322754036306
251,657.3078960768988
252,657.1854507769306
253,657.0716005268619
254,656.9727374892066
255,656.8942864612569
256,656.8400856654351
257,656.8119396107147
258,656.8094008634782
259,656.8298037407242
260,656.868541551148
261,656.9195480955702
262,656.9759164860046
263,657.0305717021151
264,657.0769170020352
265,657.1093978495164
266,657.1239556147682
267,657.1183617043791
268,657.0924265839419
269,657.0480703786096
270,656.9892297083909
271,656.9215728590581
272,656.8520153528528
273,656.7880675853387
274,656.7370871621627
275,656.7055348396351
276,656.6983383153786
277,656.7184521164697
278,656.7666685686127
279,656.8416905714171
280,656.9404286205693
281,657.0584438518518
282,657.1904394904934
283,657.3307104119712
284,657.4734899752372
285,657.6131745190894
286,657.744442820003
287,657.86230713714
288,657.962138448513
289,658.0397121955733
290,658.0913174903739
291,658.1139502975614
292,658.1055752876015
293,658.0654128109396
294,657.9941980612429
295,657.8943608424526
296,657.7700771274888
297,657.6271537195879
298,657.4727334587698
299,657.3148420705901
300,657.1618204369465
301,657.0216928146803
302,656.901522945798
303,656.8068126839497
304,656.7409991437643
305,656.7051065295448
306,656.6976088130932
307,656.7145506191044
308,656.749944510403
309,656.7964152227585
310,656.8460103619157
311,656.8910589961649
312,656.9249478236682
313,656.9427081842671
314,656.9413592503764
315,656.9200052847151
316,656.8797122881728
317,656.8231974460733
318,656.7543799612655
319,656.6778678251823
320,656.5984600565444
321,656.5207080842388
322,656.448536820257
323,656.3849241347856
324,656.3316693289796
325,656.2892919197931
326,656.2570688569376
327,656.2331763927479
328,656.2148908634971
329,656.1988221650244
330,656.1811818566057
331,656.1581027368054
332,656.1260190932978
333,656.0820905507032
334,656.02462138762
335,655.9534059530196
336,655.8699239140394
337,655.777316761831
338,655.6801076716795
339,655.5836865598707
340,655.4936530415815
341,655.4151533430885
342,655.352335954967
343,655.3079952317859
344,655.2834087758514
345,655.2783335166279
346,655.291115595586
347,655.3188836901309
348,655.3578177619914
349,655.4034934080184
350,655.4512837868327
351,655.496769126961
352,655.5360856855109
353,655.5661573267311
354,655.5847838087128
355,655.590585979721
356,655.5828193148287
357,655.5610845970881
358,655.5250076107476
359,655.4740036550813
360,655.4072374130375
361,655.323817469168
362,655.2231673627521
363,655.105452802059
364,654.9719429166091
365,654.825215823505
366,654.6691530523397
367,654.5087036197087
368,654.3494477920375
369,654.1970416454693
370,654.0566531748547
371,653.9324998705861
372,653.8275699174762
373,653.7435584724352
374,653.6809901536
375,653.6394582449323
376,653.6179091516877
377,653.6149220779076
378,653.6289522602617
379,653.6585167485365
380,653.7023131811703
381,653.7592721860617
382,653.8285448990243
383,653.9094221563756
384,654.0011866966795
385,654.1029247160681
386,654.2133551275024
387,654.3307420611038
388,654.4529242909241
389,654.5774472253325
390,654.701749512892
391,654.8233459801373
392,654.939956693418
393,655.049554669581
394,655.1503364783512
395,655.2406490617649
396,655.3189226162438
397,655.3836636420693
398,655.4335576550116
399,655.4677106479927
400,655.4860122750322
401,655.4895410526284
402,655.4808839677158
403,655.464239832441
404,655.4452231115987
405,655.430363425818
406,655.4263751738141
407,655.4393222344216
408,655.4738100162243
409,655.5323148677851
410,655.6147374747023
411,655.7182515102356
412,655.8374925398697
413,655.9650780748609
414,656.092380553222
415,656.2104258062762
416,656.3107860961337
417,656.3863725678503
418,656.4320745704874
419,656.445215710809
420,656.4257985107779
421,656.3765085379922
422,656.3024606118809
423,656.2106992970575
424,656.1095046378958
425,656.0075838710991
426,655.9132388032729
427,655.8335914459672
428,655.7739432341856
429,655.7373454128102
430,655.7244568099313
431,655.7337324103576
432,655.7619156921816
433,655.8047321670834
434,655.8576377586169
435,655.9164695040263
436,655.9778713095823
437,656.0394298057204
438,656.099546071793
439,656.1571424348894
440,656.2113150843714
441,656.2609990093836
442,656.304663638428
443,656.3400517751646
444,656.3640091032352
445,656.3724841759513
446,656.3607691268389
447,656.3239923486303
448,656.2577920374164
449,656.1590337502311
450,656.0264179089662
451,655.8608608488904
452,655.6656015934881
453,655.4460490748199
454,655.2094189023198
455,654.9642185073922
456,654.7196406529436
457,654.4849266100829
458,654.2687557607105
459,654.0787015837963
460,653.9207743583534
461,653.7990649690396
462,653.7155137888967
463,653.6698380103829
464,653.6596450319521
465,653.6807401632831
466,653.7276170706479
467,653.794102242974
468,653.8740953396027
469,653.9623000778497
470,654.0548070375564
471,654.1494124786159
472,654.2456350616364
473,654.3444776556371
474,654.4480281442555
475,654.5589925704883
476,654.6802274349217
477,654.8143104761896
478,654.9631740124064
479,655.1278237938541
480,655.3081706817253
481,655.5029941053859
482,655.7100281716026
483,655.9261368686667
484,656.1475504902711
485,656.3701607230079
486,656.5898822493123
487,656.8030682108404
488,657.0069289668158
489,657.1998720623202
490,657.3816750355629
491,657.553431403324
492,657.7172707148623
493,657.8759253962569
494,658.0322671966129
495,658.1889378446983
496,658.3481497512703
497,658.5116543807142
498,658.6808020229149
499,658.8565833693764
500,659.0395696853919
501,659.2297379544767
502,659.4262393494573
503,659.6272091065147
504,659.8297096381416
505,660.0298515414772
506,660.2230711510012
507,660.4044910468465
508,660.5692751912434
509,660.7129151499311
510,660.831431584241
511,660.9215182420969
512,660.9806708576225
513,661.0073286736505
514,661.001024749363
515,660.9625068747856
516,660.8937697056742
517,660.797945338542
518,660.6790347861811
519,660.5415124816453
520,660.389879044643
521,660.2282541347084
522,660.0600849444837
523,659.8880108795715
524,659.713888995542
525,659.5389524656166
526,659.3640502516151
527,659.1899143017206
528,659.0174211431734
529,658.8478322755715
530,658.6829913177104
531,658.5254349521182
532,658.3783652336987
533,658.2454459088498
534,658.1304200193201
535,658.0365912105764
536,657.9662557135455
537,657.9201970430156
538,657.897346785859
539,657.8946771121314
540,657.9073411871028
541,657.929034300781
542,657.9525230823633
543,657.9702838853054
544,657.975194918051
545,657.9612277570416
546,657.9240785059161
547,657.8616734123939
548,657.7744857954875
549,657.6656145392311
550,657.5406012271584
551,657.406999510772
552,657.2737448309282
553,657.15039531003
554,657.0463230741217
555,656.9699290765341
556,656.9279387157405
557,656.9248261923493
558,656.9624205707166
559,657.0397469479444
560,657.153130465007
561,657.296548855217
562,657.4621882709628
563,657.6411460431001
564,657.8242196513983
565,658.0027121626937
566,658.1691726276292
567,658.3179846477595
568,658.4457284036251
569,658.5512774069208
570,658.6356416649095
571,658.7016085663689
572,658.7532440988984
573,658.7953100261668
574,658.8326515619625
575,658.8696226047854
576,658.9096254725764
577,658.9548329316552
578,659.0061344682645
579,659.063312001176
580,659.1253977692196
581,659.1911096522954
582,659.2592364567189
583,659.328878794183
584,659.3995087355901
585,659.470852328566
586,659.5426207852845
587,659.6141412455473
588,659.6839747470266
589,659.7496385008312
590,659.8075456379801
591,659.8532311204772
592,659.8818608151762
593,659.8889401945937
594,659.8710740100341
595,659.8266101954188
596,659.7560415787947
597,659.6621098739543
598,659.5496191562938
599,659.4250042912302
600,659.2957159603333
601,659.1694865302686
602,659.0535448451026
603,658.9538645198893
604,658.8745517657161
605,658.8174823798333
606,658.7822635798176
607,658.7665247373034
608,658.7664562001751
609,658.7774523250051
610,658.7947010757985
611,658.8136075056673
612,658.8300230277158
613,658.8403326298568
614,658.8414900091668
615,658.8310790812495
616,658.8074381664645
617,658.7698358425456
618,658.7186524682296
619,658.6555028583642
620,658.583233058454
621,658.5057423827906
622,658.4276226427074
623,658.3536557441976
624,658.2882461589433
625,658.2348740766557
626,658.1956426204936
627,658.1709725593839
628,658.1594842309695
629,658.1580980422577
630,658.1623635047137
631,658.166981604778
632,658.1664371832029
633,658.1556390265397
634,658.1304798197439
635,658.0882543181144
636,658.0279011561627
637,657.9500659725842
638,657.857011838228
639,657.7524108175204
640,657.6410441039451
641,657.528433603983
642,657.4204242979013
643,657.3227318860764
644,657.2404756084169
645,657.1777350040701
646,657.1371843184872
647,657.1198520938719
648,657.1250283845535
649,657.1503168687927
650,657.1918221718246
651,657.244471649755
652,657.3024733564583
653,657.3598938745001
654,657.4113132813986
655,657.4524986021557
656,657.4810318970628
657,657.496819918181
658,657.5023932466638
659,657.5028930198044
660,657.5056727272597
661,657.5195175661693
662,657.5535749247585
663,657.6161561846211
664,657.7135903440756
665,657.8492875364777
666,658.0231227608903
667,658.2311956241031
668,658.4659750959108
669,658.7168058725036
670,658.9707297011116
671,659.2135485995358
672,659.4310225573814
673,659.6100654757088
674,659.7398014177049
675,659.8123746600817
676,659.8234551959855
677,659.7724253937969
678,659.662263531183
679,659.4991571475074
680,659.291890701201
681,659.0510660544626
682,658.7882356221687
683,658.5150503962399
684,658.2425254428784
685,657.9804826349067
686,657.7371613646369
687,657.5189449723474
688,657.3301633894496
689,657.1729736846138
690,657.0473446687824
691,656.9511679762121
692,656.8805033798152
693,656.8299514804406
694,656.7931262623435
695,656.7631700509164
696,656.7332323966618
697,656.6968474426525
698,656.648188202667
699,656.582216908991
700,656.4947633610291
701,656.3825574259635
702,656.2432384022485
703,656.0753661675142
704,655.8784561538826
705,655.6530456039559
706,655.4007773171724
707,655.1244691987055
708,654.8281271572362
709,654.5168565158701
710,654.1966412099354
711,653.8739924430071
712,653.5555008426346
713,653.2473406708187
714,652.9547767865291
715,652.6817285930367
716,652.4304487355295
717,652.2013674908453
718,651.9931338468028
719,651.8028567296805
720,651.6265230561606
721,651.4595501850919
722,651.2974176086512
723,651.1363082394952
724,650.9736726929768
725,650.8086229401373
726,650.6420761249551
727,650.4766039020489
728,650.315989871177
729,650.1645531629106
730,650.0263543578048
731,649.9044419789764
732,649.8002943905108
733,649.71355182343
734,649.6420461356803
735,649.58207082667
736,649.5288160791239
737,649.4769093605588
738,649.4210194604913
739,649.3564814196473
740,649.2798861765675
741,649.1895671825621
742,649.0859159840893
743,648.9714703552779
744,648.8507413893007
745,648.7297810397753
746,648.6155334039379
747,648.5150477633249
748,648.4346503456268
749,648.3791775690449
750,648.3513689718875
751,648.351497253955
752,648.3772715672472
753,648.4240030260537
754,648.4849932072412
755,648.5521009335534
756,648.6164393507095
757,648.6691400394221
758,648.7021006453322
759,648.7086223921781
760,648.6838548180598
761,648.6250018470818
762,648.5312996137712
763,648.4038275717729
764,648.2452311993746
765,648.0594160776685
766,647.8512462256834
767,647.6262612172629
768,647.3904117355537
769,647.1498006101635
770,646.910417428514
771,646.6778754011658
772,646.4571901259596
773,646.2526623998873
774,646.0679191617148
775,645.9061181947632
776,645.7702563840905
777,645.6634796494895
778,645.5892930203356
779,645.5515986441224
780,645.5545320332502
781,645.602113171633
782,645.6977665117477
783,645.8437797692452
784,646.0407669778538
785,646.2871944102681
786,646.5790345763062
787,646.9096240137648
788,647.2697885912617
789,647.6482574254526
790,648.0323332859933
791,648.4087464517322
792,648.7645985176234
793,649.0883001374856
794,649.3704148930233
795,649.6043320005923
796,649.7867013133922
797,649.9175809660022
798,650.0002743767493
799,650.0408654279381
800,650.0474967867036
801,650.0294744554556
802,649.9963099411028
803,649.956822195289
804,649.9184192210218
805,649.886659000193
806,649.8651385360381
807,649.8556882979196
808,649.8587852023741
809,649.8740594234865
810,649.9007673190273
811,649.9381360670225
812,649.985541638876
813,650.0425384472408
814,650.1087994181647
815,650.1840359662885
816,650.267942575398
817,650.3601676237078
818,650.4602825935823
819,650.5677211869623
820,650.6816775522082
821,650.8009730458739
822,650.9239193624724
823,651.0482222803424
824,651.1709745611618
825,651.2887656959132
826,651.3978954244394
827,651.4946413017302
828,651.5755194336741
829,651.6374964597804
830,651.6781494209961
831,651.6958084386284
832,651.6897326338363
833,651.6603478847151
834,651.6095197670063
835,651.5407727379916
836,651.4593360737523
837,651.3719231309751
838,651.2862237259327
839,651.2101748685951
840,651.1511365256922
841,651.1151157422371
842,651.1061573351094
843,651.125974795543
844,651.1738522033472
845,651.2468130909803
846,651.3400241142439
847,651.4473816514505
848,651.5622184868814
849,651.6780597576145
850,651.7893485127123
851,651.8920574912567
852,651.9841140124377
853,652.0655914862149
854,652.1386577290269
855,652.2073044989928
856,652.2769021614686
857,652.3536263141767
858,652.443803199338
859,652.5532335994659
860,652.6865750148229
861,652.8468656557561
862,653.0352493286827
863,653.2509183128203
864,653.4912534892277
865,653.752127341571
866,654.0283455624143
867,654.3142094935947
868,654.6041617467803
869,654.8934422116664
870,655.1786573733145
871,655.4581617949184
872,655.732166501022
873,656.0025334755532
874,656.2722880942791
875,656.54494990413
876,656.8238093069281
877,657.1112632967636
878,657.4082968167534
879,657.7141732962253
880,658.0263709855553
881,658.3407661654016
882,658.6520288364702
883,658.9541731107342
884,659.2411996595389
885,659.5077725248016
886,659.7498656566967
887,659.9652886008196
888,660.153981599049
889,660.3179929175002
890,660.4611218020079
891,660.5882975220248
892,660.7048242770212
893,660.8156330976916
894,660.9246603136633
895,661.0344391106213
896,661.1459463831322
897,661.258687563716
898,661.3709494271232
899,661.4801364451107
900,661.5831293770513
901,661.6766351525492
902,661.7575134569383
903,661.8230703253736
904,661.8713117297146
905,661.9011504950572
906,661.9125519772919
907,661.9065904742653
908,661.885383337571
909,661.8518842436908
910,661.8095501383165
911,661.761938110562
912,661.7123194970746
913,661.663395590453
914,661.617159238575
915,661.5748954843771
916,661.5372825355872
917,661.5045498256385
