acceleration,velocity,displacement
-0.008245887948348385,0.0,0.0
-0.007150399047754567,-3.849071749025738e-06,-9.622679372564346e-10
-0.00605709107012714,-7.150944278496164e-06,-3.71227194413691e-09
-0.004968137673278497,-9.907251464347573e-06,-7.976820879847845e-09
-0.0038856981190744906,-1.212071041243582e-05,-1.3483811349043694e-08
-0.002811910406353591,-1.379511254379284e-05,-1.996276708810086e-08
-0.0017488847777901411,-1.4935311339828774e-05,-2.7145373059006263e-08
-0.0006986976789612767,-1.554720695401663e-05,-3.476600263246761e-08
0.0003366137877943458,-1.5637727926808362e-05,-4.256223635267386e-08
0.001355056904306716,-1.5214810253783097e-05,-5.027537089782172e-08
0.0023546878915415097,-1.428737405482104e-05,-5.765091697497276e-08
0.0033336160263881367,-1.2865298075338629e-05,-6.443908500751268e-08
0.004290007390954491,-1.0959392221002971e-05,-7.039525758159808e-08
0.005222088334830718,-8.58136828955667e-06,-7.528044770923799e-08
0.006128148726782072,-5.743809024153472e-06,-7.886174203766553e-08
0.007006545065764486,-2.460135576016832e-06,-8.091272818770811e-08
0.007855703523701405,1.2554265713496406e-06,-8.12139054388749e-08
0.008674123000688264,5.387883202447058e-06,-7.955307799542573e-08
0.009460378270022973,9.921508520124866e-06,-7.572573006478275e-08
0.010213123262613913,1.4839883903284087e-05,-6.953538195893051e-08
0.010931094493528911,2.0125938342319794e-05,-6.079392639752955e-08
0.011613114589692473,2.576199061312514e-05,-4.9321944158668315e-08
0.012258095857743472,3.1729793224984124e-05,-3.4948998199140996e-08
0.012865043836399692,3.8010578148519914e-05,-1.7513905355764985e-08
0.013433060791496148,4.4585104305493876e-05,3.1350152577384636e-09
0.013961349117804122,5.1433706782818944e-05,2.7139718029816668e-08
0.014449214608196615,5.8536347714319126e-05,5.463223165410118e-08
0.01489606954754961,6.587266875325568e-05,8.573448577099488e-08
0.015301435592269413,7.342204503821043e-05,1.205581642188614e-07
0.01566494640298002,8.116364053702279e-05,1.592045856126697e-07
0.015986350001161116,8.907646463805808e-05,2.0176461190643995e-07
0.016265510820850287,9.713942984356093e-05,2.483185855268447e-07
0.016502411427634863,0.00010533141040568222,2.9893629558915547e-07
0.01669715388011186,0.0001136313017326189,3.5367697362373077e-07
0.016849960712103377,0.00012201808038067271,4.1258931915205367e-07
0.016961175517356368,0.00013047086443803763,4.7571155535673125e-07
0.01703126312231169,0.00013896897409795464,5.430715149907293e-07
0.01706080933501122,0.00014749199221228537,6.146867565682893e-07
0.017050520259879656,0.00015601982461100808,6.905647107741126e-07
0.017001221171883553,0.00016453275996894889,7.707028569191019e-07
0.01691385494793877,0.00017301152899890446,8.550889291610652e-07
0.016789480051853323,0.00018143736274885247,9.437011520980044e-07
0.016629268058811437,0.00018979204977651867,1.036508505229347e-06
0.01643450069205808,0.00019805799196423606,1.1334710156645357e-06
0.01620656633609964,0.00020621825872127548,1.2345400783359137e-06
0.015946955990148518,0.00021425663930283752,1.339658802841942e-06
0.015657258630693414,0.000222157692958048,1.4487623859071634e-06
0.015339155962120729,0.00022990679660625152,1.5617785082982384e-06
0.01499441654924135,0.00023749018973409205,1.6786277548833243e-06
0.014624889340924414,0.0002448950162066335,1.7992240563685056e-06
0.014232496600565688,0.000252109362692006,1.9234751510931656e-06
0.013819226252265894,0.0002591222934052139,2.051283065117471e-06
0.013387123639165008,0.0002659238808780716,2.182544608688292e-06
0.01293828268845696,0.0002725052324599771,2.3171518870228043e-06
0.01247483649844779,0.00027885851225670325,2.4549928232019743e-06
0.011998947403855549,0.0002849769582322791,2.59595169082422e-06
0.011512796616329278,0.0002908548942373253,2.739909653941621e-06
0.01101857355491012,0.0002964877367801352,2.886745311695986e-06
0.01051846496993823,0.00030187199641134725,3.0363352449938568e-06
0.01001464394175627,0.00030700527363927086,3.1885545625065113e-06
0.009509258826905145,0.00031188624933143624,3.343277443249188e-06
0.009004422236932028,0.00031651466959739554,3.500377672981396e-06
0.008502200155072057,0.00032089132519539656,3.659729171679594e-06
0.0080046013094438,0.00032501802556152555,3.821206509368824e-06
0.007513566927645416,0.00032889756762079784,3.984685407664405e-06
0.007030961003997607,0.0003325336996037086,4.150043224470532e-06
0.006558561216326948,0.00033593108015878974,4.317159419411157e-06
0.006098050622703452,0.00033909523311854734,4.485915997730491e-06
0.005651010243266786,0.0003420324983350399,4.656197930593888e-06
0.0052189125966330815,0.00034474997904501486,4.8278935499389015e-06
0.004803116227046988,0.0003472554862509349,5.000894916262889e-06
0.004404861229920326,0.00034955748061517674,5.175098157979417e-06
0.004025265755535727,0.00035166501236154075,5.350403781223597e-06
0.003665323444109562,0.0003535876596614521,5.5267169492293455e-06
0.0033259017249218036,0.00035533546595370994,5.703947730633136e-06
0.0030077408983371088,0.0003569188766095247,5.882011316273945e-06
0.0027114539088394017,0.0003583486753113188,6.0608282042541555e-06
0.0024375267091399054,0.0003596359204658136,6.2403243531984386e-06
0.002186319114242501,0.00036079188192165925,6.4204313037953065e-06
0.0019580660550507396,0.00036182797821398253,6.601086268829217e-06
0.001752879163737297,0.00036275571451867955,6.782232192012383e-06
0.0015707486501305755,0.00036358662147214653,6.963817776010089e-06
0.0014115454505517085,0.0003643321949973171,7.145797480127455e-06
0.0012750236436071419,0.00036500383727085684,7.328131488194498e-06
0.0011608231332195626,0.0003656127989650635,7.510785647253478e-06
0.0010684726013168303,0.0003661701228986976,7.693731377719418e-06
0.00099739273300666,0.00036668658923227844,7.876945555752163e-06
0.0009468997157168052,0.0003671726623444593,8.060410368646347e-06
0.0009162090118653305,0.00036763843952635487,8.24411314411405e-06
0.0009044394064298636,0.00036809360163092867,8.428046154403371e-06
0.0009106173370700265,0.00036854736581680365,8.612206396265304e-06
0.0009336815194716855,0.0003690084405309391,8.79659534785224e-06
0.0009724878818525359,0.00036948498288127014,8.981218703705292e-06
0.0010258148260951906,0.00036998455855825706,9.166086089065174e-06
0.0010923688424179848,0.00037051410447538533,9.351210754823586e-06
0.0011707905135505334,0.00037107989431437745,9.536609254521026e-06
0.0012596609438862254,0.00037168750717873667,9.722301104894305e-06
0.00135750863573076,0.0003723417995736409,9.908308431582399e-06
0.0014628168119365707,0.0003730468809355577,1.0094655601709699e-05
0.0015740311604791762,0.00037380609292866164,1.0281368845175753e-05
0.0016895679590460467,0.0003746219927085429,1.0468475866585054e-05
0.0018078225242606975,0.0003754963403293696,1.0656005449844532e-05
0.0019271779142248941,0.000376430090438991,1.0843987057536623e-05
0.0020460137967428503,0.000377423388366733,1.1032450427238055e-05
0.0021627153905045627,0.0003784755706635448,1.1221425166995624e-05
0.0022756823977360926,0.00037958517011060496,1.1410940352189161e-05
0.002383337864883636,0.00038074992517625987,1.1601024126010878e-05
0.0024841369216385104,0.0003819667938728904,1.1791703305773165e-05
0.0025765753593058314,0.0003832319719431265,1.198300299722717e-05
0.0026591980249180266,0.00038454091528918245,1.2174946219035248e-05
0.002730607026461143,0.00038588836655202726,1.236755353949555e-05
0.0027894697553482333,0.0003872683857474796,1.2560842727570427e-05
0.002834526725224016,0.0003886743848676227,1.2754828420224202e-05
0.0028645992055231573,0.0003900991663503095,1.2949521808028685e-05
0.002878596608811951,0.00039153496530389327,1.3144930340942236e-05
0.0028755235858708835,0.000392973495352564,1.334105745610635e-05
0.002854486791783065,0.0003944059979469775,1.3537902329431235e-05
0.002814701298597416,0.00039582329496957265,1.3735459652660372e-05
0.0027554966313645983,0.00039721584445206315,1.393371943751578e-05
0.002676322387682474,0.0003985737992068249,1.4132666848430502e-05
0.002576753370012374,0.0003998870681462486,1.433228206526877e-05
0.002456494126292097,0.0004011453800203247,1.4532540177310413e-05
0.002315382770936592,0.0004023383492446319,1.4733411109626652e-05
0.0021533939556807147,0.0004034555434262862,1.4934859582794381e-05
0.001970640879461292,0.00040448655213507173,1.5136845106684722e-05
0.0017673762574577892,0.0004054210564193015,1.5339322008823316e-05
0.0015439921959644154,0.0004062488985326571,1.5542239497561307e-05
0.0013010189383782292,0.00040696015131624273,1.5745541760023533e-05
0.0010391224673081366,0.00040754518666766433,1.594916809451951e-05
0.000759100974764879,0.00040799474252818256,1.6153053076818473e-05
0.00046188024034022273,0.00040829998783195885,1.6357126759408508e-05
0.00014850797626965215,0.00040845258488611134,1.6561314902588024e-05
-0.0001798527941323794,0.00040844474868164565,1.6765539235979965e-05
-0.0005219312575987882,0.00040826930266871285,1.6969717748817554e-05
-0.000876357166586875,0.00040791973056266643,1.71737650071254e-05
-0.001241669968685311,0.00040739022377884836,1.7377592495710778e-05
-0.0016163286559387107,0.00040667572412269237,1.7581108982686163e-05
-0.0019987222879042955,0.0004057719613867316,1.778422090406352e-05
-0.0023871811452066153,0.0004046754855284539,1.7986832765792316e-05
-0.0027799884644935315,0.00040338369312602885,1.8188847560455937e-05
-0.0031753926909747097,0.0004018948478371618,1.8390167195696736e-05
-0.003571620164452426,0.000400208094623305,1.859069293131185e-05
-0.003966888133180067,0.00039832346754889686,1.87903258218549e-05
-0.004359417969668502,0.00039624189102318474,1.898896716149792e-05
-0.004747448445446204,0.0003939651744194061,1.918651892785857e-05
-0.005129248911403081,0.00039149600008019374,1.938288422148347e-05
-0.005503132230147138,0.0003888379047948062,1.957796769770222e-05
-0.005867467314161692,0.000385995254908729,1.97716759876281e-05
-0.006220691130893321,0.00038297321529746523,1.996391810517965e-05
-0.0065613200397937645,0.0003797777125047935,2.0154605837130213e-05
-0.006887960332110107,0.0003764153924118175,2.0343654113359365e-05
-0.007199317856883053,0.0003728935728645692,2.0530981354678464e-05
-0.0074942066347428,0.00036922019174166277,2.071650979583002e-05
-0.00777155637982426,0.000365403750988021,2.0900165781512443e-05
-0.008030418867043256,0.0003614532571763041,2.1081880033553524e-05
-0.008269973097145599,0.0003573781591852569,2.1261587887643912e-05
-0.008489529229917987,0.000353188283603491,2.14392294983411e-05
-0.008688531281839685,0.0003488937684755516,2.161475001136086e-05
-0.00886655861488274,0.000344504996001371,2.1788099702480093e-05
-0.009023326264926116,0.0003400325247814188,2.195923408267579e-05
-0.009158684161036672,0.00033548702217492805,2.2128113969414878e-05
-0.009272615275146065,0.00033087919731588234,2.229470552428758e-05
-0.009365232732202104,0.0003262197353140453,2.245898025744506e-05
-0.009436775917593888,0.0003215192331515963,2.262091499956147e-05
-0.009487605638155051,0.00031678813776265906,2.2780491842290036e-05
-0.00951819841220907,0.000312036686750068,2.2937698048418216e-05
-0.009529139976668686,0.00030727485215284857,2.3092525933143944e-05
-0.009521118108885016,0.00030251228763146016,2.324497271809002e-05
-0.009494914870572206,0.00029775827938659585,2.3395040359844534e-05
-0.009451398388848878,0.00029302170107174056,2.3542735354959117e-05
-0.009391514294553174,0.00028831097290089007,2.3688068523452274e-05
-0.009316276941506852,0.0002836340250918751,2.3831054772950464e-05
-0.009226760531461127,0.00027899826572363307,2.397171284565434e-05
-0.009124090265310024,0.00027441055302444026,2.411006505034136e-05
-0.009009433630112812,0.00026987717205058457,2.4246136981610114e-05
-0.008883991912292995,0.00026540381566498314,2.4379957228539006e-05
-0.008748991999356043,0.0002609955696870709,2.4511557074877018e-05
-0.008605678496814406,0.00025665690206302824,2.4640970192814543e-05
-0.008455306151283813,0.0002523916559010037,2.4768232332305552e-05
-0.008299132547228574,0.0002482030462263756,2.48933810078374e-05
-0.00813841104049712,0.00024409366032944417,2.5016455184476353e-05
-0.007974383901233069,0.00024006546159401163,2.5137494964957218e-05
-0.007808275650205941,0.00023611979670615186,2.525654127953226e-05
-0.007641286578306093,0.00023225740614902385,2.5373635580246052e-05
-0.007474586439097904,0.00022847843789467284,2.5488819541256978e-05
-0.007309308302713708,0.00022478246420921992,2.560213476678295e-05
-0.007146542559451331,0.00022116850149367866,2.5713622508208676e-05
-0.0069873310662822135,0.00021763503308724528,2.5823323391853908e-05
-0.006832661441048358,0.00021418003496041264,2.593127715886582e-05
-0.006683461526616634,0.0002108010042184964,2.603752241866055e-05
-0.00654059407011393,0.00020749499031931374,2.6142096417295e-05
-0.006404851690141217,0.00020425862887924994,2.624503482209464e-05
-0.006276952233264232,0.00020108817789839858,2.6346371523789054e-05
-0.006157534639444345,0.00019797955618022144,2.644613845730871e-05
-0.006047155433749969,0.00019492838366192284,2.6544365442269245e-05
-0.005946285937347702,0.00019193002331914844,2.6641080044014512e-05
-0.005855310256905293,0.00018897962427058518,2.6736307455911946e-05
-0.005774524085282232,0.0001860721656850383,2.683007040340085e-05
-0.005704134334659842,0.0001832025010800528,2.6922389070092124e-05
-0.005644259618484503,0.0001803654025917667,2.701328104601008e-05
-0.005594931590013177,0.00017755560478964228,2.7102761297855433e-05
-0.005556097128963527,0.0001747678476098981,2.7190842160955317e-05
-0.005527621344152782,0.00017199691799161902,2.7277533352355695e-05
-0.005509291329058524,0.0001692376898233162,2.736284200430943e-05
-0.005500820572199383,0.00016648516184800173,2.744677271722726e-05
-0.0055018538946274365,0.00016373449323129501,2.7529327630997084e-05
-0.005511972773189828,0.0001609810365643407,2.761050651344599e-05
-0.0055307009130870066,0.0001582203681427715,2.769030686462277e-05
-0.005557509949631768,0.0001554483154270918,2.7768724035515237e-05
-0.0055918251782086726,0.00015266098164513168,2.7845751359783292e-05
-0.005633031232394076,0.000149854767542481,2.7921380297080196e-05
-0.005680477657619752,0.00014702639031997756,2.799560058654581e-05
-0.005733484360957005,0.00014417289981533338,2.8068400409079638e-05
-0.005791346948560427,0.00014129169198795404,2.813976655703046e-05
-0.005853341983346634,0.00013838051975497727,2.8209684609966194e-05
-0.00591873220401317,0.00013543750120813733,2.8278139115206973e-05
-0.005986771745554848,0.00013246112522074532,2.8345113771814195e-05
-0.006056711397247744,0.00012945025443504468,2.8410591616728142e-05
-0.00612780392772477,0.00012640412560380155,2.8474555211737854e-05
-0.006199309490605126,0.00012332234724921908,2.8536986829951108e-05
-0.006270501095120216,0.00012020489460278774,2.859786864041411e-05
-0.006340670096663939,0.0001170521018048417,2.8657182889516015e-05
-0.006409131648000324,0.00011386465136867564,2.8714912077809393e-05
-0.00647523005470847,0.00011064356094299844,2.877103913088731e-05
-0.006538343986924829,0.0001073901674325901,2.882554756298121e-05
-0.006597891503506101,0.00010410610855998237,2.8878421631979354e-05
-0.006653334844478995,0.0001007933019729861,2.8929646484612595e-05
-0.0067041849481266754,9.745392202483467e-05,2.897920829061205e-05
-0.006750005651593862,9.409037437490453e-05,2.9027094364711986e-05
-0.0067904175365692656,9.070526857786375e-05,2.9073293275450177e-05
-0.006825101383765004,8.730138884778017e-05,2.9117794939806587e-05
-0.006853801200487865,8.388166320171695e-05,2.916059070281896e-05
-0.0068763267839166715,8.044913120561582e-05,2.9201673401420794e-05
-0.00689255578244295,7.700691056402591e-05,2.9241037411863206e-05
-0.006902435226320221,7.355816281183512e-05,2.927867868020717e-05
-0.006905982517459713,7.010605837589014e-05,2.93145947355041e-05
-0.00690328588417417,6.665374127548167e-05,2.9348784685416946e-05
-0.006894504307460365,6.320429372757304e-05,2.938124919416771e-05
-0.006879866914342505,5.976070092212232e-05,2.9411990442830134e-05
-0.00685967182317055,5.632581623774406e-05,2.94410120721201e-05
-0.006834284420168253,5.290232717690936e-05,2.9468319107973762e-05
-0.006804135043162875,4.949272231107658e-05,2.949391787034576e-05
-0.006769716047938577,4.609925953830122e-05,2.9517815865808105e-05
-0.006731578237570252,4.272393596692401e-05,2.9540021664684412e-05
-0.006690326640539614,3.9368459747396545e-05,2.9560544763612992e-05
-0.0066466156218993695,3.6034224181786796e-05,2.9579395434595288e-05
-0.00660114330553988,3.272228444992698e-05,2.9596584561753216e-05
-0.006554645286883633,2.94333373018211e-05,2.9612123467191153e-05
-0.006507887631780336,2.616770407215511e-05,2.9626023727534647e-05
-0.006461659185521233,2.2925317367829718e-05,2.9638296982894643e-05
-0.00641676324750094,1.9705711759574173e-05,2.9648954740176493e-05
-0.006374008696696691,1.6508018773524766e-05,2.9658008172809766e-05
-0.006334200677798929,1.3330966429900861e-05,2.9665467919110622e-05
-0.006298130976597978,1.0172883516301634e-05,2.9671343881597173e-05
-0.006266568227529367,7.031708715269797e-06,2.9675645029655065e-05
-0.0062402481071125344,3.905004631609322e-06,2.9678379207991786e-05
-0.006219863671251256,7.899766870183746e-07,2.9679552953321442e-05
-0.006206055986350066,-2.3165032273819557e-06,2.967917132168635e-05
-0.006199405182885118,-5.417868519690751e-06,2.9677237728749583e-05
-0.006200422033516078,-8.51782532379105e-06,2.9673753805288712e-05
-0.006209540139385759,-1.162031586701651e-05,2.966871926999101e-05
-0.006227108805886041,-1.472947810333446e-05,2.9662131821498424e-05
-0.006253386698305708,-1.7849601979382396e-05,2.9653987051477745e-05
-0.006288536377909192,-2.098508274843612e-05,2.964427838029579e-05
-0.006332619821982006,-2.414037179840892e-05,2.963299701665908e-05
-0.0063855950233291945,-2.731992550973672e-05,2.9620131942332044e-05
-0.006447313746654111,-3.052815270223255e-05,2.960566992277905e-05
-0.006517520497835859,-3.376936126335504e-05,2.9589595544287653e-05
-0.006595852742605885,-3.7047704573465475e-05,2.957189127782845e-05
-0.0066818423925365,-4.036712835725107e-05,2.955253756959577e-05
-0.006774918554944871,-4.373131859412141e-05,2.9531512957857924e-05
-0.006874411519712255,-4.7143651112785696e-05,2.9508794215431197e-05
-0.006979557936722149,-5.06071434768943e-05,2.9484356516783778e-05
-0.007089507128395446,-5.4124409743173695e-05,2.945817362847876e-05
-0.007203328478666106,-5.769761864493908e-05,2.9430218121381733e-05
-0.007320019831823115,-6.132845572256139e-05,2.940046160278986e-05
-0.007438516815545977,-6.501808988440366e-05,2.9368874966388117e-05
-0.0075577029747104785,-6.876714483196778e-05,2.9335428657709025e-05
-0.007676420574540323,-7.257567571928047e-05,2.9300092952571212e-05
-0.0077934819121591075,-7.644315134095532e-05,2.9262838245806154e-05
-0.007907680968540635,-8.036844206113026e-05,2.9223635347455634e-05
-0.00801780523418101,-8.434981361181067e-05,2.91824557835374e-05
-0.008122647543882207,-8.838492680632648e-05,2.9139272098432866e-05
-0.008221017755988535,-9.247084313129417e-05,2.909405815594846e-05
-0.00831175411166814,-9.660403609820834e-05,2.9046789436141084e-05
-0.008393734111288877,-0.00010078040815394759,2.8997443325078044e-05
-0.008465884746478705,-0.00010499531286838949,2.894599939482246e-05
-0.008527191929066818,-0.00010924358203727586,2.8892439671096044e-05
-0.0085767089664628,-0.00011351955726115827,2.8836748886271436e-05
-0.008613563949814496,-0.0001178171254902276,2.877891471558359e-05
-0.008636965943871892,-0.00012212975796364918,2.871892799472012e-05
-0.00864620989170011,-0.00012645055192254219,2.865678291724857e-05
-0.008640680174174353,-0.0001307722744390108,2.8592477210658183e-05
-0.008619852797602074,-0.00013508740768195492,2.852601229012794e-05
-0.008583296221229969,-0.00013938819493666292,2.8457393389473288e-05
-0.008530670872256113,-0.00014366668671003443,2.8386629669061614e-05
-0.008461727423415891,-0.00014791478628395244,2.831373430081312e-05
-0.008376303927667307,-0.00015212429412172324,2.82387245307117e-05
-0.008274321919117105,-0.00015628695058341935,2.8161621719535412e-05
