frame_number,force
0,729.6088300102061
1,729.6576071438626
2,729.7062249419625
3,729.7545251405062
4,729.8023516101491
5,729.8495514031003
6,729.8959757769743
7,729.9414811894443
8,729.9859302575873
9,730.0291926751015
10,730.071146079538
11,730.1116768609264
12,730.1506809029376
13,730.1880642480197
14,730.2237436790089
15,730.2576472116153
16,730.2897144942236
17,730.3198971125471
18,730.3481587965807
19,730.374475526857
20,730.3988355373792
21,730.4212392141937
22,730.441698890875
23,730.4602385443688
24,730.4768933960434
25,730.4917094233525
26,730.5047427877059
27,730.5160591845237
28,730.5257331223734
29,730.533847139711
30,730.5404909699859
31,730.5457606680534
32,730.5497577118525
33,730.5525880924274
34,730.5543614030707
35,730.555189935961
36,730.5551877930735
37,730.5544700170902
38,730.5531517468179
39,730.551347400252
40,730.5491698875711
41,730.5467298563432
42,730.5441349715933
43,730.5414892335082
44,730.5388923354315
45,730.5364390649197
46,730.5342187511328
47,730.5323147623334
48,730.5308040574255
49,730.5297567951695
50,730.5292360040288
51,730.5292973146366
52,730.5299887558499
53,730.5313506145947
54,730.5334153593489
55,730.5362076268927
56,730.5397442713164
57,730.5440344730387
58,730.5490799041929
59,730.5548749457514
60,730.561406951601
61,730.5686565555974
62,730.5765980190109
63,730.5851996169471
64,730.5944240628196
65,730.6042289698472
66,730.614567347957
67,730.6253881334654
68,730.6366367475947
69,730.6482556784975
70,730.6601850802385
71,730.6723633812082
72,730.6847278938467
73,730.697215417575
74,730.7097628278234
75,730.7223076461452
76,730.7347885890424
77,730.7471460951144
78,730.7593228304908
79,730.7712641713673
80,730.7829186609226
81,730.7942384370436
82,730.805179627444
83,730.8157027095388
84,730.8257728331664
85,730.8353601045739
86,730.8444398301665
87,730.8529927184697
88,730.8610050381542
89,730.8684687287733
90,730.8753814599464
91,730.88174663506
92,730.8875733370197
93,730.8928762153203
94,730.8976753152737
95,730.9019958517462
96,730.905867931321
97,730.9093262281676
98,730.9124096198
99,730.9151607895095
100,730.9176258027454
101,730.9198536647718
102,730.9218958660034
103,730.9238059197352
104,730.9256388957492
105,730.9274509533996
106,730.9292988788171
107,730.9312396314675
108,730.9333299045908
109,730.9356257024136
110,730.9381819353796
111,730.9410520335535
112,730.9442875779388
113,730.9479379496983
114,730.9520499980134
115,730.9566677280053
116,730.9618320101303
117,730.9675803115385
118,730.9739464486203
119,730.9809603593462
120,730.9886478946064
121,730.997030629081
122,731.0061256932956
123,731.0159456289256
124,731.026498269505
125,731.0377866488445
126,731.0498089393407
127,731.0625584214777
128,731.0760234844141
129,731.0901876564246
130,731.1050296637014
131,731.1205235165214
132,731.1366386225288
133,731.1533399275197
134,731.1705880847543
135,731.1883396546278
136,731.206547337128
137,731.2251602392427
138,731.244124178414
139,731.2633820221376
140,731.2828740634676
141,731.302538432
142,731.3223115388845
143,731.3421285522352
144,731.361923896649
145,731.3816317684189
146,731.4011866570739
147,731.4205238638733
148,731.4395800081219
149,731.458293512403
150,731.4766050584631
151,731.4944580070604
152,731.5117987773207
153,731.5285771831966
154,731.5447467260379
155,731.560264843159
156,731.5750931127437
157,731.5891974153487
158,731.6025480517833
159,731.6151198168475
160,731.6268920286855
161,731.63784851419
162,731.6479775513948
163,731.6572717698376
164,731.6657280097833
165,731.6733471414425
166,731.6801338458383
167,731.686096359428
168,731.6912461852105
169,731.6955977743706
170,731.6991681844097
171,731.7019767214155
172,731.70404457499
173,731.7053944541652
174,731.7060502316793
175,731.7060366029106
176,731.7053787650416
177,731.7041021214562
178,731.7022320153244
179,731.6997934945992
180,731.6968111087923
181,731.6933087367408
182,731.6893094445078
183,731.6848353732798
184,731.6799076578884
185,731.6745463766816
186,731.6687705328876
187,731.662598066869
188,731.6560458982498
189,731.6491299966887
190,731.6418654796713
191,731.6342667350116
192,731.6263475651356
193,731.6181213497628
194,731.6096012230546
195,731.6008002605967
196,731.5917316708588
197,731.5824089851749
198,731.5728462399504
199,731.56305814492
200,731.5530602317185
201,731.5428689774565
202,731.5325018982968
203,731.5219776086913
204,731.5113158433788
205,731.500537441274
206,731.4896642923261
207,731.4787192499748
208,731.467726012999
209,731.4567089812573
210,731.4456930897691
211,731.4347036250961
212,731.4237660279018
213,731.4129056863982
214,731.402147726715
215,731.3915168073505
216,731.3810369252899
217,731.370731240809
218,731.3606219264738
219,731.3507300439336
220,731.3410754500765
221,731.3316767317098
222,731.3225511652581
223,731.3137146960884
224,731.305181932029
225,731.2969661470574
226,731.2890792922128
227,731.2815320101718
228,731.2743336480665
229,731.2674922617471
230,731.2610146049868
231,731.2549060990684
232,731.24917078106
233,731.2438112321317
234,731.2388284897801
235,731.234221949361
236,731.2299892610808
237,731.2261262293034
238,731.2226267222177
239,731.2194826010984
240,731.216683678629
241,731.2142177144027
242,731.2120704528362
243,731.210225705061
244,731.2086654731406
245,731.2073701130869
246,731.2063185323814
247,731.2054884170848
248,731.2048564825161
249,731.2043987400218
250,731.2040907710981
251,731.2039079997073
252,731.2038259543455
253,731.2038205130197
254,731.2038681263937
255,731.2039460168
256,731.204032353398
257,731.2041064059092
258,731.2041486805768
259,731.2041410422187
260,731.2040668257179
261,731.2039109391578
262,731.2036599591378
263,731.2033022168744
264,731.20282787199
265,731.2022289698963
266,731.2014994785972
267,731.2006353014508
268,731.1996342636357
269,731.1984960715747
270,731.1972222463147
271,731.1958160336989
272,731.1942822955599
273,731.1926273863822
274,731.1908590186258
275,731.188986117861
276,731.1870186672134
277,731.1849675400953
278,731.1828443208528
279,731.180661114484
280,731.1784303483468
281,731.176164569726
282,731.1738762425317
283,731.1715775445293
284,731.1692801644735
285,731.1669950974228
286,731.1647324367922
287,731.1625011629727
288,731.160308929788
289,731.1581618510334
290,731.1560642896253
291,731.1540186515928
292,731.1520251866422
293,731.1500817968448
294,731.1481838555541
295,731.146324039877
296,731.1444921812108
297,731.1426751386979
298,731.140856699882
299,731.1390175122065
300,731.1371350490112
301,731.1351836140967
302,731.1331343887182
303,731.1309555235931
304,731.1286122767156
305,731.1260671963468
306,731.1232803476515
307,731.1202095805978
308,731.1168108355038
309,731.113038481165
310,731.1088456793889
311,731.104184769407
312,731.0990076658823
313,731.0932662646395
314,731.0869128507893
315,731.0799005051033
316,731.0721835063471
317,731.0637177288598
318,731.0544610350769
319,731.044373662025
320,731.033418599872
321,731.0215619600408
322,731.0087733302433
323,730.9950261135134
324,730.9802978473261
325,730.964570497376
326,730.9478307195151
327,730.9300700834456
328,730.9112852529142
329,730.891478118877
330,730.8706558840361
331,730.8488310991164
332,730.8260216531869
333,730.8022507220362
334,730.7775466796716
335,730.7519429781848
336,730.7254780007357
337,730.6981948916034
338,730.6701413662105
339,730.6413695026389
340,730.6119355145748
341,730.5818995041332
342,730.5513251917213
343,730.5202796191892
344,730.4888328224217
345,730.4570574704866
346,730.4250284699856
347,730.3928225347472
348,730.3605177223952
349,730.3281929410239
350,730.29592743151
351,730.2638002336438
352,730.2318896464034
353,730.2002726934302
354,730.1690246039465
355,730.1382183177207
356,730.1079240211258
357,730.0782087200441
358,730.0491358539462
359,730.0207649537773
360,729.9931513448751
361,729.9663458956483
362,729.9403948132043
363,729.9153394880198
364,729.8912163906174
365,729.8680570237404
366,729.8458879335094
367,729.8247307823225
368,729.8046024847399
369,729.7855154056115
370,729.7674776180414
371,729.7504932180567
372,729.7345626928691
373,729.7196833395965
374,729.7058497304838
375,729.6930542189776
376,729.681287479048
377,729.6705390685764
378,729.6607980065394
379,729.6520533526782
380,729.644294777261
381,729.6375131081378
382,729.6317008433147
383,729.6268526193911
384,729.6229656284368
385,729.6200399778787
386,729.6180789899381
387,729.6170894389561
388,729.6170817260871
389,729.6180699911995
390,729.6200721617898
391,729.6231099386987
392,729.62720871858
393,729.6323974535994
394,729.638708450128
395,729.6461771105077
396,729.6548416247325
397,729.6647426209327
398,729.6759227839636
399,729.6884264503036
400,729.702299185779
401,729.7175873512701
402,729.7343376607317
403,729.7525967352608
404,729.7724106560976
405,729.7938245183734
406,729.8168819866451
407,729.8416248531234
408,729.8680925998277
409,729.8963219663863
410,729.9263465257878
411,729.9581962708965
412,729.9918972145415
413,730.0274710052528
414,730.064934559761
415,730.1042997131485
416,730.1455728883024
417,730.1887547874272
418,730.2338401089107
419,730.2808172924746
420,730.3296682947781
421,730.3803683973327
422,730.4328860492587
423,730.4871827487104
424,730.5432129677783
425,730.6009241258832
426,730.6602566164416
427,730.7211438913446
428,730.7835126073608
429,730.8472828372819
430,730.912368346047
431,730.9786769286078
432,731.046110802869
433,731.1145670484045
434,731.1839380800945
435,731.2541121453364
436,731.3249738341187
437,731.3964045929496
438,731.4682832358561
439,731.540486447545
440,731.6128892749011
441,731.6853656037581
442,731.7577886191602
443,731.8300312495334
444,731.9019665978848
445,731.9734683654427
446,732.0444112740156
447,732.1146714920291
448,732.1841270657634
449,732.2526583530454
450,732.3201484534507
451,732.3864836278875
452,732.4515537007156
453,732.515252438436
454,732.5774779003384
455,732.6381327583176
456,732.6971245846893
457,732.7543661076053
458,732.8097754338693
459,732.8632762393864
460,732.9147979285882
461,732.964275765542
462,733.0116509802083
463,733.0568708528733
464,733.0998887786063
465,733.1406643125877
466,733.1791631967268
467,733.2153573679979
468,733.2492249493215
469,733.280750224442
470,733.3099235985612
471,733.3367415461748
472,733.3612065467283
473,733.3833270075622
474,733.4031171726916
475,733.4205970161237
476,733.4357921199756
477,733.4487335397274
478,733.4594576601554
479,733.4680060451446
480,733.4744252831055
481,733.4787668280176
482,733.481086834429
483,733.481445982853
484,733.4799092903459
485,733.4765459006585
486,733.4714288495576
487,733.4646348029754
488,733.4562437676047
489,733.4463387749979
490,733.4350055411115
491,733.4223321036609
492,733.4084084398474
493,733.3933260673434
494,733.3771776319533
495,733.3600564859238
496,733.3420562613506
497,733.3232704436049
498,733.3037919502074
499,733.2837127208664
500,733.2631233240263
501,733.2421125840771
502,733.2207672317805
503,733.1991715792019
504,733.1774072200509
505,733.1555527568676
506,733.1336835574332
507,733.1118715431894
508,733.0901850115757
509,733.0686884922198
510,733.0474426347993
511,733.026504124988
512,733.0059256242935
513,732.9857557292154
514,732.9660389446154
515,732.9468156657642
516,732.9281221640022
517,732.9099905725787
518,732.8924488712912
519,732.8755208699508
520,732.8592261909967
521,732.8435802511631
522,732.8285942417714
523,732.8142751075053
524,732.8006255243552
525,732.7876438783906
526,732.7753242479125
527,732.7636563921791
528,732.7526257500017
529,732.7422134510701
530,732.7323963424043
531,732.7231470323252
532,732.7144339546306
533,732.7062214555721
534,732.6984699052564
535,732.6911358335506
536,732.6841720894145
537,732.6775280223794
538,732.6711496851505
539,732.6649800561299
540,732.6589592797443
541,732.6530249214404
542,732.6471122341262
543,732.6411544340106
544,732.6350829856111
545,732.628827897337
546,732.6223180301378
547,732.6154814220733
548,732.6082456311713
549,732.6005380976727
550,732.5922865251711
551,732.583419278844
552,732.5738657984652
553,732.5635570241388
554,732.5524258331169
555,732.5404074858881
556,732.5274400787011
557,732.5134649983347
558,732.4984273739896
559,732.4822765208476
560,732.4649663696592
561,732.4464558762737
562,732.4267094043707
563,732.4056970741289
564,732.3833950693319
565,732.3597858955471
566,732.3348585826949
567,732.3086088266746
568,732.2810390665618
569,732.2521584958943
570,732.2219830084216
571,732.1905350801036
572,732.1578435898703
573,732.1239435819243
574,732.088875972829
575,732.0526872076703
576,732.0154288709052
577,731.9771572583837
578,731.9379329169112
579,731.8978201567319
580,731.8568865414284
581,731.8152023597779
582,731.7728400847728
583,731.7298738254939
584,731.6863787776781
585,731.6424306790572
586,731.5981052759744
587,731.5534778081135
588,731.5086225179978
589,731.4636121911806
590,731.4185177320945
591,731.3734077797263
592,731.3283483666007
593,731.2834026237739
594,731.2386305334828
595,731.1940887296226
596,731.1498303443869
597,731.1059048977081
598,731.0623582252223
599,731.0192324406167
600,730.9765659291736
601,730.9343933705314
602,730.8927457895888
603,730.8516506347956
604,730.8111318829697
605,730.7712101698364
606,730.731902946108
607,730.693224659689
608,730.6551869647132
609,730.6177989572063
610,730.581067435585
611,730.5449971827333
612,730.5095912657638
613,730.4748513497657
614,730.44077802219
615,730.4073711243423
616,730.3746300853521
617,730.3425542520406
618,730.3111432060227
619,730.2803970584275
620,730.2503167135517
621,730.2209040951935
622,730.1921623322744
623,730.1640959027478
624,730.1367107362648
625,730.1100142767392
626,730.0840155062905
627,730.0587249323935
628,730.0341545403298
629,730.0103177128723
630,729.9872291183266
631,729.9649045670243
632,729.9433608360094
633,729.9226154624781
634,729.9026865082851
635,729.8835923000594
636,729.8653511517463
637,729.84798107818
638,729.8314995090226
639,729.8159230119953
640,729.801267033087
641,729.7875456595743
642,729.7747714092642
643,729.7629550465995
644,729.7521054240098
645,729.7422293461291
646,729.7333314555044
647,729.7254141402667
648,729.7184774656434
649,729.7125191315079
650,729.7075344576016
651,729.703516396998
652,729.7004555768245
653,729.6983403631901
654,729.6971569450739
655,729.6968894302867
656,729.69751994588
657,729.6990287355169
658,729.7013942470797
659,729.7045932048927
660,729.7086006624609
661,729.7133900339636
662,729.7189331057583
663,729.7252000317621
664,729.7321593177484
665,729.739777799423
666,729.7480206184752
667,729.7568512001696
668,729.7662312357505
669,729.7761206733034
670,729.78647772172
671,729.7972588731811
672,729.8084189491447
673,729.8199111730588
674,729.8316872707132
675,729.8436975972941
676,729.8558912892279
677,729.86821643854
678,729.8806202871987
679,729.8930494385963
680,729.9054500830981
681,729.9177682346103
682,729.9299499753745
683,729.9419417068176
684,729.9536904053351
685,729.9651438829412
686,729.9762510530076
687,729.9869622003538
688,729.9972292530389
689,730.0070060512822
690,730.0162486078825
691,730.0249153545163
692,730.0329673687564
693,730.0403685768171
694,730.0470859269658
695,730.0530895289085
696,730.0583527555798
697,730.0628523052688
698,730.0665682234496
699,730.069483885118
700,730.0715859399995
701,730.0728642244527
702,730.0733116449957
703,730.0729240391875
704,730.0717000200729
705,730.0696408101571
706,730.0667500697111
707,730.0630337226024
708,730.0584997815992
709,730.0531581748072
710,730.0470205756427
711,730.0401002400648
712,730.0324118559932
713,730.0239714105236
714,730.0147960807761
715,730.0049041540377
716,729.9943149820358
717,729.9830489725052
718,729.9711276188968
719,729.9585735668295
720,729.9454107142667
721,729.9316643413418
722,729.9173612649406
723,729.9025300125367
724,729.8872010093634
725,729.8714067726183
726,729.8551821059948
727,729.8385642877
728,729.8215932455507
729,729.8043117134671
730,729.7867653641285
731,729.7690029126604
732,729.751076186589
733,729.7330401584287
734,729.7149529388738
735,729.6968757299855
736,729.6788727386325
737,729.6610110509358
738,729.6433604689838
739,729.62599331164
740,729.6089841814539
741,729.5924096991957
742,729.5763482067297
743,729.5608794385976
744,729.546084163079
745,729.5320437942331
746,729.5188399770218
747,729.5065541478681
748,729.4952670728503
749,729.4850583651349
750,729.4760059826273
751,729.4681857067295
752,729.4616706037491
753,729.4565304717661
754,729.4528312774827
755,729.4506345896438
756,729.4499970177172
757,729.4509696659369
758,729.4535976127489
759,729.4579194240227
760,729.4639667059096
761,729.4717637011631
762,729.481326931775
763,729.4926648908908
764,729.5057777876033
765,729.5206573487987
766,729.5372866825226
767,729.5556402074209
768,729.5756836527113
769,729.5973741327042
770,729.6206602990001
771,729.6454825720701
772,729.6717734520234
773,729.699457906199
774,729.7284538292088
775,729.7586725695832
776,729.7900195163425
777,729.8223947385239
778,729.8556936708819
779,729.8898078394305
780,729.9246256207712
781,729.9600330290219
782,729.9959145238029
783,730.0321538322556
784,730.0686347774936
785,730.1052421052997
786,730.1418623006418
787,730.1783843858996
788,730.2147006934408
789,730.2507076057303
790,730.286306255845
791,730.3214031802561
792,730.3559109151468
793,730.3897485284047
794,730.4228420815007
795,730.4551250176153
796,730.4865384739195
797,730.517031516908
798,730.5465613002914
799,730.5750931453342
800,730.6026005440676
801,730.6290650868675
802,730.654476317324
803,730.6788315187281
804,730.7021354376702
805,730.7243999511119
806,730.7456436838013
807,730.7658915829751
808,730.7851744570751
809,730.8035284851037
810,730.8209947033462
811,730.8376184760818
812,730.8534489562832
813,730.8685385413376
814,730.8829423278103
815,730.896717568304
816,730.9099231327434
817,730.922618976169
818,730.9348656152036
819,730.9467236150126
820,730.958253087144
821,730.9695131964323
822,730.980561673533
823,730.991454329864
824,731.0022445738786
825,731.0129829308254
826,731.0237165713914
827,731.0344888569421
828,731.0453389101053
829,731.0563012195026
830,731.0674052870388
831,731.0786753253429
832,731.09013001133
833,731.1017822993156
834,731.1136392941863
835,731.1257021825743
836,731.1379662182532
837,731.1504207570316
838,731.1630493362974
839,731.17582979522
840,731.1887344331129
841,731.2017302044967
842,731.2147789491211
843,731.227837653876
844,731.2408587422209
845,731.2537903862697
846,731.2665768369442
847,731.2791587681755
848,731.2914736315809
849,731.3034560183763
850,731.31503802581
851,731.3261496264739
852,731.3367190404796
853,731.3466731121706
854,731.3559376940357
855,731.3644380403307
856,731.3720992117472
857,731.3788464908408
858,731.3846058063677
859,731.3893041634593
860,731.3928700757908
861,731.3952339955598
862,731.3963287371437
863,731.3960898907334
864,731.3944562228907
865,731.3913700614994
866,731.386777662817
867,731.3806295585439
868,731.3728808811301
869,731.3634916656152
870,731.3524271260395
871,731.3396579043625
872,731.3251602903616
873,731.3089164121578
874,731.2909143984824
875,731.2711485150664
876,731.2496192782455
877,731.2263335487609
878,731.2013046077316
879,731.1745522152291
880,731.14610265057
881,731.1159887328444
882,731.0842498201755
883,731.0509317862867
884,731.0160869728902
885,730.9797741162771
886,730.9420582463505
887,730.9030105561308
888,730.8627082393989
889,730.821234293806
890,730.7786772867883
891,730.7351310821336
892,730.6906945259464
893,730.6454710917511
894,730.5995684855013
895,730.5530982126994
896,730.5061751121576
897,730.4589168635375
898,730.4114434772628
899,730.3638767747768
900,730.3163398646687
901,730.268956616839
902,730.221851133685
903,730.1751472152664
904,730.1289678150462
905,730.0834344837488
906,730.0386668002757
907,729.9947817899357
908,729.9518933315213
909,729.9101115563063
910,729.8695422439723
911,729.830286222461
912,729.7924387802315
913,729.7560890999677
914,729.7213197223397
915,729.6882060470862
916,729.6568158769902
917,729.6272090091536
918,729.5994368778667
