frame_number,force
0,545.1492064196475
1,545.1876752668935
2,545.22494630386
3,545.2609737585923
4,545.2957144895737
5,545.3291282814237
6,545.3611781412932
7,545.3918305939947
8,545.4210559741974
9,545.4488287141572
10,545.475127625488
11,545.4999361738899
12,545.5232427462968
13,545.545040909556
14,545.5653296578176
15,545.5841136428684
16,545.6014033790548
17,545.6172154133639
18,545.6315724519765
19,545.6445034366387
20,545.6560435664692
21,545.666234262537
22,545.6751230736957
23,545.6827635232574
24,545.6892148974333
25,545.6945419777364
26,545.6988147202991
27,545.702107885389
28,545.7045006211272
29,545.7060760069879
30,545.7069205644987
31,545.707123743606
32,545.7067773931387
33,545.705975223244
34,545.7048122670211
35,545.7033843476817
36,545.7017875561023
37,545.7001177418082
38,545.6984700187897
39,545.6969382865307
40,545.6956147660549
41,545.6945895503042
42,545.6939501676907
43,545.6937811575999
44,545.6941636571023
45,545.6951749987592
46,545.6968883199343
47,545.6993721847148
48,545.7026902206359
49,545.7069007737106
50,545.7120565864998
51,545.7182045048205
52,545.725385218765
53,545.7336330428219
54,545.7429757385652
55,545.7534343824017
56,545.7650232804509
57,545.7777499322392
58,545.7916150440133
59,545.8066125912611
60,545.8227299288766
61,545.8399479462807
62,545.8582412632967
63,545.8775784607379
64,545.8979223384649
65,545.9192301939953
66,545.9414541163787
67,545.9645412917685
68,545.9884343181152
69,546.0130715268394
70,546.0383873097416
71,546.0643124499611
72,546.0907744565026
73,546.1176979027725
74,546.1450047706188
75,546.1726148022801
76,546.2004458632654
77,546.2284143192467
78,546.2564354293264
79,546.2844237566592
80,546.3122935960313
81,546.3399594173226
82,546.3673363239998
83,546.3943405264748
84,546.4208898304884
85,546.4469041399294
86,546.4723059715819
87,546.4970209769413
88,546.5209784643926
89,546.5441119140493
90,546.5663594771239
91,546.587664451559
92,546.6079757257252
93,546.6272481822505
94,546.6454430545333
95,546.6625282295369
96,546.6784784921853
97,546.6932757085176
98,546.706908946059
99,546.719374530716
100,546.7306760401611
101,546.7408242340388
102,546.7498369213392
103,546.7577387653981
104,546.7645610277291
105,546.7703412534491
106,546.7751229029712
107,546.7789549360572
108,546.7818913545691
109,546.7839907097116
110,546.7853155793673
111,546.7859320219208
112,546.7859090140917
113,546.785317880539
114,546.7842317216922
115,546.7827248438408
116,546.7808721931311
117,546.7787487940144
118,546.77642919342
119,546.7739869138894
120,546.7714939207194
121,546.7690201088003
122,546.7666328143832
123,546.7643963560556
124,546.7623716082196
125,546.760615609675
126,546.7591812095513
127,546.7581167523049
128,546.7574658022369
129,546.7572669062336
130,546.7575533919697
131,546.7583531980615
132,546.7596887325292
133,546.7615767564254
134,546.7640282907911
135,546.7670485470056
136,546.7706368823513
137,546.7747867836908
138,546.7794858826447
139,546.7847160058449
140,546.7904532637998
141,546.7966681814672
142,546.8033258727143
143,546.8103862597033
144,546.8178043373268
145,546.825530482368
146,546.8335108070507
147,546.8416875569018
148,546.8499995529913
149,546.8583826782856
150,546.8667704071095
151,546.8750943760072
152,546.8832849934702
153,546.891272084276
154,546.898985561263
155,546.9063561144179
156,546.9133159057222
157,546.9197992584343
158,546.9257433302312
159,546.9310887599332
160,546.935780277401
161,546.9397672660823
162,546.9430042678605
163,546.9454514203646
164,546.947074817798
165,546.9478467877307
166,546.9477460782747
167,546.9467579527495
168,546.9448741924411
169,546.9420930118622
170,546.9384188937204
171,546.9338623515281
172,546.9284396267365
173,546.9221723258021
174,546.9150870018514
175,546.9072146857906
176,546.8985903724717
177,546.889252468658
178,546.8792422110373
179,546.8686030640886
180,546.857380108481
181,546.8456194304509
182,546.8333675215395
183,546.8206706967139
184,546.8075745371658
185,546.794123361755
186,546.7803597287523
187,546.7663239683104
188,546.7520537463213
189,546.7375836612788
190,546.7229448766669
191,546.708164791846
192,546.6932667544884
193,546.6782698176357
194,546.6631885447558
195,546.6480328668114
196,546.6328079958562
197,546.6175143993461
198,546.6021478379597
199,546.5866994678528
200,546.5711560068111
201,546.5554999630525
202,546.5397099250616
203,546.5237609102024
204,546.5076247686535
205,546.4912706375659
206,546.474665438423
207,546.457774408539
208,546.4405616559853
209,546.4229907266152
210,546.405025172382
211,546.3866291113798
212,546.3677677715339
213,546.348408011342
214,546.3285188121095
215,546.3080717364318
216,546.2870413474469
217,546.2654055832486
218,546.2431460815422
219,546.2202484513947
220,546.1967024912663
221,546.1725023544957
222,546.1476466644559
223,546.1221385818113
224,546.095985826164
225,546.0692006543013
226,546.0417997973743
227,546.0138043596568
228,545.985239682038
229,545.9561351738262
230,545.926524116382
231,545.8964434415166
232,545.8659334869833
233,545.8350377314231
234,545.8038025120503
235,545.7722767297065
236,545.7405115466821
237,545.7085600822666
238,545.6764771096643
239,545.6443187565295
240,545.6121422104047
241,545.580005429734
242,545.5479668606031
243,545.5160851588228
244,545.4844189165096
245,545.4530263922496
246,545.4219652443513
247,545.391292267193
248,545.3610631306426
249,545.331332121939
250,545.3021518889335
251,545.2735731839377
252,545.2456446085318
253,545.2184123609994
254,545.191919989268
255,545.1662081533891
256,545.1413144025382
257,545.1172729718148
258,545.094114603384
259,545.0718663948177
260,545.0505516755019
261,545.0301899103182
262,545.0107966287884
263,544.9923833775052
264,544.9749576937471
265,544.9585230983623
266,544.9430791060843
267,544.9286212513804
268,544.915141127895
269,544.9026264398424
270,544.8910610644898
271,544.8804251256381
272,544.8706950782026
273,544.861843804028
274,544.8538407198757
275,544.8466519000496
276,544.8402402170839
277,544.8345655034476
278,544.8295847360142
279,544.8252522444108
280,544.821519944634
281,544.8183375999189
282,544.8156531109588
283,544.8134128366246
284,544.8115619442764
285,544.8100447864314
286,544.8088052990765
287,544.8077874165635
288,544.806935498016
289,544.8061947598547
290,544.8055117087612
291,544.8048345699032
292,544.8041137065632
293,544.8033020285917
294,544.8023553875561
295,544.8012329557529
296,544.7998975846164
297,544.7983161361221
298,544.7964597792808
299,544.7943042430541
300,544.791830017165
301,544.7890224935902
302,544.785872044063
303,544.7823740320647
304,544.7785287605432
305,544.774341358461
306,544.7698216104757
307,544.7649837350765
308,544.7598461173651
309,544.7544310029919
310,544.7487641594794
311,544.7428745108159
312,544.736793751351
313,544.7305559455243
314,544.724197120243
315,544.7177548564462
316,544.7112678856117
317,544.7047756959519
318,544.6983181520084
319,544.6919351303254
320,544.6856661728763
321,544.679550159162
322,544.6736249976246
323,544.6679273373306
324,544.662492301704
325,544.6573532471676
326,544.6525415503452
327,544.6480864272739
328,544.6440147866997
329,544.6403511176874
330,544.6371174102654
331,544.6343331066537
332,544.6320150795773
333,544.6301776332782
334,544.6288325222058
335,544.6279889820037
336,544.6276537674603
337,544.6278311927042
338,544.6285231701172
339,544.6297292459299
340,544.6314466317165
341,544.6336702316801
342,544.6363926658702
343,544.6396042897876
344,544.6432932115545
345,544.6474453088672
346,544.6520442488842
347,544.657071514663
348,544.6625064417252
349,544.6683262679113
350,544.6745061989552
351,544.6810194913098
352,544.6878375530214
353,544.6949300631258
354,544.7022651101414
355,544.7098093507554
356,544.7175281906352
357,544.7253859898929
358,544.7333462952853
359,544.7413720995711
360,544.749426126351
361,544.7574711372055
362,544.7654702572383
363,544.7733873146066
364,544.7811871886121
365,544.7888361596089
366,544.7963022529727
367,544.8035555688995
368,544.8105685896331
369,544.8173164561047
370,544.8237772075754
371,544.8299319809711
372,544.8357651703066
373,544.8412645494107
374,544.8464213621269
375,544.8512303836551
376,544.8556899556687
377,544.8598019968069
378,544.8635719891893
379,544.8670089408275
380,544.870125323538
381,544.8729369863895
382,544.8754630458233
383,544.8777257551086
384,544.8797503574159
385,544.8815649280159
386,544.8832002114136
387,544.8846894584274
388,544.8860682667763
389,544.8873744274503
390,544.8886477783234
391,544.8899300657896
392,544.8912648142169
393,544.8926972016955
394,544.8942739389945
395,544.8960431469391
396,544.8980542258936
397,544.900357710369
398,544.903005102468
399,544.9060486798033
400,544.9095412758383
401,544.9135360324603
402,544.9180861259126
403,544.9232444685615
404,544.9290633908197
405,544.935594309403
406,544.9428873888579
407,544.950991202269
408,544.9599523949207
409,544.9698153529937
410,544.9806218790512
411,544.992410876585
412,545.0052180460839
413,545.0190755945131
414,545.03401195921
415,545.0500515464511
416,545.0672144844601
417,545.0855163905898
418,545.1049681531209
419,545.1255757296194
420,545.1473399654703
421,545.1702564370954
422,545.1943153239017
423,545.2195013116594
424,545.2457935286428
425,545.2731655150765
426,545.3015852260646
427,545.3310150676535
428,545.361411964777
429,545.3927274592263
430,545.4249078361281
431,545.4578942784859
432,545.4916230505394
433,545.5260257116475
434,545.5610293630286
435,545.5965569298024
436,545.6325274803869
437,545.6688565848235
438,545.7054567134285
439,545.7422376769752
440,545.7791071086039
441,545.8159709853923
442,545.8527341845777
443,545.8893010670388
444,545.9255760795811
445,545.9614643674219
446,545.9968723881082
447,546.0317085177008
448,546.0658836399741
449,546.099311710102
450,546.1319102855766
451,546.1636010183107
452,546.1943101027491
453,546.2239686757905
454,546.2525131658829
455,546.2798855905207
456,546.3060338027854
457,546.3309116882333
458,546.3544793137607
459,546.376703030707
460,546.3975555356658
461,546.4170158938589
462,546.4350695308756
463,546.4517081986583
464,546.4669299207063
465,546.4807389199112
466,546.4931455307719
467,546.504166096111
468,546.513822846613
469,546.5221437598753
470,546.5291623949727
471,546.5349176990625
472,546.5394537837956
473,546.5428196705911
474,546.5450690048707
475,546.5462597400326
476,546.5464537922117
477,546.5457166666844
478,546.5441170564043
479,546.5417264130525
480,546.5386184916213
481,546.5348688708743
482,546.5305544534787
483,546.5257529506702
484,546.520542357102
485,546.5150004223934
486,546.50920412694
487,546.5032291704428
488,546.4971494818806
489,546.4910367590825
490,546.4849600448837
491,546.4789853452164
492,546.4731752920372
493,546.4675888505334
494,546.462281066496
495,546.4573028474583
496,546.452700770551
497,546.4485169103014
498,546.4447886801776
499,546.4415486826377
500,546.4388245640628
501,546.4366388730303
502,546.4350089224228
503,546.4339466575341
504,546.4334585337541
505,546.4335454087222
506,546.4342024550382
507,546.4354191005967
508,546.4371790042599
509,546.4394600746324
510,546.4422345389314
511,546.4454690675193
512,546.4491249579293
513,546.4531583803007
514,546.4575206842007
515,546.4621587650573
516,546.4670154868965
517,546.472030156682
518,546.4771390444758
519,546.4822759431909
520,546.4873727617844
521,546.4923601457331
522,546.4971681179669
523,546.50172673212
524,546.5059667285714
525,546.5098201830602
526,546.5132211380056
527,546.516106207802
528,546.5184151509602
529,546.520091403784
530,546.5210825718483
531,546.5213408762287
532,546.5208235510503
533,546.5194931880771
534,546.5173180235032
535,546.5142721619902
536,546.5103357331822
537,546.5054949765304
538,546.4997422515498
539,546.4930759725097
540,546.4855004686763
541,546.4770257734128
542,546.467667347771
543,546.4574457466671
544,546.4463862379963
545,546.4345183866006
546,546.4218756154524
547,546.4084947558053
548,546.3944155969647
549,546.3796804450938
550,546.3643336989793
551,546.3484214488961
552,546.3319911028337
553,546.3150910425725
554,546.2977703107146
555,546.2800783289937
556,546.2620646477335
557,546.2437787255658
558,546.2252697371352
559,546.2065864047744
560,546.1877768487531
561,546.168888450384
562,546.1499677230563
563,546.1310601874172
564,546.1122102476139
565,546.0934610656648
566,546.0748544311825
567,546.056430624319
568,546.0382282709857
569,546.0202841908442
570,546.002633239967
571,545.9853081512957
572,545.968339377027
573,545.951754937825
574,545.9355802841401
575,545.9198381744494
576,545.9045485737362
577,545.8897285734632
578,545.8753923323625
579,545.8615510360772
580,545.8482128735357
581,545.8353830291453
582,545.8230636918928
583,545.8112540840073
584,545.7999505122584
585,545.789146444563
586,545.7788326142336
587,545.768997154409
588,545.7596257656248
589,545.7507019193598
590,545.7422070993525
591,545.7341210806975
592,545.7264222447022
593,545.719087925793
594,545.712094785773
595,545.7054192101867
596,545.6990377207911
597,545.6929273969387
598,545.6870662972032
599,545.6814338710129
600,545.6760113486093
601,545.6707820970076
602,545.665731930687
603,545.6608493683976
604,545.6561258304495
605,545.6515557729612
606,545.6471367568442
607,545.6428694502861
608,545.638757564201
609,545.6348077204652
610,545.6310292531231
611,545.627433943799
612,545.6240356945186
613,545.6208501436216
614,545.6178942326651
615,545.6151857337314
616,545.6127427475615
617,545.6105831837507
618,545.608724234781
619,545.60718185554
620,545.6059702591136
621,545.6051014383316
622,545.6045847211803
623,545.604426366972
624,545.6046292090837
625,545.605192349074
626,545.6061109061803
627,545.6073758257226
628,545.6089737494515
629,545.6108869499304
630,545.6130933296431
631,545.615566484005
632,545.618275825934
633,545.6211867682968
634,545.6242609599021
635,545.6274565710589
636,545.6307286254912
637,545.6340293756131
638,545.6373087173224
639,545.6405146389988
640,545.6435936982864
641,545.6464915201956
642,545.6491533106432
643,545.6515243795717
644,545.6535506665092
645,545.6551792594157
646,545.6563588959542
647,545.6570404357585
648,545.6571772933348
649,545.6567258240135
650,545.6556456590362
651,545.653899989061
652,545.6514557972603
653,545.6482840437769
654,545.6443598030135
655,545.6396623547508
656,545.6341752301563
657,545.6278862145156
658,545.6207873095476
659,545.6128746589399
660,545.6041484412284
661,545.5946127346959
662,545.5842753597532
663,545.5731477049557
664,545.5612445429934
665,545.54858384278
666,545.5351865834491
667,545.5210765755148
668,545.5062802932822
669,545.4908267206239
670,545.4747472098652
671,545.4580753515128
672,545.4408468513006
673,545.423099410317
674,545.4048726036108
675,545.3862077527433
676,545.3671477882399
677,545.3477370987076
678,545.3280213644745
679,545.3080473747486
680,545.2878628279727
681,545.2675161149459
682,545.2470560839354
683,545.2265317873806
684,545.2059922111417
685,545.1854859887619
686,545.1650611042368
687,545.1447645874648
688,545.1246422072999
689,545.1047381678532
690,545.0850948141988
691,545.0657523541655
692,545.0467486037551
693,545.0281187646835
694,545.0098952428391
695,544.9921075154164
696,544.974782051954
697,544.9579422908885
698,544.9416086693948
699,544.9257987012248
700,544.9105270956533
701,544.8958059104597
702,544.8816447325588
703,544.8680508809446
704,544.8550296278022
705,544.8425844348543
706,544.8307172029035
707,544.819428532519
708,544.8087179925294
709,544.7985843910297
710,544.7890260421751
711,544.7800410215604
712,544.7716274029948
713,544.7637834696835
714,544.7565078935861
715,544.7497998784144
716,544.7436592640789
717,544.7380865926352
718,544.7330831372877
719,544.7286508968913
720,544.7247925592415
721,544.7215114373869
722,544.7188113835592
723,544.7166966844798
724,544.7151719400798
725,544.7142419261227
726,544.7139114406517
727,544.7141851345177
728,544.7150673268804
729,544.7165618072697
730,544.7186716265917
731,544.7213988803313
732,544.7247444878826
733,544.7287079723386
734,544.7332872455669
735,544.7384784042083
736,544.7442755429206
737,544.7506705911253
738,544.7576531787034
739,544.7652105348656
740,544.7733274228656
741,544.7819861112015
742,544.7911663796094
743,544.8008455562965
744,544.8109985823783
745,544.8215981005419
746,544.8326145667859
747,544.8440163855928
748,544.8557700693182
749,544.8678404218452
750,544.8801907452911
751,544.892783067479
752,544.9055783874447
753,544.9185369364949
754,544.9316184529766
755,544.9447824694262
756,544.9579886107425
757,544.9711969016066
758,544.9843680809604
759,544.9974639211845
760,545.0104475494984
761,545.0232837689977
762,545.0359393768775
763,545.0483834776446
764,545.060587788891
765,545.0725269362106
766,545.0841787325742
767,545.0955244365734
768,545.1065489835734
769,545.1172411839144
770,545.1275938827571
771,545.1376040767718
772,545.1472729835633
773,545.1566060604624
774,545.1656129698795
775,545.174307488701
776,545.1827073597751
777,545.1908340849051
778,545.1987126607812
779,545.2063712615115
780,545.2138408735901
781,545.2211548909067
782,545.2283486782522
783,545.2354591116267
784,545.2425241029896
785,545.2495821164404
786,545.2566716823
787,545.2638309150234
788,545.2710970402611
789,545.2785059359164
790,545.2860916919719
791,545.2938861941458
792,545.3019187367796
793,545.3102156704846
794,545.3188000898741
795,545.327691566131
796,545.3369059281824
797,545.3464550950428
798,545.3563469605698
799,545.36658533061
800,545.3771699114219
801,545.3880963475007
802,545.3993563063824
803,545.4109376074897
804,545.4228243916059
805,545.4349973274033
806,545.4474338518341
807,545.4601084420146
808,545.4729929169051
809,545.4860567670997
810,545.4992675105825
811,545.5125910720668
812,545.5259921836279
813,545.5394348040367
814,545.5528825530339
815,545.5662991553996
816,545.5796488890323
817,545.5928970313415
818,545.606010298384
819,545.6189572709675
820,545.6317088016021
821,545.644238396109
822,545.6565225641378
823,545.6685411337772
824,545.6802775265342
825,545.6917189897861
826,545.7028567839637
827,545.7136863213627
828,545.7242072535959
829,545.7344235063489
830,545.7443432629726
831,545.7539789008874
832,545.763346885572
833,545.7724676265708
834,545.7813652998311
835,545.7900676412353
836,545.7986057167816
837,545.8070136748469
838,545.815328485599
839,545.8235896723886
840,545.8318390398528
841,545.8401204033197
842,545.8484793238649
843,545.8569628529166
844,545.865619289389
845,545.8744979510285
846,545.8836489605695
847,545.8931230468372
848,545.9029713606723
849,545.913245304649
850,545.9239963738534
851,545.9352760031655
852,545.9471354153338
853,545.9596254638396
854,545.9727964648217
855,545.9866980126058
856,546.0013787734366
857,546.0168862522158
858,546.0332665280496
859,546.0505639564509
860,546.0688208386833
861,546.0880770612387
862,546.1083697102285
863,546.1297326664485
864,546.1521961873837
865,546.1757864828603
866,546.2005252915684
867,546.2264294662726
868,546.2535105760927
869,546.2817745345515
870,546.311221262022
871,546.3418443907784
872,546.3736310201571
873,546.4065615285709
874,546.4406094485344
875,546.4757414102836
876,546.5119171585974
877,546.5490896458224
878,546.5872052021282
879,546.6262037821207
880,546.6660192853184
881,546.7065799463488
882,546.7478087887541
883,546.7896241342777
884,546.831940157992
885,546.8746674788791
886,546.9177137756033
887,546.9609844185333
888,547.0043831115066
889,547.047812539501
890,547.0911750202384
891,547.1343731583236
892,547.1773104999795
893,547.2198921853638
894,547.2620255944069
895,547.3036209813831
896,547.3445920929464
897,547.3848567642282
898,547.4243374880846
899,547.4629619536075
900,547.5006635509503
901,547.5373818396773
902,547.5730629772282
903,547.6076601034346
904,547.6411336771073
905,547.6734517616361
906,547.7045902579047
907,547.7345330843091
908,547.7632723052038
909,547.7908082103609
910,547.8171493484642
911,547.8423125172654
912,547.8663227125724
913,547.8892130382088
914,547.9110245789896
915,547.9318062381167
916,547.9516145396318
917,547.9705133963911
