acceleration,velocity,displacement
-0.011091577120658384,0.0,0.0
-0.010400110074832407,-5.372921798872698e-06,-1.3432304497181747e-09
-0.009730173342357729,-1.0405492653170232e-05,-5.287834062728907e-09
-0.009082589661643686,-1.5108683404170585e-05,-1.1666378077064111e-08
-0.008458134489698177,-1.9493864442006052e-05,-2.031701503860827e-08
-0.00785753068702671,-2.3572780736187272e-05,-3.10836763331566e-08
-0.007281443190008955,-2.735752420544619e-05,-4.3816252568564964e-08
-0.006730473706019327,-3.086050342945326e-05,-5.837075947728983e-08
-0.006205155461292086,-3.409441072128111e-05,-7.460948801497342e-08
-0.005705948029062904,-3.707218659386986e-05,-9.240113734376116e-08
-0.005233232264797472,-3.980698166733495e-05,-1.1162092940906237e-07
-0.004787305368028615,-4.231211607554147e-05,-1.3215070384478147e-07
-0.004368376080455356,-4.460103643766246e-05,-1.5387899197308245e-07
-0.003976560036245202,-4.66872704668376e-05,-1.7670106869920746e-07
-0.003611875315273363,-4.858437930471724e-05,-2.0051898114209616e-07
-0.0032742383029447323,-5.030590770927177e-05,-2.2524155289559341e-07
-0.0029634600067440253,-5.1865332286693955e-05,-2.5078436289458487e-07
-0.00267924299908903,-5.327600803815222e-05,-2.770696979757964e-07
-0.0024211791425666593,-5.455111357356614e-05,-3.04026478378726e-07
-0.0021887482171777262,-5.570359541350224e-05,-3.3159015562549307e-07
-0.0019813175283587927,-5.674611184988637e-05,-3.5970258244134024e-07
-0.001798142543678455,-5.769097686789568e-05,-3.8831185462078575e-07
-0.001638368585455965,-5.855010465017929e-05,-4.1737212500030447e-07
-0.001501033586736396,-5.933495519322738e-05,-4.4684338996115614e-07
-0.001385071894035352,-6.005648156342032e-05,-4.7669124915031806e-07
-0.0012893190773076,-6.072507930625606e-05,-5.068866393677371e-07
-0.0012125176941396715,-6.135053849911788e-05,-5.374055438190806e-07
-0.0011533239490932263,-6.194199890992611e-05,-5.682286781713416e-07
-0.001110315176260158,-6.250790869126446e-05,-5.993411550716392e-07
-0.001081998044732916,-6.305598699651273e-05,-6.307321289935835e-07
-0.0010668173536339295,-6.359319084610444e-05,-6.623944234542378e-07
-0.0010631652645499644,-6.412568650065041e-05,-6.943241427909265e-07
-0.0010693908198118954,-6.465882552174087e-05,-7.265202707965244e-07
-0.0010838096050653002,-6.519712562796016e-05,-7.589842585839496e-07
-0.0011047134262456152,-6.574425638578788e-05,-7.917196040873866e-07
-0.0011303798872396805,-6.630302971415921e-05,-8.247314256123734e-07
-0.0011590817807253055,-6.687539513115045e-05,-8.580260318237008e-07
-0.001189096237609283,-6.746243963573411e-05,-8.916104905154219e-07
-0.001218713609832879,-6.806439209759464e-05,-9.254921984487541e-07
-0.0012462460797665479,-6.86806320199945e-05,-9.596784544781515e-07
-0.001270035999637146,-6.930970253984543e-05,-9.941760381181114e-07
-0.0012884639733671136,-6.994932753309649e-05,-1.0289907956363468e-06
-0.0012999567016017792,-7.059643270183871e-05,-1.0641272356950807e-06
-0.001302994611925006,-7.124717053022041e-05,-1.0995881365030954e-06
-0.001296119287607164,-7.189694900510345e-05,-1.1353741663869264e-06
-0.0012779406969330102,-7.25404640012385e-05,-1.1714835196385118e-06
-0.0012471442157202105,-7.31717352294018e-05,-1.207911569446172e-06
-0.001202497423186223,-7.37841456391284e-05,-1.2446505396633045e-06
-0.0011428566317262256,-7.437048415285651e-05,-1.2816891971113008e-06
-0.001067173087656472,-7.492299158270219e-05,-1.3190125660451905e-06
-0.0009744987578178448,-7.543340954407077e-05,-1.3566016663268837e-06
-0.0008639916014161264,-7.589303213387926e-05,-1.3944332767463713e-06
-0.0007349202251308766,-7.629276009051601e-05,-1.43247972480247e-06
-0.0005866678353822996,-7.66231571056443e-05,-1.47070870410151e-06
-0.00041873542544191623,-7.687450792085035e-05,-1.5090831203581338e-06
-0.00023074415264074305,-7.703687781537102e-05,-1.5475609667921891e-06
-2.2436868379244306e-05,-7.710017307062602e-05,-1.5860952295136883e-06
0.00020632122928416013,-7.705420198039978e-05,-1.6246338232764447e-06
0.00045554283494211314,-7.688873596434322e-05,-1.6631195577626305e-06
0.0007251196596331269,-7.659357034069941e-05,-1.701490134338891e-06
0.0010148244110201046,-7.61585843230361e-05,-1.7396781730048249e-06
0.001324313581654692,-7.557379982486739e-05,-1.7776112690418007e-06
0.0016531309697735079,-7.482943868701034e-05,-1.8152120786697701e-06
0.00200071182406176,-7.391597798855152e-05,-1.8523984328386605e-06
0.0023663874821485517,-7.282420316199895e-05,-1.8890834781262982e-06
0.002749390378550862,-7.15452586968241e-05,-1.925175843591004e-06
0.0031488593269928308,-7.007069627043818e-05,-1.9605798323328196e-06
0.003563845012971548,-6.839252018544709e-05,-1.995195636446791e-06
0.0039933156502945195,-6.650323001963058e-05,-2.0289195739980605e-06
0.004436162763050629,-6.439586041629429e-05,-2.061644346607042e-06
0.004891207061730818,-6.206401796009894e-05,-2.09325931620114e-06
0.005357204392131737,-5.95019150966333e-05,-2.123650799465323e-06
0.005832851748363678,-5.670440106150945e-05,-2.152702378504859e-06
0.006316793357965106,-5.366698978492725e-05,-2.180295226216468e-06
0.006807626865911859,-5.038588472895801e-05,-2.2063084448449396e-06
0.0073039096608164935,-4.685800059727592e-05,-2.230619416176498e-06
0.0078041653975846415,-4.308098183267564e-05,-2.253104161783986e-06
0.008306890771964209,-3.905321779028843e-05,-2.273637711689727e-06
0.008810562589414336,-3.477385444994379e-05,-2.292094479749785e-06
0.009313645145921277,-3.0242802516109887e-05,-2.3083486439912987e-06
0.009814597913625312,-2.546074175122324e-05,-2.322274530058132e-06
0.010311883511925248,-2.0429121394835597e-05,-2.3337469958446465e-06
0.01080397594877113,-1.5150156529661502e-05,-2.342641815325771e-06
0.01128936912915141,-9.626820260180866e-06,-2.3488360595232316e-06
0.011766585633653891,-3.862831569479541e-06,-2.3522084724806467e-06
0.012234185756511064,2.1373612780616975e-06,-2.352639840053501e-06
0.012690776758030008,8.368601906696965e-06,-2.3500133492573112e-06
0.013135022244100807,1.4825051657229668e-05,-2.3442149358663296e-06
0.013565651552211438,2.150022010630773e-05,-2.335133617925445e-06
0.013981469005528812,2.8387000245742792e-05,-2.3226618128374324e-06
0.014381362888952802,3.547770821936319e-05,-2.306695635721156e-06
0.014764313998452783,4.276412744121459e-05,-2.2871351768060118e-06
0.015129403616418513,5.0237556844932415e-05,-2.263884755734475e-06
0.015475820770385654,5.788886294163346e-05,-2.2368531507878336e-06
0.01580286864125466,6.570853529454354e-05,-2.2059538012287893e-06
0.01610997000594024,7.368674495634227e-05,-2.1711049811660676e-06
0.016396671630324988,8.181340536540858e-05,-2.13222994358563e-06
0.016662647561403426,9.007823516334069e-05,-2.089257033453443e-06
0.01690770129091888,9.847082237642127e-05,-2.0421197690685024e-06
0.01713176677804235,0.00010698068939366158,-1.990756891125982e-06
0.017334908330463857,0.00011559735817078812,-1.9351123792348696e-06
0.017517319349857206,0.0001243104150908684,-1.8751354359194555e-06
0.017679319947971187,0.00013310957491532549,-1.810780438417907e-06
0.017821353441541673,0.0001419847432627037,-1.7420068588733997e-06
0.01794398174775706,0.00015092607706002837,-1.6687791537927166e-06
0.01804787972986442,0.00015992404242943375,-1.5910666239203511e-06
0.018133828576942644,0.0001689694695061355,-1.5088432459364588e-06
0.018202708327367423,0.00017805360373221302,-1.4220874776268716e-06
0.018255489649894784,0.0001871681532265286,-1.3307820383871863e-06
0.018293224986470756,0.00019630533188561998,-1.234913667109149e-06
0.018317039157482576,0.0002054578979216083,-1.134472859657342e-06
0.01832811954438968,0.00021461918759707637,-1.0294535882776708e-06
0.01832770598493164,0.0002237831439794067,-9.1985300538355e-07
0.018317080520416095,0.00023294434060574365,-8.056711342372625e-07
0.0182975571111425,0.0002420980000136333,-6.869105490824182e-07
0.018270471392413695,0.00025124000713952233,-5.635760472941293e-07
0.01823717050078632,0.0002603669176128223,-4.356743161060431e-07
0.01819900298032586,0.00026947596098310036,-3.032135964570624e-07
0.0181573087917719,0.0002785650389261248,-1.6620334647975613e-07
0.01811340948277325,0.0002876327184947611,-2.4653907124534685e-08
0.018068598609926018,0.0002966782205179359,1.2142382762863958e-07
0.01802413251483609,0.00030570140329912643,2.720187335829052e-07
0.017981221548267843,0.0003147027418149024,4.2711976986141243e-07
0.01794102181930222,0.00032368330265679493,5.867162809793367e-07
0.01790462752872859,0.00033264471499380266,7.507982853919862e-07
0.017873063933429478,0.00034158913785934216,9.193567486052724e-07
0.017847280982104887,0.00035051922408822577,1.0923838390921644e-06
0.017828147653182688,0.0003594380812470477,1.269873165425983e-06
0.01781644700310533,0.0003683492299111197,1.4518199932155248e-06
0.01781287190164812,0.00037725655963730803,1.6382214406026316e-06
0.01781802140468373,0.000386164282963891,1.8290766512529313e-06
0.017832397701222538,0.0003950768877403676,2.024386943928996e-06
0.017856403569322866,0.00040399908805800397,2.2241559378785887e-06
0.01789034028433789,0.00041293577402141913,2.4283896533984443e-06
0.017934405946476495,0.00042189196057912273,2.6370965870485796e-06
0.017988694228861214,0.00043087273562295714,2.8502877610990995e-06
0.018053193578815876,0.0004398832075748764,3.0679767468985578e-06
0.018127786924475635,0.00044892845270069927,3.290179661967452e-06
0.01821225194758675,0.00045801346241871487,3.5169151407473054e-06
0.018306261986810863,0.00046714309090231426,3.7482042790775627e-06
0.01840938763504955,0.00047632200330777934,3.984070552630086e-06
0.01852109908644973,0.00048555462498815413,4.22453970970407e-06
0.018640769272279947,0.0004948450920778365,4.469639638970567e-06
0.018767677804330543,0.0005041972038469892,4.719400212951773e-06
0.018901015728061004,0.000513614377230087,4.973853108221042e-06
0.019039891079668515,0.0005230996039320194,5.233031603511569e-06
0.019183335241065743,0.0005326554105122029,5.496970357122625e-06
0.019330310091333385,0.0005422838218453027,5.765705165212001e-06
0.019479715955881657,0.0005519863283571064,6.0392727027626035e-06
0.0196304003485002,0.0005617638574332019,6.317710249210181e-06
0.019781167488309596,0.0005716167493924043,6.601055400916582e-06
0.01993078856082111,0.000581544738404687,6.889345772865855e-06
0.020078012677634986,0.000591546938714301,7.182618692145602e-06
0.02022157845825067,0.0006016218364982724,7.480910885948745e-06
0.020360226105036513,0.0006117672876390942,7.784258166983087e-06
0.02049270978939438,0.000621980521612702,8.092695119296037e-06
0.02061781014142706,0.0006322581515954074,8.406254787598064e-06
0.020734346639601338,0.0006425961907906645,8.724968373194581e-06
0.020841189710288605,0.000652990074878137,9.048864939611782e-06
0.020937272352461823,0.0006634346903938246,9.377971130929772e-06
0.02102160110042634,0.0006739244087570467,9.71231090571749e-06
0.021093266135449457,0.0006844531255660156,1.0051905289298255e-05
0.02115145036027386,0.0006950143046899464,1.0396772146862245e-05
0.02119543725964484,0.0007056010265949261,1.0746925979683464e-05
0.021224617386106138,0.0007162060402563638,1.1102377746396286e-05
0.021238493335270597,0.0007268218179367081,1.1463134710944555e-05
0.02123668311024444,0.0007374406120480868,1.1829200318440754e-05
0.021218921823210703,0.0007480545132814506,1.220057409977314e-05
0.021185061745024693,0.0007586555091735095,1.257725160538688e-05
0.021135070782037507,0.000769235542305275,1.2959224368256576e-05
0.021069029509698595,0.000779786567378209,1.3346479895677447e-05
0.02098712690552812,0.0007903006064820156,1.3739001689142504e-05
0.020889654905184157,0.0008007698019346937,1.4136769291246682e-05
0.020777001878835685,0.0008111864661306987,1.453975835826303e-05
0.02064964511169388,0.0008215431278783311,1.4947940756765287e-05
0.02050814237584226,0.0008318325747502151,1.5361284682422422e-05
0.020353122694209864,0.0008420478910177281,1.5779754798864408e-05
0.0201852764178971,0.0008521824907957548,1.6203312394317778e-05
0.020005344765131886,0.000862230146091512,1.6631915553539595e-05
0.01981410899807852,0.0008721850095323146,1.706551934244555e-05
0.01961237942948105,0.0008820416316392046,1.7504076002738432e-05
0.01940098444687658,0.0008917949726082939,1.7947535153800305e-05
0.01918075972304815,0.0009014404086507751,1.8395843999115072e-05
0.018952537756911983,0.0009109737330207651,1.8848947534532956e-05
0.018717137857962623,0.0009203911519244837,1.9306788755769267e-05
0.018475356645630506,0.000929689275550382,1.9769308862637983e-05
0.01822795909323169,0.0009388651044850975,2.0236447457646853e-05
0.017975670124274895,0.0009479160117894742,2.0708142736715496e-05
0.01771916677290055,0.000956839721013768,2.1184331669916306e-05
0.017459070937608286,0.0009656342804413952,2.1664950170280097e-05
0.017195942773530096,0.0009742980338691798,2.214993324885774e-05
0.016930274776700678,0.0009828295882567375,2.263921515438922e-05
0.016662486615168205,0.0009912277786047047,2.313272949610458e-05
0.016392920762164653,0.000999491630449038,2.3630409348368017e-05
0.016121838992053914,0.0010076203203875926,2.4132187336077175e-05
0.01584941981118476,0.0010156131350884023,2.4637995699946174e-05
0.01557575690480375,0.0010234694292673996,2.5147766341035123e-05
0.015300858675302108,0.001031188583162426,2.566143084414258e-05
0.015024648922033743,0.00103876996006176,2.6178920479948627e-05
0.014746968679307743,0.0010462128644620954,2.6700166186079592e-05
0.014467579202942766,0.001053516501432658,2.722509852755328e-05
0.014186166082923349,0.0010606799377541245,2.7753647637349975e-05
0.013902344453093556,0.0010677020653881287,2.828574313813554e-05
0.013615665257379886,0.0010745815678157471,2.8821314046436507e-05
0.01332562251041315,0.0010813168897576954,2.936028866082987e-05
0.01303166146089473,0.0010879062107505223,2.9902594435956922e-05
0.012733187531503308,0.0010943474229986219,3.044815784439421e-05
0.01242957587243301,0.0011006381138496059,3.099690422860626e-05
0.012120181336051918,0.001106775553151727,3.15487576453566e-05
0.011804348669004245,0.001112756685652991,3.2103640705057775e-05
0.011481422727583792,0.001118578128502138,3.266147440859656e-05
0.011150758544310666,0.0011242361738201115,3.322217798417712e-05
0.010811731100619422,0.001129726796231344,3.3785668726689986e-05
0.010463744687038106,0.0011350456651782585,3.4351861842042384e-05
0.010106241750980585,0.0011401881617877632,3.492067029878389e-05
0.009738711137853292,0.0011451494000099716,3.549200468923332e-05
0.009360695626992422,0.001149924251701183,3.606577310216111e-05
0.008971798661644605,0.0011545073752733423,3.6641881008904736e-05
0.008571690184569273,0.0011588932474848957,3.7220231164594295e-05
0.008160111522664139,0.001163076197911704,3.780072352594345e-05
0.0077368793060335435,0.0011670504456188784,3.838325518682609e-05
0.00730188844253529,0.0011708101375560206,3.8967720332619814e-05
0.0068551141876724685,0.0011743493882135725,3.955401021406221e-05
0.006396613353526183,0.0011776623200988722,4.014201314114032e-05
0.005926524697840116,0.0011807431046117138,4.0731614497317966e-05
0.005445068533027346,0.0011835860029194307,4.132269677420075e-05
0.004952545596968462,0.0011861854064519296,4.191513962654359e-05
0.004449335233232697,0.00118853587665948,4.2508819947321446e-05
0.003935892937400314,0.0011906321837021382,4.310361196241185e-05
0.003412747333770349,0.001192469343769931,4.369938734427986e-05
0.0028804966457324113,0.0011940426547648066,4.429601534391355e-05
0.0023398047125266475,0.0011953477301043713,4.489336294013084e-05
0.001791396594277256,0.0011963805304310723,4.5491295005264705e-05
0.001236053807706075,0.001197137393031568,4.6089674486130364e-05
0.0006746092516137424,0.001197615058796398,4.668836259908736e-05
0.00010794190530051892,0.0011978106965856265,4.728721903793286e-05
-0.00046302860300541485,0.0011977219249112003,4.788610219330707e-05
-0.0010373474685526766,0.0011973468308933107,4.84848693822582e-05
-0.001614030157916826,0.0011966839864866934,4.90833770866032e-05
-0.0021920677918123533,0.001195732461999261,4.968148119872469e-05
-0.0027704324397444273,0.0011944918369413719,5.027903727345984e-05
-0.0033480823144765052,0.0011929622082528166,5.087590078475839e-05
-0.0039239668635448754,0.0011911441959583113,5.147192738581117e-05
-0.004497031764735306,0.0011890389463012413,5.2066973171376064e-05
-0.005066223840719233,0.0011866481323998775,5.266089494105134e-05
-0.0056304959092914,0.0011839739524623749,5.32535504622669e-05
-0.006188811578067498,0.001181019125590535,5.3844798731780126e-05
-0.006740149983576387,0.001177786885200124,5.443450023447779e-05
-0.00728351047511066,0.0011742809700854523,5.5022517198299185e-05
-0.007817917254347917,0.0011705056131530876,5.560871384410882e-05
-0.008342423990507369,0.0011664655278418737,5.619295662935756e-05
-0.008856118424618727,0.0011621658922380922,5.677511448437755e-05
-0.009358126956523615,0.0011576123308928066,5.7355059040160275e-05
-0.009847619184664173,0.0011528108943575097,5.793266484647285e-05
-0.010323812346911581,0.0011477680364746158,5.850780957918088e-05
-0.010785975589917177,0.0011424905894904087,5.908037423567214e-05
-0.011233433977487427,0.0011369857370985574,5.965024331731938e-05
-0.011665572143038115,0.001131260985568426,6.0217304997986126e-05
-0.012081837504529177,0.0011253241331565342,6.078145127766737e-05
-0.012481742990490489,0.0011191832380327794,6.134257812046469e-05
-0.012864869261565146,0.0011128465849697656,6.190058557621533e-05
-0.01323086644181135,0.0011063226510439215,6.245537788521875e-05
-0.01357945539230751,0.0010996200705853919,6.300686356562607e-05
-0.013910428566195425,0.001092747599595766,6.355495548317137e-05
-0.014223650482949768,0.0010857140798334799,6.409957090302868e-05
-0.014519057856282174,0.001078528402748672,6.464063152367422e-05
-0.014796659408727219,0.0010711994734324195,6.51780634927195e-05
-0.015056535407016163,0.0010637361747284837,6.571179740475972e-05
-0.015298836953100374,0.0010561473316384544,6.624176828135145e-05
-0.015523785060379455,0.0010484416761350846,6.676791553329484e-05
-0.015731669530578737,0.001040627812487345,6.729018290545044e-05
-0.015922847632962044,0.0010327141831964596,6.780851840437139e-05
-0.016097742584009943,0.0010247090356422166,6.832287420908106e-05
-0.016256841825174582,0.0010166203895399205,6.88332065653766e-05
-0.01640069508183402,0.0010084560053131683,6.933947566408987e-05
-0.01652991215913289,0.0010002233535029265,6.98416455037939e-05
-0.016645160413147297,0.0009919295853598564,7.03396837385096e-05
-0.016747161844302357,0.000983581504795494,7.083356151104844e-05
-0.016836689781572774,0.0009751855418890251,7.132325327271956e-05
-0.01691456513746672,0.0009667477281592652,7.180873659023164e-05
-0.016981652208837943,0.000958273673822689,7.228999194072713e-05
-0.017038853987848827,0.0009497685472735173,7.276700249600118e-05
-0.01708710694533705,0.0009412370570402209,7.323975389707962e-05
-0.017127375265981324,0.0009326834364873913,7.370823402046152e-05
-0.017160644551540576,0.0009241114315330109,7.417243273746662e-05
-0.017187915050352918,0.0009155242916325375,7.4632341668258e-05
-0.017210194497774545,0.0009069247642455056,7.508795393222752e-05
-0.017228490658555213,0.0008983150929564232,7.5539263896528e-05
-0.017243803662285832,0.0008896970193762129,7.598626692461116e-05
-0.017257118228869512,0.0008810717889034241,7.642895912668107e-05
-0.017269395886133364,0.0008724401603746734,7.68673371140006e-05
-0.01728156727257412,0.0008638024195849965,7.730139775899051e-05
-0.017294524594663113,0.0008551583966181873,7.77311379630413e-05
-0.01730911428500385,0.0008465074868982705,7.815655443392042e-05
-0.01732612989964329,0.0008378486758521087,7.857764347460802e-05
-0.017346305305423814,0.0008291805670508419,7.899440078533376e-05
-0.017370308237691208,0.0008205014136650632,7.940682128051275e-05
-0.01739873434340298,0.0008118091530197897,7.981489892218395e-05
-0.0174321018517373,0.0008031014439710046,8.021862657143166e-05
-0.017470847027992044,0.0007943757067510722,8.061799585911218e-05
-0.017515320564078625,0.0007856291648530545,8.101299707701321e-05
