frame_number,force
0,545.1419849897801
1,545.178617962134
2,545.2140289910245
3,545.2481888508573
4,545.2810714677255
5,545.3126540702777
6,545.3429173354114
7,545.3718455277019
8,545.3994266316291
9,545.4256524757456
10,545.4505188479686
11,545.4740256013893
12,545.4961767502685
13,545.5169805557553
14,545.5364495999931
15,545.5546008459518
16,545.5714556791521
17,545.5870399269885
18,545.6013838517268
19,545.6145221142308
20,545.6264937065506
21,545.6373418523374
22,545.6471138746089
23,545.6558610309371
24,545.6636383167786
25,545.6705042382895
26,545.6765205563458
27,545.6817520036756
28,545.6862659773665
29,545.6901322097715
30,545.6934224217091
31,545.6962099623588
32,545.6985694402604
33,545.7005763495841
34,545.7023066955537
35,545.7038366225007
36,545.7052420473658
37,545.7065983006172
38,545.7079797758105
39,545.7094595885341
40,545.7111092452194
41,545.7129983220584
42,545.7151941540437
43,545.7177615341024
44,545.7207624224976
45,545.7242556669461
46,545.7282967341124
47,545.7329374534407
48,545.7382257747549
49,545.7442055416301
50,545.7509162830773
51,545.7583930264406
52,545.7666661344015
53,545.7757611685395
54,545.7856987812372
55,545.7964946372267
56,545.8081593658331
57,545.8206985447445
58,545.8341127156824
59,545.8483974317409
60,545.8635433355744
61,545.8795362670567
62,545.8963573982775
63,545.9139833928522
64,545.9323865859151
65,545.9515351812778
66,545.9713934629407
67,545.9919220189021
68,546.0130779756299
69,546.0348152417241
70,546.0570847594515
71,546.0798347630584
72,546.1030110430642
73,546.1265572161478
74,546.1504150006967
75,546.1745244984982
76,546.1988244833193
77,546.2232526971455
78,546.2477461545013
79,546.2722414546429
80,546.2966751007738
81,546.3209838251287
82,546.345104918883
83,546.3689765661757
84,546.3925381817027
85,546.4157307510097
86,546.4384971717561
87,546.4607825931578
88,546.4825347499993
89,546.503704287177
90,546.524245070575
91,546.5441144800532
92,546.5632736804024
93,546.5816878662893
94,546.599326477481
95,546.6161633811763
96,546.6321770191132
97,546.6473505180218
98,546.6616717626472
99,546.6751334310085
100,546.687732991917
101,546.6994726649974
102,546.7103593435126
103,546.7204044803901
104,546.7296239382505
105,546.7380378049916
106,546.7456701774208
107,546.7525489161184
108,546.7587053748673
109,546.7641741077741
110,546.7689925571441
111,546.7732007255734
112,546.7768408362664
113,546.7799569857187
114,546.7825947923227
115,546.7848010433438
116,546.7866233416269
117,546.7881097528851
118,546.7893084547653
119,546.7902673897855
120,546.7910339250758
121,546.7916545221339
122,546.7921744195844
123,546.792637331474
124,546.7930851631555
125,546.7935577464689
126,546.7940925957336
127,546.7947246857929
128,546.7954862527304
129,546.7964066170356
130,546.7975120282779
131,546.7988255299618
132,546.8003668431336
133,546.8021522674954
134,546.8041945993449
135,546.8065030664887
136,546.8090832810476
137,546.8119372115227
138,546.8150631756747
139,546.8184558558097
140,546.8221063380049
141,546.8260021765616
142,546.8301274845121
143,546.8344630504411
144,546.8389864814212
145,546.8436723716287
146,546.8484924961654
147,546.8534160297049
148,546.8584097896301
149,546.8634385031481
150,546.8684650975167
151,546.8734510121693
152,546.8783565311478
153,546.8831411334384
154,546.8877638574612
155,546.8921836746018
156,546.8963598660155
157,546.9002523970546
158,546.9038222840225
159,546.9070319481136
160,546.9098455513578
161,546.9122293093527
162,546.9141517756785
163,546.9155840931448
164,546.9165002074687
165,546.9168770396499
166,546.9166946142576
167,546.9159361421179
168,546.9145880575372
169,546.912640011996
170,546.9100848275689
171,546.9069184137038
172,546.9031396505362
173,546.8987502412667
174,546.8937545358185
175,546.8881593281069
176,546.8819736296294
177,546.8752084226402
178,546.8678763968878
179,546.8599916746377
180,546.851569529124
181,546.8426261014811
182,546.833178120727
183,546.8232426307537
184,546.8128367274838
185,546.8019773082844
186,546.7906808346564
187,546.7789631086514
188,546.7668390635665
189,546.7543225699042
190,546.7414262579886
191,546.7281613588252
192,546.7145375648112
193,546.7005629118927
194,546.6862436848901
195,546.6715843479801
196,546.6565875025346
197,546.6412538743373
198,546.6255823315319
199,546.6095699337667
200,546.5932120122939
201,546.5765022804308
202,546.5594329735936
203,546.541995017792
204,546.5241782248938
205,546.5059715121876
206,546.4873631428588
207,546.4683409830337
208,546.4488927702615
209,546.4290063880067
210,546.4086701409498
211,546.3878730264545
212,546.3666049982403
213,546.3448572189766
214,546.3226222989917
215,546.2998945184314
216,546.276670030095
217,546.2529470401228
218,546.2287259640324
219,546.2040095564312
220,546.1788030138198
221,546.1531140508346
222,546.1269529507761
223,546.1003325913873
224,546.0732684467996
225,546.0457785665484
226,546.017883532642
227,545.9896063958362
228,545.960972592524
229,545.9320098438773
230,545.9027480388706
231,545.8732191025786
232,545.8434568508815
233,545.8134968327599
234,545.7833761618091
235,545.7531333392519
236,545.7228080711102
237,545.6924410820153
238,545.6620739275511
239,545.6317488064022
240,545.6015083731535
241,545.5713955523196
242,545.5414533539627
243,545.5117246910186
244,545.4822521982534
245,545.4530780527481
246,545.4242437960119
247,545.3957901580591
248,545.3677568837766
249,545.3401825616318
250,545.3131044545486
251,545.2865583329293
252,545.2605783103062
253,545.2351966827036
254,545.2104437733411
255,545.1863477848236
256,545.1629346613905
257,545.1402279639117
258,545.1182487599577
259,545.0970155304719
260,545.0765440936245
261,545.0568475456411
262,545.0379362178961
263,545.0198176493666
264,545.002496573546
265,544.9859749189765
266,544.9702518225631
267,544.9553236547732
268,544.9411840557771
269,544.9278239816897
270,544.9152317604077
271,544.9033931568572
272,544.8922914475344
273,544.8819075042029
274,544.872219886959
275,544.8632049475556
276,544.8548369442964
277,544.8470881695675
278,544.8399290905031
279,544.8333285029624
280,544.8272536991129
281,544.8216706491711
282,544.8165441978967
283,544.8118382759856
284,544.8075161255516
285,544.803540537809
286,544.7998741003782
287,544.796479451486
288,544.7933195383223
289,544.7903578766827
290,544.7875588088974
291,544.7848877572949
292,544.7823114710726
293,544.779798265056
294,544.7773182490558
295,544.7748435462302
296,544.7723484981235
297,544.769809853195
298,544.767206934972
299,544.7645217856469
300,544.7617392810296
301,544.758847213406
302,544.7558363400644
303,544.7527003967323
304,544.7494360764873
305,544.7460429755898
306,544.7425235082784
307,544.7388827930749
308,544.7351285135757
309,544.7312707568863
310,544.7273218327601
311,544.723296076368
312,544.7192096377197
313,544.7150802610217
314,544.7109270574032
315,544.7067702743401
316,544.7026310647649
317,544.6985312583965
318,544.6944931373681
319,544.6905392177578
320,544.6866920381794
321,544.6829739562447
322,544.6794069535837
323,544.6760124502596
324,544.6728111297931
325,544.6698227765039
326,544.6670661272394
327,544.6645587394597
328,544.6623168769971
329,544.6603554139442
330,544.6586877564104
331,544.6573257813268
332,544.6562797909763
333,544.6555584814893
334,544.655168923232
335,544.6551165508222
336,544.6554051604973
337,544.656036912822
338,544.6570123392411
339,544.6583303516414
340,544.6599882546363
341,544.6619817605654
342,544.6643050072885
343,544.6669505789635
344,544.6699095302988
345,544.6731714152257
346,544.6767243213307
347,544.680554911573
348,544.6846484747696
349,544.6889889861028
350,544.6935591785459
351,544.6983406256555
352,544.7033138358194
353,544.7084583578734
354,544.7137528980282
355,544.7191754482662
356,544.7247034267408
357,544.7303138309684
358,544.7359834043857
359,544.7416888160677
360,544.7474068524243
361,544.7531146189867
362,544.7587897500702
363,544.764410623853
364,544.7699565799498
365,544.775408135949
366,544.78074719893
367,544.7859572677629
368,544.791023621924
369,544.79593349276
370,544.8006762138912
371,544.8052433488907
372,544.8096287961229
373,544.8138288719385
374,544.8178423739017
375,544.8216706255117
376,544.8253175034392
377,544.8287894478457
378,544.832095455948
379,544.835247058665
380,544.838258280091
381,544.8411455797788
382,544.8439277783522
383,544.8466259677168
384,544.8492634079155
385,544.8518654132804
386,544.8544592307068
387,544.8570739125387
388,544.859740185923
389,544.862490319924
390,544.8653579913478
391,544.8683781499412
392,544.8715868832045
393,544.8750212804752
394,544.8787192952454
395,544.8827196039091
396,544.887061458455
397,544.8917845303309
398,544.8969287430442
399,544.9025340919673
400,544.9086404508946
401,544.9152873657742
402,544.9225138366453
403,544.9303580894457
404,544.9388573402044
405,544.9480475549913
406,544.957963209341
407,544.9686370503872
408,544.980099863944
409,544.9923802479756
410,545.0055043937257
411,545.0194958760003
412,545.0343754541606
413,545.0501608850933
414,545.0668667489905
415,545.0845042883925
416,545.1030812606939
417,545.1226018042552
418,545.1430663185613
419,545.1644713595165
420,545.1868095517028
421,545.2100695197988
422,545.2342358410999
423,545.2592890204153
424,545.2852054879417
425,545.311957620302
426,545.3395137847278
427,545.3678384060722
428,545.3968920558824
429,545.4266315624374
430,545.4570101407679
431,545.4879775421373
432,545.519480222968
433,545.5514615336083
434,545.5838619275823
435,545.61661919199
436,545.6496686995058
437,545.6829436821791
438,545.7163755271304
439,545.7498940941281
440,545.7834280545425
441,545.8169052501144
442,545.8502530686026
443,545.8833988322657
444,545.9162701946344
445,545.9487955409639
446,545.980904387683
447,546.012527775976
448,546.0435986546082
449,546.0740522474517
450,546.1038264017739
451,546.1328619139343
452,546.1611028295598
453,546.1884967157467
454,546.214994903598
455,546.2405527002926
456,546.2651295705782
457,546.2886892879241
458,546.3112000557626
459,546.332634599583
460,546.352970231245
461,546.3721888875693
462,546.3902771457472
463,546.4072262181932
464,546.4230319291017
465,546.4376946742904
466,546.4512193651977
467,546.4636153572006
468,546.474896361629
469,546.4850803401562
470,546.4941893799644
471,546.5022495483788
472,546.5092907262757
473,546.5153464202116
474,546.520453553737
475,546.5246522387125
476,546.5279855275999
477,546.5304991476456
478,546.5322412177306
479,546.5332619486346
480,546.5336133277797
481,546.5333487901462
482,546.5325228777356
483,546.5311908904614
484,546.5294085317173
485,546.5272315522751
486,546.5247153966437
487,546.5219148564294
488,546.5188837353519
489,546.5156745302957
490,546.5123381322121
491,546.5089235499188
492,546.5054776586805
493,546.5020449738338
494,546.4986674480408
495,546.4953842896691
496,546.4922317994578
497,546.4892432227189
498,546.4864486145475
499,546.4838747159182
500,546.481544839244
501,546.4794787628941
502,546.4776926350611
503,546.4761988880896
504,546.475006164991
505,546.4741192604209
506,546.4735390789066
507,546.4732626135135
508,546.4732829483977
509,546.4735892886645
510,546.4741670205534
511,546.4749978042727
512,546.4760597009596
513,546.4773273343209
514,546.478772086577
515,546.4803623274897
516,546.4820636745151
517,546.4838392814515
518,546.4856501524322
519,546.4874554778814
520,546.4892129890756
521,546.490879327929
522,546.4924104283141
523,546.493761904606
524,546.4948894425002
525,546.4957491868362
526,546.4962981213238
527,546.4964944356045
528,546.4962978758351
529,546.4956700758331
530,546.494574866573
531,546.4929785621604
532,546.4908502202592
533,546.4881618745823
534,546.4848887368253
535,546.4810093654029
536,546.4765057984669
537,546.4713636489964
538,546.4655721603827
539,546.4591242218374
540,546.4520163439703
541,546.4442485959283
542,546.4358245066052
543,546.4267509336037
544,546.4170379047152
545,546.40669843744
546,546.3957483423113
547,546.384206015542
548,546.3720922260336
549,546.3594299012503
550,546.3462439157955
551,546.3325608857363
552,546.318408970874
553,546.3038176863656
554,546.288817724476
555,546.2734407869023
556,546.2577194279156
557,546.2416869082277
558,546.2253770588594
559,546.2088241534899
560,546.192062787134
561,546.1751277588461
562,546.1580539565155
563,546.1408762423465
564,546.1236293379328
565,546.1063477078982
566,546.0890654411411
567,546.0718161290065
568,546.0546327402456
569,546.037547493272
570,546.0205917268603
571,546.0037957709816
572,545.9871888199151
573,545.9707988101139
574,545.9546523054557
575,545.938774392276
576,545.923188585868
577,545.9079167491586
578,545.8929790233534
579,545.878393769734
580,545.8641775216905
581,545.8503449466153
582,545.8369088181867
583,545.8238800002777
584,545.8112674439014
585,545.7990781984012
586,545.7873174379218
587,545.7759885042815
588,545.765092967541
589,545.7546307055048
590,545.7446000028912
591,545.7349976700802
592,545.7258191804038
593,545.717058824153
594,545.7087098770239
595,545.7007647804654
596,545.6932153310454
597,545.6860528754012
598,545.6792685066622
599,545.6728532575154
600,545.6667982844194
601,545.661095037188
602,545.6557354086522
603,545.6507118603563
604,545.6460175216235
605,545.6416462603169
606,545.6375927242316
607,545.6338523525242
608,545.6304213569177
609,545.627296672597
610,545.6244758788876
611,545.621957090307
612,545.6197388194984
613,545.6178198147057
614,545.6161988754855
615,545.6148746510546
616,545.6138454261448
617,545.6131088996144
618,545.6126619613191
619,545.6125004726841
620,545.6126190560227
621,545.6130108970352
622,545.6136675642923
623,545.6145788489293
624,545.615732627278
625,545.6171147486839
626,545.6187089503794
627,545.6204968010496
628,545.622457674489
629,545.6245687542977
630,545.6268050699025
631,545.6291395634787
632,545.6315431866254
633,545.6339850250151
634,545.6364324489243
635,545.6388512876982
636,545.6412060265453
637,545.6434600241388
638,545.6455757491016
639,545.6475150327557
640,545.6492393349961
641,545.6507100201142
642,545.6518886396622
643,545.6527372194458
644,545.6532185471431
645,545.653296456102
646,545.6529361000846
647,545.6521042134561
648,545.6507693518153
649,545.648902109346
650,545.6464753108713
651,545.6434641780743
652,545.6398464702295
653,545.635602600074
654,545.6307157253214
655,545.6251718161116
656,545.6189596987319
657,545.6120710763188
658,545.604500527736
659,545.5962454862027
660,545.5873061994846
661,545.5776856737363
662,545.5673896034637
663,545.5564262904123
664,545.5448065542922
665,545.5325436381711
666,545.5196531112394
667,545.5061527714147
668,545.4920625497284
669,545.477404417549
670,545.4622022966097
671,545.4464819709037
672,545.430270998942
673,545.4135986245482
674,545.3964956842221
675,545.3789945091376
676,545.3611288200807
677,545.3429336140255
678,545.3244450415473
679,545.3057002748194
680,545.2867373662538
681,545.2675950978033
682,545.2483128207899
683,545.2289302862961
684,545.2094874667862
685,545.1900243703216
686,545.1705808492105
687,545.1511964052414
688,545.1319099939915
689,545.1127598310319
690,545.0937832030811
691,545.0750162873937
692,545.0564939830606
693,545.0382497583284
694,545.0203155181769
695,545.0027214959011
696,544.9854961712671
697,544.9686662161241
698,544.9522564665745
699,544.9362899193688
700,544.9207877494491
701,544.9057693454625
702,544.891252360375
703,544.8772527747863
704,544.8637849710908
705,544.8508618171722
706,544.8384947587259
707,544.8266939192869
708,544.8154682064365
709,544.8048254217489
710,544.7947723713633
711,544.785314973846
712,544.7764583619992
713,544.7682069753608
714,544.7605646404867
715,544.7535346368785
716,544.7471197475037
717,544.7413222938818
718,544.7361441564067
719,544.7315867809743
720,544.7276511733776
721,544.724337883361
722,544.7216469803918
723,544.7195780228122
724,544.7181300212438
725,544.7173013963883
726,544.7170899311117
727,544.717492716844
728,544.718506094621
729,544.7201255914092
730,544.7223458527244
731,544.7251605729474
732,544.7285624250515
733,544.7325429916395
734,544.7370926994116
735,544.7422007595528
736,544.7478551168472
737,544.7540424102867
738,544.7607479475665
739,544.7679556952875
740,544.7756482859664
741,544.7838070420116
742,544.7924120157387
743,544.8014420436409
744,544.8108748129007
745,544.8206869386158
746,544.8308540510583
747,544.8413508929807
748,544.8521514271785
749,544.8632289541836
750,544.874556239379
751,544.8861056483333
752,544.8978492889523
753,544.9097591591632
754,544.9218072991525
755,544.93396594742
756,544.9462076999089
757,544.9585056712882
758,544.9708336572835
759,544.9831662968845
760,544.9954792332169
761,545.0077492718323
762,545.0199545352447
763,545.032074612675
764,545.0440907038786
765,545.0559857554848
766,545.0677445877151
767,545.0793540089423
768,545.0908029154045
769,545.102082373447
770,545.1131856818985
771,545.1241084124832
772,545.134848426508
773,545.1454058664218
774,545.1557831211232
775,545.1659847640365
776,545.176017463253
777,545.1858898636818
778,545.1956124420932
779,545.2051973369782
780,545.2146581561652
781,545.2240097659487
782,545.2332680658903
783,545.2424497533788
784,545.2515720817294
785,545.2606526152986
786,545.2697089848444
787,545.2787586461048
788,545.2878186442734
789,545.2969053868254
790,545.3060344270917
791,545.3152202611006
792,545.3244761403432
793,545.3338139031554
794,545.3432438272981
795,545.3527745060223
796,545.3624127494326
797,545.3721635123733
798,545.3820298494298
799,545.3920128970191
800,545.4021118820143
801,545.412324155969
802,545.4226452537199
803,545.4330689748859
804,545.443587486532
805,545.4541914451618
806,545.4648701363598
807,545.4756116307547
808,545.4864029552651
809,545.497230278573
810,545.5080791095378
811,545.5189345071384
812,545.5297813005566
813,545.5406043178646
814,545.5513886212277
815,545.5621197458902
816,545.5727839399074
817,545.5833684016293
818,545.5938615120015
819,545.6042530586584
820,545.6145344486324
821,545.6246989064789
822,545.6347416548386
823,545.6446600749023
824,545.6544538447691
825,545.6641250540939
826,545.6736782935134
827,545.6831207172014
828,545.6924620769871
829,545.7017147272599
830,545.7108936012463
831,545.720016160409
832,545.7291023191164
833,545.7381743466167
834,545.7472567483273
835,545.7563761287466
836,545.765561038603
837,545.7748418088869
838,545.7842503742792
839,545.7938200884173
840,545.8035855334329
841,545.8135823261608
842,545.8238469233517
843,545.8344164280333
844,545.8453283987814
845,545.856620663087
846,545.8683311355356
847,545.8804976413222
848,545.893157745531
849,545.9063485882089
850,545.9201067244909
851,545.9344679682088
852,545.9494672368882
853,545.9651383959157
854,545.9815140997853
855,545.998625628463
856,546.0165027169296
857,546.0351733760491
858,546.0546637033658
859,546.0749976833602
860,546.0961969779013
861,546.1182807087675
862,546.1412652349112
863,546.1651639275699
864,546.1899869465291
865,546.2157410210103
866,546.2424292388633
867,546.2700508479732
868,546.298601074014
869,546.3280709587818
870,546.3584472232607
871,546.3897121593312
872,546.4218435536591
873,546.4548146468935
874,546.4885941309864
875,546.5231461871201
876,546.5584305662305
877,546.5944027133127
878,546.631013935734
879,546.6682116148461
880,546.705939459385
881,546.7441377983399
882,546.7827439100101
883,546.8216923829899
884,546.8609155040806
885,546.9003436677372
886,546.9399058016821
887,546.9795298038887
888,547.0191429872299
889,547.0586725292993
890,547.0980459257405
891,547.13719144567
892,547.1760385875139
893,547.2145185330645
894,547.2525645970783
895,547.2901126693904
896,547.3271016463067
897,547.3634738479733
898,547.3991754186643
899,547.4341567074146
900,547.4683726268788
901,547.5017829883977
902,547.5343528109886
903,547.5660526017116
904,547.5968586049369
905,547.6267530185019
906,547.6557241754203
907,547.683766690541
908,547.7108815723095
909,547.7370763004229
910,547.7623648704232
911,547.7867678061496
912,547.8103121408176
913,547.8330313675376
914,547.8549653601018
915,547.8761602646375
916,547.8966683624301
917,547.916547904201
