frame_number,force
0,545.1419850032087
1,545.1786179755904
2,545.2140290045076
3,545.2481888643648
4,545.281071481254
5,545.3126540838228
6,545.342917348968
7,545.3718455412641
8,545.3994266451907
9,545.4256524893004
10,545.4505188615108
11,545.4740256149134
12,545.49617676377
13,545.5169805692298
14,545.5364496134368
15,545.5546008593614
16,545.5714556925244
17,545.5870399403204
18,545.6013838650156
19,545.6145221274737
20,545.6264937197454
21,545.6373418654821
22,545.6471138877017
23,545.6558610439766
24,545.6636383297632
25,545.6705042512175
26,545.6765205692154
27,545.6817520164848
28,545.6862659901126
29,545.6901322224514
30,545.6934224343192
31,545.696209974895
32,545.6985694527186
33,545.7005763619601
34,545.7023067078431
35,545.7038366346999
36,545.7052420594712
37,545.706598312626
38,545.7079797877211
39,545.7094596003454
40,545.7111092569307
41,545.7129983336694
42,545.7151941655542
43,545.7177615455122
44,545.7207624338073
45,545.7242556781565
46,545.7282967452253
47,545.7329374644586
48,545.7382257856805
49,545.7442055524668
50,545.7509162938293
51,545.7583930371122
52,545.7666661449979
53,545.7757611790659
54,545.785698791699
55,545.7964946476297
56,545.8081593761834
57,545.8206985550481
58,545.834112725946
59,545.8483974419713
60,545.8635433457787
61,545.8795362772421
62,545.8963574084512
63,545.913983403021
64,545.9323865960857
65,545.9515351914565
66,545.9713934731329
67,545.9919220291123
68,546.0130779858616
69,546.0348152519803
70,546.0570847697343
71,546.0798347733686
72,546.1030110534017
73,546.1265572265116
74,546.1504150110851
75,546.1745245089088
76,546.19882449375
77,546.2232527075938
78,546.2477461649648
79,546.2722414651195
80,546.2966751112616
81,546.3209838356264
82,546.3451049293899
83,546.3689765766917
84,546.3925381922281
85,546.4157307615455
86,546.4384971823039
87,546.4607826037202
88,546.48253476058
89,546.5037042977804
90,546.5242450812057
91,546.5441144907163
92,546.5632736911042
93,546.5816878770365
94,546.599326488281
95,546.6161633920368
96,546.6321770300418
97,546.6473505290256
98,546.6616717737329
99,546.6751334421821
100,546.6877330031838
101,546.6994726763621
102,546.7103593549789
103,546.7204044919613
104,546.7296239499294
105,546.7380378167816
106,546.7456701893254
107,546.7525489281409
108,546.758705387011
109,546.7641741200422
110,546.7689925695395
111,546.7732007380991
112,546.7768408489256
113,546.7799569985146
114,546.7825948052583
115,546.7848010564218
116,546.7866233548491
117,546.7881097662529
118,546.7893084682792
119,546.7902674034461
120,546.791033938884
121,546.79165453609
122,546.7921744336886
123,546.7926373457258
124,546.7930851775538
125,546.7935577610119
126,546.7940926104188
127,546.794724700617
128,546.7954862676899
129,546.7964066321265
130,546.7975120434962
131,546.7988255453032
132,546.800366858593
133,546.8021522830671
134,546.8041946150224
135,546.806503082264
136,546.8090832969115
137,546.8119372274648
138,546.8150631916837
139,546.8184558718739
140,546.8221063541121
141,546.8260021926995
142,546.8301275006688
143,546.8344630666045
144,546.8389864975793
145,546.8436723877692
146,546.8484925122755
147,546.8534160457721
148,546.8584098056424
149,546.8634385190943
150,546.8684651133856
151,546.8734510279506
152,546.8783565468319
153,546.8831411490165
154,546.8877638729253
155,546.8921836899449
156,546.8963598812319
157,546.9002524121399
158,546.9038222989736
159,546.9070319629286
160,546.909845566035
161,546.9122293238912
162,546.9141517900778
163,546.9155841074045
164,546.9165002215884
165,546.9168770536297
166,546.9166946280983
167,546.9159361558203
168,546.9145880711023
169,546.9126400254244
170,546.9100848408606
171,546.9069184268589
172,546.9031396635548
173,546.8987502541496
174,546.8937545485671
175,546.8881593407228
176,546.8819736421146
177,546.8752084349967
178,546.8678764091178
179,546.8599916867436
180,546.8515695411082
181,546.8426261133462
182,546.833178132476
183,546.8232426423896
184,546.81283673901
185,546.8019773197046
186,546.7906808459744
187,546.7789631198708
188,546.7668390746909
189,546.7543225809376
190,546.7414262689357
191,546.7281613696912
192,546.7145375756015
193,546.7005629226134
194,546.6862436955474
195,546.6715843585812
196,546.6565875130871
197,546.641253884849
198,546.6255823420111
199,546.6095699442214
200,546.5932120227322
201,546.5765022908607
202,546.5594329840229
203,546.5419950282279
204,546.5241782353429
205,546.5059715226557
206,546.4873631533512
207,546.4683409935545
208,546.448892780814
209,546.4290063985936
210,546.4086701515732
211,546.3878730371157
212,546.3666050089399
213,546.3448572297151
214,546.3226223097691
215,546.299894529247
216,546.2766700409474
217,546.2529470510096
218,546.2287259749511
219,546.2040095673784
220,546.1788030247917
221,546.1531140618268
222,546.1269529617844
223,546.1003326024075
224,546.0732684578277
225,546.0457785775802
226,546.0178835436737
227,545.9896064068639
228,545.9609726035442
229,545.9320098548868
230,545.9027480498669
231,545.873219113559
232,545.843456861844
233,545.8134968437026
234,545.7833761727304
235,545.7531333501504
236,545.7228080819847
237,545.6924410928652
238,545.6620739383767
239,545.6317488172042
240,545.601508383933
241,545.5713955630783
242,545.5414533647024
243,545.5117247017414
244,545.4822522089618
245,545.4530780634445
246,545.4242438066988
247,545.395790168739
248,545.3677568944522
249,545.3401825723062
250,545.3131044652255
251,545.2865583436129
252,545.2605783210013
253,545.2351966934156
254,545.2104437840753
255,545.1863477955856
256,545.1629346721857
257,545.1402279747456
258,545.1182487708361
259,545.0970155414002
260,545.076544104608
261,545.0568475566852
262,545.0379362290059
263,545.0198176605469
264,545.0024965848008
265,544.9859749303097
266,544.9702518339778
267,544.9553236662722
268,544.9411840673625
269,544.9278239933635
270,544.9152317721714
271,544.9033931687121
272,544.8922914594813
273,544.8819075162419
274,544.8722198990898
275,544.863204959778
276,544.8548369566103
277,544.8470881819728
278,544.8399291029997
279,544.8333285155503
280,544.8272537117923
281,544.8216706619421
282,544.816544210759
283,544.8118382889386
284,544.8075161385948
285,544.8035405509414
286,544.7998741135985
287,544.7964794647918
288,544.7933195517102
289,544.7903578901484
290,544.7875588224349
291,544.7848877708971
292,544.782311484731
293,544.7797982787614
294,544.7773182627983
295,544.7748435599989
296,544.7723485119077
297,544.7698098669839
298,544.7672069487548
299,544.764521799413
300,544.7617392947682
301,544.758847227106
302,544.7558363537142
303,544.752700410321
304,544.7494360900047
305,544.7460429890259
306,544.7425235216236
307,544.7388828063201
308,544.735128526712
309,544.731270769905
310,544.7273218456531
311,544.7232960891271
312,544.7192096503372
313,544.7150802734909
314,544.710927069718
315,544.7067702864952
316,544.7026310767554
317,544.6985312702188
318,544.6944931490195
319,544.6905392292373
320,544.6866920494875
321,544.6829739673832
322,544.6794069645557
323,544.6760124610698
324,544.6728111404472
325,544.6698227870079
326,544.6670661375998
327,544.6645587496836
328,544.6623168870917
329,544.6603554239173
330,544.6586877662702
331,544.6573257910823
332,544.6562798006368
333,544.6555584910645
334,544.655168932733
335,544.6551165602601
336,544.6554051698837
337,544.6560369221688
338,544.6570123485607
339,544.658330360946
340,544.6599882639379
341,544.6619817698755
342,544.6643050166185
343,544.6669505883237
344,544.669909539699
345,544.6731714246749
346,544.6767243308371
347,544.6805549211443
348,544.6846484844124
349,544.6889889958228
350,544.6935591883476
351,544.6983406355429
352,544.7033138457958
353,544.7084583679423
354,544.7137529081924
355,544.7191754585282
356,544.7247034371022
357,544.7303138414304
358,544.7359834149496
359,544.7416888267348
360,544.7474068631955
361,544.7531146298619
362,544.7587897610491
363,544.7644106349355
364,544.7699565911357
365,544.7754081472381
366,544.7807472103224
367,544.7859572792584
368,544.7910236335224
369,544.7959335044611
370,544.800676225694
371,544.8052433607942
372,544.8096288081256
373,544.8138288840386
374,544.8178423860963
375,544.8216706377973
376,544.8253175158109
377,544.8287894602977
378,544.8320954684737
379,544.8352470712567
380,544.838258292741
381,544.8411455924787
382,544.8439277910937
383,544.8466259804915
384,544.8492634207145
385,544.8518654260945
386,544.8544592435267
387,544.8570739253548
388,544.8597401987257
389,544.8624903327034
390,544.8653580040937
391,544.8683781626432
392,544.8715868958527
393,544.8750212930604
394,544.878719307759
395,544.8827196163425
396,544.8870614708
397,544.8917845425797
398,544.8969287551894
399,544.9025341040011
400,544.9086404628098
401,544.915287377564
402,544.9225138483038
403,544.9303581009682
404,544.9388573515874
405,544.9480475662324
406,544.9579632204386
407,544.9686370613409
408,544.9800998747547
409,544.9923802586453
410,545.0055044042576
411,545.019495886399
412,545.0343754644315
413,545.0501608952427
414,545.0668667590252
415,545.0845042983201
416,545.1030812705225
417,545.1226018139935
418,545.1430663282187
419,545.1644713691023
420,545.1868095612268
421,545.2100695292706
422,545.2342358505296
423,545.2592890298134
424,545.2852054973193
425,545.3119576296706
426,545.3395137940989
427,545.3678384154573
428,545.3968920652928
429,545.4266315718841
430,545.4570101502613
431,545.487977551687
432,545.5194802325825
433,545.5514615432949
434,545.583861937347
435,545.6166192018376
436,545.6496687094401
437,545.6829436922031
438,545.7163755372464
439,545.7498941043375
440,545.7834280648457
441,545.8169052605108
442,545.8502530790912
443,545.8833988428448
444,545.9162702053021
445,545.9487955517184
446,545.9809043985224
447,546.0125277868987
448,546.0435986656125
449,546.0740522585359
450,546.1038264129362
451,546.1328619251733
452,546.1611028408732
453,546.188496727132
454,546.2149949150519
455,546.240552711811
456,546.2651295821566
457,546.2886892995581
458,546.3112000674475
459,546.332634611314
460,546.3529702430172
461,546.3721888993782
462,546.3902771575881
463,546.4072262300617
464,546.4230319409936
465,546.4376946862013
466,546.4512193771242
467,546.4636153691396
468,546.4748963735789
469,546.4850803521165
470,546.4941893919357
471,546.5022495603628
472,546.5092907382751
473,546.5153464322307
474,546.520453565781
475,546.5246522507878
476,546.5279855397126
477,546.5304991598025
478,546.5322412299383
479,546.5332619609001
480,546.5336133401098
481,546.5333488025474
482,546.5325228902134
483,546.5311909030205
484,546.529408544362
485,546.5272315650092
486,546.52471540947
487,546.5219148693499
488,546.518883748368
489,546.515674543408
490,546.5123381454204
491,546.508923563222
492,546.505477672077
493,546.5020449873208
494,546.4986674616154
495,546.4953843033283
496,546.4922318131984
497,546.4892432365374
498,546.4864486284401
499,546.4838747298807
500,546.4815448532714
501,546.4794787769818
502,546.477692649204
503,546.4761989022834
504,546.4750061792317
505,546.4741192747047
506,546.4735390932293
507,546.4732626278713
508,546.4732829627869
509,546.4735893030814
510,546.4741670349948
511,546.4749978187357
512,546.4760597154416
513,546.4773273488195
514,546.4787721010899
515,546.4803623420142
516,546.482063689048
517,546.4838392959896
518,546.485650166972
519,546.4874554924198
520,546.4892130036087
521,546.4908793424528
522,546.4924104428243
523,546.4937619190982
524,546.4948894569703
525,546.4957492012801
526,546.4962981357371
527,546.4964944499828
528,546.4962978901738
529,546.4956700901266
530,546.4945748808154
531,546.4929785763459
532,546.4908502343824
533,546.4881618886382
534,546.4848887508091
535,546.4810093793106
536,546.4765058122957
537,546.4713636627446
538,546.4655721740492
539,546.4591242354215
540,546.4520163574717
541,546.4442486093466
542,546.4358245199396
543,546.4267509468538
544,546.4170379178806
545,546.4066984505206
546,546.3957483553071
547,546.3842060284534
548,546.3720922388618
549,546.359429913997
550,546.3462439284631
551,546.3325608983274
552,546.3184089833919
553,546.3038176988136
554,546.2888177368574
555,546.2734407992201
556,546.2577194401728
557,546.2416869204271
558,546.2253770710048
559,546.2088241655861
560,546.1920627991865
561,546.175127770861
562,546.1580539684992
563,546.140876254306
564,546.1236293498748
565,546.1063477198288
566,546.0890654530658
567,546.0718161409301
568,546.0546327521719
569,546.037547505204
570,546.0205917388001
571,546.0037957829306
572,545.9871888318745
573,545.9707988220847
574,545.9546523174387
575,545.9387744042716
576,545.9231885978766
577,545.9079167611798
578,545.8929790353872
579,545.8783937817801
580,545.864177533749
581,545.8503449586862
582,545.8369088302699
583,545.8238800123731
584,545.8112674560091
585,545.7990782105211
586,545.787317450054
587,545.7759885164262
588,545.7650929796988
589,545.7546307176767
590,545.7446000150786
591,545.734997682285
592,545.7258191926277
593,545.717058836398
594,545.7087098892925
595,545.7007647927608
596,545.6932153433711
597,545.6860528877611
598,545.6792685190603
599,545.6728532699557
600,545.6667982969061
601,545.6610950497251
602,545.6557354212434
603,545.6507118730052
604,545.6460175343332
605,545.6416462730897
606,545.6375927370696
607,545.6338523654284
608,545.6304213698888
609,545.6272966856347
610,545.6244758919906
611,545.6219571034737
612,545.6197388327263
613,545.6178198279913
614,545.6161988888242
615,545.614874664441
616,545.6138454395724
617,545.6131089130766
618,545.6126619748093
619,545.6125004861955
620,545.612619069548
621,545.6130109105674
622,545.6136675778242
623,545.6145788624548
624,545.6157326407911
625,545.617114762179
626,545.6187089638515
627,545.620496814494
628,545.6224576879018
629,545.6245687676758
630,545.6268050832438
631,545.6291395767819
632,545.6315431998897
633,545.6339850382399
634,545.6364324621092
635,545.6388513008434
636,545.6412060396516
637,545.6434600372079
638,545.6455757621361
639,545.6475150457593
640,545.6492393479732
641,545.65071003307
642,545.6518886526026
643,545.6527372323774
644,545.6532185600731
645,545.6532964690387
646,545.6529361130363
647,545.652104226431
648,545.650769364821
649,545.6489021223898
650,545.6464753239601
651,545.6434641912144
652,545.6398464834269
653,545.6356026133342
654,545.630715738649
655,545.6251718295101
656,545.6189597122041
657,545.6120710898663
658,545.6045005413602
659,545.596245499904
660,545.5873062132631
661,545.5776856875921
662,545.567389617396
663,545.5564263044193
664,545.5448065683709
665,545.5325436523173
666,545.5196531254484
667,545.5061527856813
668,545.4920625640473
669,545.477404431914
670,545.4622023110142
671,545.4464819853412
672,545.4302710134059
673,545.4135986390328
674,545.3964956987219
675,545.3789945236467
676,545.361128834594
677,545.3429336285375
678,545.3244450560524
679,545.3057002893117
680,545.286737380727
681,545.2675951122511
682,545.2483128352059
683,545.2289303006737
684,545.2094874811182
685,545.1900243846006
686,545.1705808634291
687,545.151196419392
688,545.1319100080663
689,545.112759845023
690,545.093783216981
691,545.0750163011951
692,545.0564939967562
693,545.0382497719115
694,545.0203155316415
695,545.0027215092425
696,544.9854961844818
697,544.9686662292103
698,544.9522564795311
699,544.9362899321959
700,544.9207877621478
701,544.9057693580353
702,544.8912523728249
703,544.8772527871173
704,544.8637849833082
705,544.8508618292815
706,544.8384947707326
707,544.8266939311969
708,544.8154682182563
709,544.804825433485
710,544.7947723830224
711,544.7853149854344
712,544.7764583735225
713,544.7682069868239
714,544.7605646518938
715,544.7535346482335
716,544.74711975881
717,544.7413223051419
718,544.7361441676223
719,544.7315867921466
720,544.7276511845066
721,544.7243378944463
722,544.7216469914322
723,544.719578033806
724,544.7181300321885
725,544.7173014072807
726,544.7170899419485
727,544.7174927276217
728,544.7185061053357
729,544.7201256020575
730,544.7223458633032
731,544.7251605834541
732,544.7285624354838
733,544.7325430019962
734,544.7370927096919
735,544.7422007697562
736,544.7478551269735
737,544.7540424203357
738,544.760747957538
739,544.767955705181
740,544.775648295781
741,544.7838070517462
742,544.7924120253927
743,544.8014420532148
744,544.8108748223962
745,544.8206869480355
746,544.8308540604056
747,544.8413509022596
748,544.8521514363935
749,544.8632289633395
750,544.8745562484809
751,544.8861056573865
752,544.8978492979617
753,544.9097591681332
754,544.9218073080871
755,544.9339659563224
756,544.946207708782
757,544.9585056801349
758,544.9708336661059
759,544.983166305684
760,544.9954792419942
761,545.0077492805879
762,545.0199545439788
763,545.032074621388
764,545.0440907125708
765,545.0559857641563
766,545.0677445963655
767,545.0793540175712
768,545.090802924011
769,545.1020823820302
770,545.1131856904574
771,545.124108421017
772,545.1348484350159
773,545.1454058749031
774,545.1557831295772
775,545.1659847724628
776,545.1760174716518
777,545.185889872054
778,545.1956124504403
779,545.2051973453032
780,545.2146581644715
781,545.2240097742405
782,545.2332680741721
783,545.2424497616556
784,545.2515720900075
785,545.2606526235852
786,545.2697089931477
787,545.2787586544337
788,545.2878186526381
789,545.2969053952371
790,545.3060344355627
791,545.3152202696436
792,545.3244761489713
793,545.3338139118811
794,545.3432438361333
795,545.3527745149779
796,545.3624127585184
797,545.3721635215979
798,545.3820298588004
799,545.392012906541
800,545.4021118916917
801,545.4123241658043
802,545.4226452637145
803,545.43306898504
804,545.4435874968444
805,545.45419145563
806,545.46487014698
807,545.4756116415218
808,545.4864029661728
809,545.4972302896135
810,545.5080791207023
811,545.5189345184172
812,545.5297813119392
813,545.5406043293401
814,545.551388632785
815,545.5621197575183
816,545.5727839515955
817,545.5833684133668
818,545.5938615237782
819,545.6042530704647
820,545.614534460459
821,545.6246989183168
822,545.6347416666789
823,545.6446600867364
824,545.6544538565892
825,545.664125065893
826,545.6736783052859
827,545.683120728943
828,545.6924620886947
829,545.7017147389313
830,545.7108936128802
831,545.7200161720043
832,545.7291023306717
833,545.7381743581303
834,545.7472567597966
835,545.7563761401682
836,545.7655610499726
837,545.7748418201999
838,545.7842503855306
839,545.7938200996024
840,545.8035855445468
841,545.8135823371997
842,545.8238469343122
843,545.8344164389124
844,545.8453284095762
845,545.8566206737946
846,545.8683311461534
847,545.8804976518483
848,545.893157755964
849,545.9063485985482
850,545.9201067347365
851,545.934467978361
852,545.9494672469477
853,545.9651384058836
854,545.9815141096634
855,545.9986256382539
856,546.0165027266362
857,546.0351733856745
858,546.0546637129135
859,546.0749976928339
860,546.096196987305
861,546.1182807181049
862,546.1412652441861
863,546.1651639367863
864,546.1899869556905
865,546.2157410301203
866,546.2424292479246
867,546.2700508569885
868,546.2986010829861
869,546.3280709677133
870,546.3584472321538
871,546.3897121681887
872,546.4218435624837
873,546.4548146556889
874,546.4885941397569
875,546.5231461958707
876,546.5584305749667
877,546.5944027220404
878,546.6310139444596
879,546.668211623576
880,546.7059394681258
881,546.744137807099
882,546.7827439187954
883,546.8216923918098
884,546.8609155129438
885,546.9003436766526
886,546.9399058106585
887,546.9795298129349
888,547.0191429963548
889,547.058672538512
890,547.0980459350501
891,547.1371914550851
892,547.1760385970427
893,547.2145185427149
894,547.2525646068572
895,547.2901126793042
896,547.3271016563614
897,547.3634738581743
898,547.3991754290166
899,547.4341567179225
900,547.4683726375463
901,547.501782999228
902,547.5343528219842
903,547.5660526128744
904,547.5968586162683
905,547.6267530300024
906,547.6557241870904
907,547.6837667023809
908,547.7108815843189
909,547.7370763126007
910,547.7623648827671
911,547.7867678186564
912,547.8103121534833
913,547.8330313803572
914,547.8549653730689
915,547.8761602777449
916,547.8966683756694
917,547.9165479175629
