frame_number,force
0,491.0104502804266
1,490.9945599977425
2,490.9706640035394
3,490.939270233845
4,490.9009974536413
5,490.856559945456
6,490.80675048598425
7,490.75242227672504
8,490.69447048454566
9,490.6338139884433
10,490.5713777707408
11,490.50807618356646
12,490.44479721892196
13,490.3823880058515
14,490.3216419777996
15,490.2632883300693
16,490.20798437323117
17,490.1563111162319
18,490.1087719508667
19,490.06579385727355
20,490.02773030329405
21,489.9948650118765
22,489.9674159151935
23,489.9455387692321
24,489.9293300187485
25,489.91882863243296
26,489.91401682746437
27,489.91481981775394
28,489.92110484529826
29,489.9326797947177
30,489.94929175950557
31,489.97062606635177
32,489.9963063742401
33,490.0258964304189
34,490.0589038650391
35,490.09478612590556
36,490.1329584215619
37,490.17280342957184
38,490.2136825108503
39,490.25494818053687
40,490.2959575849853
41,490.33608670414776
42,490.3747449151262
43,490.411389439092
44,490.4455391242146
45,490.4767870212483
46,490.5048112215052
47,490.52938337559
48,490.55037424118046
49,490.5677556744235
50,490.5815987630616
51,490.59206819885156
52,490.59941334200613
53,490.6039566564773
54,490.606080273673
55,490.6062114027652
56,490.60480722261144
57,490.6023398183689
58,490.5992816549401
59,490.5960919831598
60,490.59320447008685
61,490.59101627992806
62,490.5898788199601
63,490.5900903522155
64,490.59189059135986
65,490.59545726784916
66,490.60090451670806
67,490.608282928376
68,490.61758115068125
69,490.62872899303915
70,490.6416020299836
71,490.6560277356581
72,490.671793168534
73,490.6886541139528
74,490.7063453901832
75,490.7245918007874
76,490.7431190587993
77,490.76166400604615
78,490.7799836344374
79,490.7978626798515
80,490.8151197386609
81,490.83161188703133
82,490.84723772613927
83,490.8619387393249
84,490.87569890638395
85,490.8885426661706
86,490.90053146557307
87,490.91175921732787
88,490.92234702792734
89,490.93243757899
90,490.9421895139893
91,490.95177204452546
92,490.96135978969977
93,490.97112772295463
94,490.98124609287663
95,490.9918752660489
96,491.00316053662124
97,491.0152270348268
98,491.02817496357267
99,491.04207548888724
100,491.0569676347007
101,491.07285642685025
102,491.08971235263516
103,491.10747208202173
104,491.12604039236504
105,491.145293286584
106,491.16508229848466
107,491.18523990160605
108,491.2055858119898
109,491.2259338570098
110,491.2460990308796
111,491.26590441000315
112,491.28518770845295
113,491.3038072998717
114,491.3216474728393
115,491.33862259993515
116,491.3546798776585
117,491.36980035762514
118,491.38399812334137
119,491.39731764560145
120,491.40982952571983
121,491.4216249608059
122,491.43280932135787
123,491.4434952237435
124,491.4537954320402
125,491.4638158872395
126,491.473649183706
127,491.4833688774792
128,491.49302504452066
129,491.5026414390397
130,491.5122144215126
131,491.52171360090784
132,491.5310839797342
133,491.5402493606134
134,491.5491167960432
135,491.55758183178034
136,491.5655342204439
137,491.5728637682132
138,491.57946605985586
139,491.58524791165553
140,491.5901324481013
141,491.594063668903
142,491.59701028588586
143,491.5989685144728
144,491.5999634918518
145,491.6000491101258
146,491.5993062366995
147,491.59783945210313
148,491.59577252060876
149,491.5932428095208
150,491.5903948093369
151,491.58737285946734
152,491.5843132406359
153,491.5813359450849
154,491.5785365771257
155,491.5759788971538
156,491.5736885235429
157,491.5716482978778
158,491.5697957877781
159,491.5680232862812
160,491.5661804474955
161,491.56407943739305
162,491.5615022553888
163,491.55820972578755
164,491.5539515705788
165,491.5484769761764
166,491.5415451671383
167,491.5329356559137
168,491.5224579700316
169,491.5099607109094
170,491.49533976687064
171,491.4785454181481
172,491.4595879848344
173,491.43854164916615
174,491.41554618870106
175,491.3908065593905
176,491.36459043201734
177,491.33722379439564
178,491.3090846322672
179,491.28059465481033
180,491.25220912051384
181,491.2244049742412
182,491.19766761221894
183,491.1724766478023
184,491.14929115859053
185,491.12853507781807
186,491.11058351540294
187,491.0957507199988
188,491.08428015267236
189,491.07633689314207
190,491.0720024549077
191,491.0712720343741
192,491.07405420597007
193,491.08017308389446
194,491.08937297602796
195,491.1013254789754
196,491.1156387786508
197,491.1318687430763
198,491.14953135817524
199,491.1681161434134
200,491.1871002541048
201,491.2059629477181
202,491.2241999991776
203,491.2413375817239
204,491.2569451309793
205,491.27064674993693
206,491.28213074098426
207,491.2911568611507
208,491.2975609006374
209,491.30125619377793
210,491.3022317422901
211,491.30054683388227
212,491.296322362558
213,491.2897294157837
214,491.280976008929
215,491.27029304092366
216,491.2579205298487
217,491.24409496224973
218,491.2290382873374
219,491.2129488339748
220,491.19599423167466
221,491.17830624652333
222,491.1599773266797
223,491.14105862891853
224,491.121559347502
225,491.10144723847526
226,491.08065031440185
227,491.0590597885482
228,491.0365344297201
229,491.0129064609269
230,490.9879889741614
231,490.96158462122094
232,490.9334951798762
233,490.90353153171503
234,490.8715235913102
235,490.8373297191422
236,490.80084510870665
237,490.7620086463182
238,490.7208078823483
239,490.6772819737341
240,490.63152263789453
241,490.5836732597832
242,490.53392637629275
243,490.48251987105425
244,490.4297323204713
245,490.37587797574145
246,490.32130180291455
247,490.2663748382629
248,490.2114898925431
249,490.1570574097688
250,490.10350109872354
251,490.05125284003987
252,490.0007463693337
253,489.9524094072444
254,489.9066542575554
255,489.86386729198404
256,489.8243979702758
257,489.78854800814594
258,489.75656112566725
259,489.72861370981184
260,489.7048068227166
261,489.6851601832608
262,489.66960882450377
263,489.6580029530395
264,489.6501111789321
265,489.6456269290627
266,489.6441776355189
267,489.64533621066715
268,489.6486342958409
269,489.65357671780527
270,489.65965649327205
271,489.6663696295669
272,489.67322893927764
273,489.6797761769835
274,489.6855920323236
275,489.69030380239
276,489.69359078927863
277,489.6951875457008
278,489.6948850630581
279,489.69252998415
280,489.6880220146634
281,489.68130988132503
282,489.6723863352924
283,489.6612827333861
284,489.64806364048485
285,489.63282175840635
286,489.6156733822002
287,489.59675453848615
288,489.5762179280301
289,489.5542307132875
290,489.53097305971215
291,489.506637234832
292,489.481427061015
293,489.455557586166
294,489.4292548992843
295,489.4027560101006
296,489.3763086246581
297,489.3501705370994
298,489.3246083321391
299,489.29989524106617
300,489.27630827215177
301,489.25412495771815
302,489.23362004476604
303,489.2150622039058
304,489.1987105361209
305,489.1848105346653
306,489.173589273151
307,489.1652498409813
308,489.1599652871887
309,489.15787246682874
310,489.15906618949623
311,489.16359398781793
312,489.1714517252488
313,489.1825802116373
314,489.19686302050945
315,489.2141257747667
316,489.23413720745265
317,489.25661223310146
318,489.28121707162774
319,489.30757622461215
320,489.33528092111493
321,489.3638985923128
322,489.3929829883586
323,489.4220846531001
324,489.45076156963785
325,489.47858987405914
326,489.50517460653737
327,489.5301604769585
328,489.553242482641
329,489.57417592596175
330,489.5927850889825
331,489.60896973668486
332,489.6227088224955
333,489.63406114841837
334,489.6431631052302
335,489.65022390204865
336,489.65551889473056
337,489.65938168773044
338,489.66219552457653
339,489.6643841629289
340,489.66640217304746
341,489.66872453571773
342,489.67183548302404
343,489.6762166277837
344,489.6823345677315
345,489.6906283546034
346,489.7014974438126
347,489.7152908994463
348,489.7322986320277
349,489.7527452250569
350,489.77678648504656
351,489.8045083842791
352,489.8359277373647
353,489.8709938546739
354,489.9095905556586
355,489.95153823569683
356,489.9965960102482
357,490.04446415771775
358,490.0947871066356
359,490.14715713877354
360,490.2011189055524
361,490.25617481624937
362,490.31179133959694
363,490.3674062603871
364,490.422436939905
365,490.4762896001402
366,490.5283695644229
367,490.57809230197154
368,490.6248951365198
369,490.668249583736
370,490.70767432009416
371,490.7427486035048
372,490.77312560520164
373,490.79854479189646
374,490.81884241325287
375,490.8339593030052
376,490.84394542741063
377,490.848960788541
378,490.849272455499
379,490.8452477528034
380,490.8373439718709
381,490.82609528525165
382,490.812097770339
383,490.7959935835606
384,490.7784553300983
385,490.7601715039963
386,490.74183358738077
387,490.7241251140423
388,490.70771275878707
389,490.6932392653743
390,490.6813177596505
391,490.67252677267044
392,490.66740522315183
393,490.6664467559771
394,490.67009317247073
395,490.6787270717438
396,490.69266410194
397,490.71214535912577
398,490.73733052424603
399,490.7682923320981
400,490.80501290097715
401,490.8473823028535
402,490.8951995521468
403,490.9481759745957
404,491.0059407097251
405,491.0680479465308
406,491.13398545614467
407,491.2031840704762
408,491.2750278769304
409,491.34886495529713
410,491.42401843992985
411,491.4997976207666
412,491.5755088270625
413,491.6504659939372
414,491.7240009578313
415,491.7954735324788
416,491.86428131243355
417,491.92986904247147
418,491.9917373214983
419,492.049450377452
420,492.10264267220435
421,492.15102417112024
422,492.1943841710387
423,492.2325935648932
424,492.2656054009833
425,492.29345369962795
426,492.31625070609516
427,492.33418290786653
428,492.3475061070937
429,492.3565396999613
430,492.3616602354518
431,492.36329436322603
432,492.36191137011093
433,492.3580155566378
434,492.3521386653723
435,492.3448324331173
436,492.3366611347869
437,492.32819379781023
438,492.3199956844515
439,492.3126187033056
440,492.3065905833722
441,492.3024028615545
442,492.3004979488306
443,492.3012557204587
444,492.3049802171492
445,492.31188718128953
446,492.3220933045021
447,492.33560815721916
448,492.35232969480217
449,492.3720439799692
450,492.3944294290327
451,492.419065554498
452,492.44544583359124
453,492.47299397018213
454,492.50108248921504
455,492.52905241469244
456,492.55623282252265
457,492.58195931460875
458,492.60559080127
459,492.6265242613295
460,492.64420732607107
461,492.65814864098417
462,492.6679260209464
463,492.6731924116912
464,492.6736796036929
465,492.66919958090904
466,492.65964343284384
467,492.64497797288607
468,492.62524051363056
469,492.60053248266115
470,492.57101261640474
471,492.5368903670828
472,492.49841996358623
473,492.45589533147154
474,492.4096458248844
475,492.3600324553183
476,492.30744406994256
477,492.2522928725836
478,492.1950088726395
479,492.1360331842698
480,492.07581037156956
481,492.0147801042909
482,491.95336827309006
483,491.8919775853597
484,491.8309777181211
485,491.77069538428407
486,491.7114050214136
487,491.6533210419857
488,491.5965925969176
489,491.54130161688954
490,491.4874645779414
491,491.4350380654539
492,491.3839278405293
493,491.3340007994275
494,491.2850990336259
495,491.23705516480845
496,491.1897081446692
497,491.142918654827
498,491.0965831298455
499,491.050645378735
500,491.0051048851545
501,490.9600211063797
502,490.91551338891674
503,490.8717564025484
504,490.82897122785414
505,490.7874124258677
506,490.7473516283829
507,490.7090584603239
508,490.67277990879444
509,490.6387194930121
510,490.6070176970963
511,490.57773508332303
512,490.5508393021148
513,490.5261968874471
514,490.5035703630917
515,490.4826208608447
516,490.4629161501909
517,490.44394366105087
518,490.42512779492046
519,490.4058506601073
520,490.3854753423593
521,490.363370831528
522,490.338937682681
523,490.31163341573
524,490.28099661216424
525,490.2466686618275
526,490.2084121196227
527,490.16612464927357
528,490.1198476067771
529,490.0697685310055
530,490.016217215476
531,489.9596555709548
532,489.90066198679045
533,489.8399112324548
534,489.77815110543764
535,489.71617706880966
536,489.6548060512825
537,489.5948504425861
538,489.53709318226345
539,489.4822647611355
540,489.43102290914334
541,489.3839356579292
542,489.3414682922679
543,489.30397446623243
544,489.27169152602215
545,489.24473990935786
546,489.2231264082148
547,489.2067510601465
548,489.1954173772628
549,489.1888454343526
550,489.18668703625355
551,489.18854192433344
552,489.1939739343345
553,489.20252622050907
554,489.2137349879834
555,489.2271414447943
556,489.242301804225
557,489.25879519326753
558,489.27622937557
559,489.2942443356918
560,489.31251396579154
561,489.3307462784548
562,489.3486826746446
563,489.3660967850402
564,489.38279327471685
565,489.3986067835266
566,489.41340092245207
567,489.42706702955155
568,489.43952226880464
569,489.450706657314
570,489.46057871120814
571,489.46910958656383
572,489.4762758712061
573,489.4820515261557
574,489.48639974618453
575,489.4892655884239
576,489.4905701567651
577,489.4902070754096
578,489.4880419747015
579,489.48391564704445
580,489.4776513392316
581,489.4690663437606
582,489.4579876458668
583,489.4442708958773
584,489.42782152517833
585,489.4086165387021
586,489.3867253909292
587,489.3623283072233
588,489.33573047155534
589,489.3073707694947
590,489.2778242498334
591,489.2477979741198
592,489.218120261037
593,489.18972346719175
594,489.16362053320853
595,489.1408757698241
596,489.1225708447918
597,489.1097675155724
598,489.1034690618037
599,489.10458246513457
600,489.113883257872
601,489.13198473705
602,489.159312903867
603,489.19608802849547
604,489.24231327269706
605,489.2977704417332
606,489.3620226693453
607,489.4344236193851
608,489.51413263293523
609,489.60013516380684
610,489.69126776825243
611,489.7862468243436
612,489.8837001119384
613,489.9822004112805
614,490.0803002943835
615,490.1765671974992
616,490.26961770502135
617,490.3581498734065
618,490.44097247494966
619,490.5170302375473
620,490.5854244156532
621,490.6454282621439
622,490.6964971374268
623,490.7382731002728
624,490.7705839231009
625,490.79343662752956
626,490.8070058697687
627,490.81161775879457
628,490.8077298788231
629,490.7959084203194
630,490.7768034677851
631,490.75112362477836
632,490.71961116980054
633,490.68301879448705
634,490.64208875013554
635,490.5975349943687
636,490.55002871363513
637,490.5001874149548
638,490.44856764452885
639,490.39566129125586
640,490.34189533843346
641,490.28763479182606
642,490.23318830350206
643,490.178815782314
644,490.1247371829347
645,490.0711417796095
646,490.0181974552563
647,489.9660596983504
648,489.9148800140978
649,489.8648133404825
650,489.8160239186671
651,489.76868906007473
652,489.7230004455378
653,489.67916286837647
654,489.6373905490861
655,489.5979013077403
656,489.56090904996074
657,489.5266151763071
658,489.4951995779587
659,489.46681181242093
660,489.44156290367533
661,489.4195180305752
662,489.40069020369754
663,489.3850349413661
664,489.37244599768036
665,489.3627523723507
666,489.35571702236723
667,489.3510377104005
668,489.3483501874502
669,489.3472335402738
670,489.34721726170045
671,489.34778955997035
672,489.34840654188366
673,489.3485020017174
674,489.34749754056895
675,489.3448127094651
676,489.3398749260037
677,489.3321290749396
678,489.3210468929394
679,489.30613635369787
680,489.28695123102807
681,489.26310082536736
682,489.23425960112996
683,489.20017631527514
684,489.16068213853754
685,489.1156972459342
686,489.06523539999074
687,489.00940620977974
688,488.94841498287775
689,488.8825602786522
690,488.8122293514153
691,488.73789169265234
692,488.6600909076345
693,488.57943515872114
694,488.4965863172114
695,488.412247828894
696,488.3271512291201
697,488.24204131890144
698,488.15766021158277
699,488.07473066899695
700,487.9939392604772
701,487.91591988334307
702,487.84123813466357
703,487.77037698055534
704,487.7037241753533
705,487.641561953907
706,487.58405960573975
707,487.53126952749096
708,487.4831271518411
709,487.43945480803643
710,487.3999692408439
711,487.3642923308659
712,487.331964501965
713,487.302460259036
714,487.2752052085078
715,487.24959382559115
716,487.2250072343628
717,487.2008303675587
718,487.1764680031077
719,487.15135929518453
720,487.12499056060267
721,487.09690627063134
722,487.0667183812735
723,487.03411421299535
724,486.9988630091985
725,486.96082111062753
726,486.9199355061515
727,486.87624546520226
728,486.82988203085444
729,486.78106528818137
730,486.73009948615385
731,486.6773663130516
732,486.62331688790067
733,486.568463194587
734,486.51336960444735
735,486.4586448234507
736,486.4049342372907
737,486.35291237676006
738,486.30327512220754
739,486.256731254551
740,486.21399298523875
741,486.17576514586716
742,486.14273281865144
743,486.11554737604905
744,486.0948111635722
745,486.0810613406763
746,486.0747535995753
747,486.07624654068314
748,486.08578740716194
749,486.10349976654584
750,486.12937365357584
751,486.16325863937107
752,486.2048602290866
753,486.2537399384734
754,486.3093193972286
755,486.37088882158827
756,486.43762006279457
757,486.5085841098964
758,486.5827725029001
759,486.65912176923365
760,486.73653983038656
761,486.81393331061446
762,486.890234714513
763,486.9644284366445
764,487.03557455030045
765,487.1028294273329
766,487.1654625353352
767,487.22286912474055
768,487.2745787882732
769,487.3202600445059
770,487.3597212894661
771,487.39290869030197
772,487.419901711102
773,487.4409068512126
774,487.45624991995777
775,487.4663669442678
776,487.4717937081321
777,487.47315392459586
778,487.4711460524789
779,487.4665287518924
780,487.46010497164895
781,487.4527047410473
782,487.4451669002772
783,487.4383201850897
784,487.43296421156896
785,487.4298509658363
786,487.4296674299229
787,487.4330200113883
788,487.4404214654048
789,487.45228090649397
790,487.468897240425
791,487.4904559866727
792,487.5170291873667
793,487.54857803189714
794,487.5849579441358
795,487.6259260371436
796,487.67115087105645
797,487.7202243012404
798,487.77267498882424
799,487.8279830221942
800,487.88559512353316
801,487.94494003564307
802,488.0054438093747
803,488.0665447620629
804,488.12770781910154
805,488.18843782420726
806,488.2482913031085
807,488.3068861713817
808,488.36390899138377
809,488.4191195147611
810,488.4723523023122
811,488.5235152230453
812,488.57258473753376
813,488.6195981315924
814,488.6646431750354
815,488.70784589305396
816,488.7493572519836
817,488.78933966130444
818,488.8279542756375
819,488.8653500452592
820,488.9016552689536
821,488.9369721194404
822,488.9713743283908
823,489.0049079743587
824,489.0375951119457
825,489.06943977964687
826,489.1004356893105
827,489.1305746784784
828,489.1598549360435
829,489.1882881698874
830,489.2159051725444
831,489.2427594839131
832,489.26892898627625
833,489.29451535593137
834,489.3196413931534
835,489.34444635947176
836,489.3690795738255
837,489.39369268944097
838,489.4184312718136
839,489.4434264093223
840,489.4687870139841
841,489.49459325399334
842,489.5208913326184
843,489.5476896763342
844,489.57495652077125
845,489.6026188428407
846,489.6305625401276
847,489.65863369257283
848,489.6866406752494
849,489.7143568578569
850,489.7415236515818
851,489.76785374536774
852,489.79303448696817
853,489.816731490141
854,489.8385926818027
855,489.85825312308475
856,489.87534100050107
857,489.8894851295387
858,489.90032411062816
859,489.9075169835019
860,489.91075498214815
861,489.90977388787866
862,489.9043664493943
863,489.8943942721167
864,489.8797984667388
865,489.86060830390556
866,489.8369472692387
867,489.80903623707326
868,489.77719380110534
869,489.74183391273766
870,489.70346084939246
871,489.66266132524873
872,489.62009347260505
873,489.57647257220384
874,489.5325537602106
875,489.4891123408609
876,489.44692262373746
877,489.40673632540063
878,489.3692615947601
879,489.33514370822223
880,489.3049484006931
881,489.27914858464555
882,489.2581148785015
883,489.2421100096373
884,489.2312868501878
885,489.2256896127212
886,489.2252576109215
887,489.22983103180974
888,489.23915837382236
889,489.2529054713305
890,489.2706661806877
891,489.29197474371915
892,489.31631963307046
893,489.3431584835685
894,489.37193361855304
895,489.40208765192784
896,489.4330786208057
897,489.46439407352307
898,489.49556354344054
