frame_number,force
0,491.01045028038334
1,490.99455999769134
2,490.97066400347865
3,490.93927023377245
4,490.90099745355445
5,490.8565599453521
6,490.80675048586045
7,490.75242227657867
8,490.6944704843746
9,490.6338139882462
10,490.5713777705169
11,490.5080761833157
12,490.44479721864514
13,490.38238800554996
14,490.3216419774752
15,490.26328832972445
16,490.20798437286857
17,490.1563111158546
18,490.1087719504779
19,490.0657938568762
20,490.02773030289103
21,489.99486501147044
22,489.96741591478684
23,489.94553876882725
24,489.92933001834757
25,489.91882863203784
26,489.9140168270768
27,489.9148198173755
28,489.92110484493054
29,489.9326797943623
30,489.94929175916343
31,489.97062606602356
32,489.9963063739261
33,490.02589643011925
34,490.05890386475346
35,490.0947861256332
36,490.1329584213019
37,490.1728034293225
38,490.21368251060966
39,490.2549481803027
40,490.2959575847547
41,490.336086703918
42,490.3747449148948
43,490.4113894388567
44,490.4455391239739
45,490.47678702100114
46,490.5048112212508
47,490.52938337532817
48,490.55037424091125
49,490.56775567414735
50,490.5815987627795
51,490.592068198565
52,490.5994133417169
53,490.60395665618756
54,490.6060802733849
55,490.6062114024809
56,490.60480722233297
57,490.6023398180979
58,490.5992816546779
59,490.5960919829072
60,490.59320446984435
61,490.5910162796961
62,490.5898788197385
63,490.5900903520033
64,490.5918905911555
65,490.5954572676505
66,490.60090451651246
67,490.6082829281807
68,490.61758115048326
69,490.62872899283553
70,490.64160202977155
71,490.6560277354353
72,490.67179316829856
73,490.688654113703
74,490.7063453899177
75,490.7245918005054
76,490.743119058501
77,490.7616640057328
78,490.7799836341109
79,490.7978626795143
80,490.8151197383158
81,490.8316118866814
82,490.84723772578764
83,490.8619387389746
84,490.875698906038
85,490.8885426658317
86,490.90053146524355
87,490.91175921700994
88,490.9223470276228
89,490.9324375787003
90,490.9421895137157
91,490.951772044269
92,490.96135978946137
93,490.9711277227348
94,490.9812460926754
95,490.9918752658661
96,491.0031605364563
97,491.01522703467896
98,491.0281749634406
99,491.0420754887694
100,491.0569676345956
101,491.07285642675635
102,491.08971235255075
103,491.10747208194437
104,491.1260403922919
105,491.14529328651173
106,491.1650822984098
107,491.185239901525
108,491.205585811899
109,491.2259338569061
110,491.24609903076043
111,491.26590440986627
112,491.28518770829663
113,491.3038072996948
114,491.3216474726414
115,491.3386225997169
116,491.3546798774218
117,491.36980035737264
118,491.38399812307614
119,491.39731764532684
120,491.4098295254394
121,491.4216249605234
122,491.43280932107695
123,491.4434952234676
124,491.45379543177216
125,491.4638158869819
126,491.4736491834606
127,491.483368877247
128,491.4930250443018
129,491.50264143883356
130,491.5122144213179
131,491.52171360072253
132,491.531083979556
133,491.5402493604399
134,491.5491167958719
135,491.5575818316087
136,491.5655342202693
137,491.5728637680332
138,491.5794660596679
139,491.5852479114575
140,491.5901324478914
141,491.59406366867967
142,491.59701028564785
143,491.59896851421945
144,491.5999634915831
145,491.60004910984253
146,491.5993062364028
147,491.59783945179436
148,491.5957725202899
149,491.5932428091942
150,491.5903948090045
151,491.5873728591313
152,491.58431324029823
153,491.58133594474793
154,491.5785365767917
155,491.5759788968252
156,491.573688523222
157,491.5716482975669
158,491.5697957874791
159,491.5680232859955
160,491.5661804472238
161,491.56407943713515
162,491.56150225514386
163,491.55820972555443
164,491.553951570356
165,491.5484769759623
166,491.54154516693114
167,491.5329356557121
168,491.5224579698343
169,491.5099607107157
170,491.4953397666803
171,491.478545417961
172,491.45958798465057
173,491.43854164898517
174,491.41554618852206
175,491.39080655921254
176,491.36459043183925
177,491.3372237942159
178,491.30908463208425
179,491.28059465462246
180,491.252209120319
181,491.2244049740371
182,491.1976676120034
183,491.1724766475732
184,491.1492911583462
185,491.12853507755733
186,491.1105835151249
187,491.09575071970335
188,491.0842801523602
189,491.0763368928143
190,491.07200245456545
191,491.07127203401853
192,491.07405420560247
193,491.08017308351594
194,491.0893729756393
195,491.1013254785771
196,491.11563877824335
197,491.1318687426605
198,491.1495313577525
199,491.1681161429857
200,491.18710025367454
201,491.2059629472881
202,491.2241999987514
203,491.2413375813054
204,491.25694513057255
205,491.27064674954556
206,491.282130740612
207,491.29115686080075
208,491.2975609003126
209,491.3012561934801
210,491.30223174202047
211,491.3005468336416
212,491.2963223623461
213,491.2897294155994
214,491.2809760087704
215,491.27029304078826
216,491.2579205297334
217,491.2440949621507
218,491.2290382872509
219,491.2129488338968
220,491.1959942316011
221,491.1783062464505
222,491.1599773266042
223,491.1410586288371
224,491.12155934741173
225,491.1014472383735
226,491.08065031428623
227,491.0590597884166
228,491.03653442957057
229,491.0129064607578
230,490.98798897397114
231,490.96158462100794
232,490.9334951796389
233,490.9035315314518
234,490.8715235910196
235,490.8373297188229
236,490.80084510835815
237,490.76200864594057
238,490.72080788194233
239,490.67728197330064
240,490.6315226374343
241,490.583673259297
242,490.53392637578145
243,490.4825198705191
244,490.42973231991414
245,490.3758779751643
246,490.3213018023198
247,490.2663748376534
248,490.21148989192244
249,490.1570574091403
250,490.1035010980905
251,490.0512528394054
252,490.0007463687009
253,489.9524094066167
254,489.906654256936
255,489.8638672913758
256,489.82439796968123
257,489.78854800756716
258,489.7565611251061
259,489.72861370927023
260,489.7048068221965
261,489.68516018276415
262,489.6696088240322
263,489.65800295259396
264,489.6501111785131
265,489.6456269286704
266,489.6441776351532
267,489.6453362103279
268,489.64863429552776
269,489.65357671751735
270,489.6596564930081
271,489.66636962932506
272,489.6732289390556
273,489.67977617677815
274,489.68559203213107
275,489.690303802206
276,489.6935907890986
277,489.6951875455202
278,489.69488506287234
279,489.6925299839544
280,489.6880220144533
281,489.6813098810963
282,489.6723863350412
283,489.66128273310915
284,489.64806364018006
285,489.63282175807296
286,489.6156733818391
287,489.59675453809893
288,489.5762179276189
289,489.55423071285486
290,489.5309730592609
291,489.5066372343655
292,489.48142706053704
293,489.4555575856806
294,489.4292548987957
295,489.402756009613
296,489.3763086241752
297,489.3501705366244
298,489.32460833167465
299,489.2998952406141
300,489.2763082717133
301,489.2541249572942
302,489.23362004435745
303,489.2150622035129
304,489.19871053574406
305,489.18481053430486
306,489.17358927280753
307,489.1652498406553
308,489.1599652868803
309,489.15787246653736
310,489.1590661892206
311,489.16359398755617
312,489.17145172499846
313,489.1825802113956
314,489.1968630202736
315,489.2141257745339
316,489.2341372072202
317,489.25661223286744
318,489.28121707139127
319,489.3075762243731
320,489.335280920874
321,489.3638985920715
322,489.3929829881188
323,489.42208465286393
324,489.45076156940735
325,489.4785898738361
326,489.50517460632295
327,489.53016047675345
328,489.55324248244534
329,489.5741759257749
330,489.5927850888032
331,489.6089697365113
332,489.6227088223256
333,489.6340611482502
334,489.6431631050617
335,489.65022390187727
336,489.65551889455367
337,489.65938168754565
338,489.66219552438156
339,489.66438416272155
340,489.6664021728252
341,489.6687245354782
342,489.6718354827651
343,489.6762166275033
344,489.6823345674277
345,489.6906283542742
346,489.70149744345656
347,489.7152908990626
348,489.7322986316166
349,489.7527452246195
350,489.7767864845847
351,489.8045083837951
352,489.83592773686166
353,489.87099385415513
354,489.90959055512775
355,489.9515382351575
356,489.9965960097042
357,490.0444641571734
358,490.0947871060954
359,490.14715713824177
360,490.2011189050331
361,490.2561748157469
362,490.3117913391155
363,490.3674062599307
364,490.4224369394774
365,490.47628959974435
366,490.52836956406134
367,490.5780923016457
368,490.6248951362303
369,490.66824958348207
370,490.7076743198739
371,490.7427486033151
372,490.7731256050382
373,490.79854479175447
374,490.818842413127
375,490.8339593028901
376,490.8439454273008
377,490.84896078843104
378,490.8492724553834
379,490.845247752677
380,490.837343971729
381,490.8260952850904
382,490.81209777015516
383,490.79599358335184
384,490.7784553298632
385,490.7601715037339
386,490.74183358709075
387,490.72412511372494
388,490.7077127584434
389,490.69323926500573
390,490.6813177592589
391,490.67252677225866
392,490.6674052227236
393,490.6664467555368
394,490.67009317202354
395,490.67872707129544
396,490.6926641014961
397,490.7121453586916
398,490.73733052382636
399,490.7682923316969
400,490.80501290059783
401,490.84738230249854
402,490.89519955181817
403,490.94817597429477
404,491.00594070945243
405,491.068047946286
406,491.13398545592645
407,491.203184070282
408,491.2750278767569
409,491.3488649551404
410,491.4240184397856
411,491.49979762062986
412,491.57550882692806
413,491.6504659938003
414,491.7240009576879
415,491.7954735323256
416,491.8642813122685
417,491.929869042293
418,491.991737321305
419,492.0494503772427
420,492.10264267197834
421,492.1510241708772
422,492.19438417077833
423,492.23259356461534
424,492.2656054006879
425,492.2934536993153
426,492.31625070576615
427,492.3341829075225
428,492.34750610673615
429,492.35653969959156
430,492.36166023507144
431,492.36329436283694
432,492.36191136971485
433,492.3580155562362
434,492.35213866496673
435,492.34483243270904
436,492.336661134377
437,492.3281937973997
438,492.3199956840414
439,492.31261870289745
440,492.3065905829682
441,492.30240286115685
442,492.3004979484414
443,492.30125572008006
444,492.3049802167829
445,492.3118871809371
446,492.3220933041646
447,492.33560815689725
448,492.3523296944967
449,492.3720439796808
450,492.39442942876195
451,492.4190655542453
452,492.44544583335727
453,492.4729939699677
454,492.50108248902103
455,492.5290524145193
456,492.55623282237053
457,492.58195931447756
458,492.60559080115905
459,492.62652426123753
460,492.6442073259964
461,492.65814864092465
462,492.6679260208998
463,492.6731924116552
464,492.6736796036649
465,492.6691995808867
466,492.6596434328253
467,492.6449779728697
468,492.62524051361464
469,492.60053248264404
470,492.57101261638456
471,492.53689036705754
472,492.49841996355383
473,492.45589533143
474,492.40964582483224
475,492.36003245525427
476,492.30744406986526
477,492.2522928724919
478,492.1950088725325
479,492.1360331841474
480,492.0758103714318
481,492.0147801041382
482,491.9533682729229
483,491.89197758517855
484,491.8309777179263
485,491.7706953840761
486,491.7114050211928
487,491.65332104175206
488,491.59659259667086
489,491.5413016166293
490,491.4874645776673
491,491.4350380651656
492,491.38392784022693
493,491.33400079911195
494,491.2850990332984
495,491.2370551644708
496,491.1897081443238
497,491.1429186544765
498,491.0965831294926
499,491.0506453783823
500,491.0051048848043
501,490.9600211060344
502,490.9155133885782
503,490.87175640221835
504,490.8289712275344
505,490.7874124255599
506,490.74735162808855
507,490.7090584600441
508,490.6727799085298
509,490.63871949276245
510,490.60701769686085
511,490.5777350831005
512,490.55083930190335
513,490.5261968872444
514,490.50357036289535
515,490.48262086065193
516,490.462916149999
517,490.44394366085726
518,490.4251277947227
519,490.40585065990354
520,490.3854753421481
521,490.3633708313083
522,490.3389376824522
523,490.31163341549217
524,490.2809966119177
525,490.2466686615731
526,490.2084121193617
527,490.1661246490076
528,490.1198476065082
529,490.06976853073576
530,490.0162172152077
531,489.9596555706901
532,489.9006619865315
533,489.8399112322035
534,489.7781511051956
535,489.71617706857785
536,489.6548060510612
537,489.59485044237493
538,489.53709318206154
539,489.4822647609415
540,489.4310229089556
541,489.3839356577459
542,489.3414682920874
543,489.3039744660529
544,489.27169152584145
545,489.2447399091741
546,489.2231264080267
547,489.20675105995304
548,489.19541737706305
549,489.188845434146
550,489.1866870360401
551,489.1885419241135
552,489.1939739341088
553,489.2025262202782
554,489.2137349877485
555,489.22714144455676
556,489.2423018039859
557,489.25879519302765
558,489.27622937532993
559,489.29424433545205
560,489.3125139655522
561,489.33074627821554
562,489.34868267440453
563,489.36609678479806
564,489.3827932744708
565,489.3986067832749
566,489.41340092219303
567,489.4270670292839
568,489.4395222685274
569,489.45070665702656
570,489.46057871091
571,489.4691095862552
572,489.4762758708879
573,489.48205152582915
574,489.48639974585114
575,489.4892655880854
576,489.49057015642336
577,489.4902070750667
578,489.4880419743592
579,489.48391564670413
580,489.47765133889413
581,489.46906634342616
582,489.45798764553507
583,489.4442708955476
584,489.4278215248506
585,489.40861653837663
586,489.38672539060724
587,489.36232830690636
588,489.33573047124486
589,489.307370769192
590,489.27782424954
591,489.24779797383735
592,489.2181202607672
593,489.18972346693675
594,489.1636205329704
595,489.14087576960486
596,489.12257084459327
597,489.10976751539596
598,489.10346906164995
599,489.10458246500303
600,489.1138832577611
601,489.131984736957
602,489.1593129037884
603,489.1960880284275
604,489.2423132726359
605,489.29777044167525
606,489.3620226692871
607,489.43442361932335
608,489.5141326328671
609,489.60013516372993
610,489.69126776816455
611,489.78624682424237
612,489.8837001118211
613,489.98220041114416
614,490.0803002942255
615,490.17656719731707
616,490.2696177048134
617,490.35814987317235
618,490.44097247469017
619,490.51703023726435
620,490.58542441534934
621,490.64542826182225
622,490.69649713709094
623,490.73827309992663
624,490.77058392274836
625,490.7934366271741
626,490.80700586941316
627,490.8116177584409
628,490.80772987847234
629,490.79590841997157
630,490.7768034674393
631,490.7511236244332
632,490.71961116945397
633,490.683018794137
634,490.6420887497804
635,490.59753499400733
636,490.5500287132673
637,490.5001874145805
638,490.4485676441488
639,490.39566129087103
640,490.3418953380448
641,490.28763479143396
642,490.23318830310654
643,490.1788157819156
644,490.1247371825345
645,490.07114177920863
646,490.0181974548563
647,489.9660596979526
648,489.9148800137029
649,489.86481334009136
650,489.8160239182809
651,489.7686890596948
652,489.72300044516527
653,489.67916286801204
654,489.6373905487298
655,489.59790130739174
656,489.56090904961883
657,489.52661517597005
658,489.49519957762436
659,489.46681181208663
660,489.4415629033383
661,489.4195180302331
662,489.400690203349
663,489.38503494101025
664,489.3724459973168
665,489.36275237197947
666,489.3557170219888
667,489.35103771001576
668,489.3483501870608
669,489.34723353988187
670,489.3472172613084
671,489.34778955958063
672,489.3484065414986
673,489.34850200133906
674,489.3474975401989
675,489.34481270910464
676,489.3398749256538
677,489.33212907460114
678,489.321046892613
679,489.3061363533842
680,489.2869512307279
681,489.2631008250808
682,489.23425960085643
683,489.2001763150133
684,489.1606821382856
685,489.11569724568983
686,489.06523539975126
687,489.00940620954225
688,488.9484149826394
689,488.88256027841066
690,488.8122293511686
691,488.7378916923989
692,488.6600909073734
693,488.5794351584519
694,488.4965863169341
695,488.41224782860934
696,488.3271512288292
697,488.242041318606
698,488.1576602112847
699,488.0747306686985
700,487.9939392601804
701,487.9159198830493
702,487.8412381343736
703,487.7703769802698
704,487.7037241750724
705,487.64156195363097
706,487.58405960546855
707,487.5312695272247
708,487.48312715157954
709,487.4394548077793
710,487.399969240591
711,487.36429233061716
712,487.33196450172045
713,487.30246025879575
714,487.2752052082716
715,487.2495938253586
716,487.2250072341334
717,487.20083036733115
718,487.1764680028805
719,487.1513592949562
720,487.12499056037194
721,487.09690627039726
722,487.0667183810352
723,487.0341142127522
724,486.9988630089503
725,486.9608211103747
726,486.9199355058945
727,486.87624546494146
728,486.82988203058983
729,486.78106528791284
730,486.7300994858815
731,486.677366312776
732,486.6233168876223
733,486.5684631943066
734,486.5133696041658
735,486.45864482316966
736,486.40493423701264
737,486.3529123764874
738,486.30327512194276
739,486.2567312542966
740,486.2139929849972
741,486.1757651456411
742,486.14273281844316
743,486.1155473758609
744,486.0948111634061
745,486.0810613405335
746,486.0747535994562
747,486.0762465405874
748,486.0857874070883
749,486.10349976649235
750,486.1293736535401
751,486.1632586393505
752,486.2048602290785
753,486.2537399384751
754,486.309319397237
755,486.37088882160003
756,486.4376200628064
757,486.50858410990486
758,486.5827725029018
759,486.6591217692248
760,486.7365398303635
761,486.8139333105738
762,486.89023471445176
763,486.9644284365607
764,487.0355745501929
765,487.102829427201
766,487.16546253517896
767,487.2228691245603
768,487.27457878806996
769,487.32026004428144
770,487.35972128922253
771,487.39290869004196
772,487.41990171082864
773,487.44090685092925
774,487.4562499196677
775,487.46636694397404
776,487.47179370783755
777,487.4731539243031
778,487.47114605218974
779,487.46652875160805
780,487.4601049713701
781,487.452704740774
782,487.445166900009
783,487.43832018482567
784,487.4329642113079
785,487.4298509655769
786,487.4296674296644
787,487.4330200111299
788,487.44042146514613
789,487.4522809062349
790,487.4688972401658
791,487.4904559864136
792,487.5170291871079
793,487.54857803163867
794,487.58495794387824
795,487.62592603688796
796,487.6711508708043
797,487.7202243009936
798,487.7726749885849
799,487.8279830219643
800,487.8855951233144
801,487.9449400354366
802,488.00544380918166
803,488.06654476188413
804,488.1277078189378
805,488.1884378240591
806,488.2482913029766
807,488.30688617126685
808,488.3639089912868
809,488.41911951468285
810,488.47235230225346
811,488.52351522300665
812,488.57258473751546
813,488.6195981315943
814,488.66464317505694
815,488.7078458930943
816,488.7493572520417
817,488.78933966137913
818,488.82795427572773
819,488.8653500453636
820,488.9016552690702
821,488.9369721195668
822,488.9713743285239
823,489.0049079744946
824,489.03759511208006
825,489.0694397797752
826,489.10043568942825
827,489.13057467858124
828,489.1598549361276
829,489.18828816994966
830,489.2159051725821
831,489.24275948392415
832,489.26892898625914
833,489.2945153558854
834,489.31964139307877
835,489.34444635936956
836,489.36907957369704
837,489.39369268928766
838,489.4184312716372
839,489.44342640912527
840,489.4687870137695
841,489.49459325376466
842,489.52089133237956
843,489.547689676089
844,489.57495652052376
845,489.6026188425946
846,489.6305625398862
847,489.6586336923389
848,489.68664067502556
849,489.7143568576453
850,489.74152365138445
851,489.76785374518647
852,489.7930344868043
853,489.8167314899952
854,489.8385926816754
855,489.85825312297584
856,489.87534100040983
857,489.8894851294636
858,489.90032411056677
859,489.90751698345116
860,489.91075498210427
861,489.90977388783756
862,489.90436644935187
863,489.8943942720692
864,489.8797984666824
865,489.8606083038368
866,489.836947269154
867,489.8090362369693
868,489.7771938009795
869,489.7418339125881
870,489.7034608492181
871,489.6626613250495
872,489.6200934723815
873,489.5764725719568
874,489.53255375994144
875,489.4891123405717
876,489.44692262343045
877,489.4067363250783
878,489.36926159442504
879,489.33514370787753
880,489.3049484003422
881,489.2791485842924
882,489.25811487815
883,489.2421100092915
884,489.23128684985153
885,489.2256896123983
886,489.2252576106155
887,489.22983103152393
888,489.23915837355986
889,489.25290547109387
890,489.2706661804787
891,489.29197474353924
892,489.3163196329209
893,489.3431584834497
894,489.3719336184644
895,489.4020876518678
896,489.43307862077177
897,489.46439407351227
