frame_number,force
0,490.2784308787071
1,490.2719917213768
2,490.26653681045786
3,490.26198148102986
4,490.25824529323177
5,490.25525235710916
6,490.2529315879965
7,490.25121689477436
8,490.25004730402367
9,490.24936702359025
10,490.24912544921625
11,490.2492771178356
12,490.2497816113209
13,490.25060341517974
14,490.2517117377112
15,490.2530802959481
16,490.25468707489017
17,490.25651406587025
18,490.25854698860405
19,490.26077500014435
20,490.2631903931776
21,490.2657882859976
22,490.26856630675655
23,490.2715242748422
24,490.274663882318
25,490.2779883784511
26,490.2815022606135
27,490.28521097512305
28,490.2891206315829
29,490.29323773400085
30,490.29756893176994
31,490.30212079359086
32,490.3068996073388
33,490.31191120837593
34,490.3171608378296
35,490.3226530311556
36,490.32839153626975
37,490.334379259881
38,490.3406182403268
39,490.3471096449864
40,490.3538537901275
41,490.36085018077205
42,490.3680975677763
43,490.37559401887853
44,490.3833370001949
45,490.3913234646261
46,490.3995499436816
47,490.4080126391123
48,490.416707510601
49,490.42563035604763
50,490.43477688194446
51,490.44414276265553
52,490.4537236886168
53,490.4635154042997
54,490.47351373717635
55,490.4837146189696
56,490.494114100384
57,490.5047083604522
58,490.515493711569
59,490.52646660113385
60,490.53762361053305
61,490.54896145210995
62,490.56047696482875
63,490.5721671093736
64,490.5840289632509
65,490.5960597160887
66,490.6082566650091
67,490.6206172099008
68,490.63313884858394
69,490.64581917204725
70,490.6586558600663
71,490.6716466776035
72,490.68478947233814
73,490.69808217332485
74,490.71152279016144
75,490.7251094113669
76,490.73884020019034
77,490.7527133860557
78,490.7667272503857
79,490.780880106334
80,490.79517027249193
81,490.80959604073604
82,490.8241556382257
83,490.8388471834709
84,490.8536686365846
85,490.86861774429315
86,490.88369198073957
87,490.89888848539005
88,490.91420399949294
89,490.92963480262694
90,490.94517665079826
91,490.96082471715215
92,490.9765735357749
93,490.99241694865196
94,491.0083480558202
95,491.02435916898463
96,491.04044176914107
97,491.05658646898195
98,491.07278298112067
99,491.0890200934232
100,491.10528565276604
101,491.1215665581815
102,491.13784876377036
103,491.15411729135496
104,491.1703562527767
105,491.1865488818352
106,491.20267757582235
107,491.2187239463222
108,491.2346688785278
109,491.2504925979251
110,491.26617474300105
111,491.28169444275386
112,491.2970303980639
113,491.3121609660995
114,491.32706424672904
115,491.3417181696358
116,491.3561005807487
117,491.37018932678166
118,491.3839623370646
119,491.39739770237696
120,491.4104737510155
121,491.4231691226992
122,491.43546284108135
123,491.4473343856126
124,491.45876376335787
125,491.46973158125763
126,491.4802191193855
127,491.49020840594454
128,491.4996822948375
129,491.5086245464373
130,491.51701991164214
131,491.5248542186208
132,491.53211446118496
133,491.53878888762955
134,491.54486708894564
135,491.5503400852146
136,491.5552004087725
137,491.55944218269343
138,491.5630611933913
139,491.56605495645846
140,491.5684227750078
141,491.5701657897137
142,491.5712870195056
143,491.57179139160775
144,491.57168575960645
145,491.5709789085951
146,491.56968154702577
147,491.5678062853926
148,491.5653676021606
149,491.5623817973848
150,491.55886693430756
151,491.5548427691182
152,491.5503306692558
153,491.54535352112174
154,491.53993562852077
155,491.5341026033692
156,491.52788125025114
157,491.5212994464157
158,491.5143860187625
159,491.50717061906505
160,491.4996835980826
161,491.4919558784923
162,491.48401882597364
163,491.47590411737656
164,491.4676436047225
165,491.45926917386885
166,491.4508125970526
167,491.4423053790859
168,491.43377859746226
169,491.4252627368906
170,491.41678751877777
171,491.408381726029
172,491.40007302337403
173,491.39188777346124
174,491.383850849361
175,491.3759854447959
176,491.3683128839696
177,491.36085243294366
178,491.35362111424706
179,491.34663352628075
180,491.3399016693386
181,491.3334347805011
182,491.3272391799224
183,491.3213181311235
184,491.3156717181271
185,491.31029674269064
186,491.30518664511465
187,491.300331451717
188,491.29571775116676
189,491.29132870092525
190,491.2871440643984
191,491.2831402790262
192,491.279290555263
193,491.27556500619016
194,491.2719308072812
195,491.2683523853767
196,491.26479163515296
197,491.2612081606216
198,491.2575595388925
199,491.2538016035006
200,491.2498887446416
201,491.24577422343134
202,491.2414104969075
203,491.2367495501952
204,491.2317432321893
205,491.22634359118206
206,491.220503206928
207,491.21417551567123
208,491.20731512469956
209,491.199878113065
210,491.19182231538446
211,491.1831075863266
212,491.1736960444476
213,491.1635522952184
214,491.1526436341456
215,491.14094023159083
216,491.12841530098626
217,491.1150452516129
218,491.1008098263527
219,491.0856922242152
220,491.0696792069986
221,491.0527611890842
222,491.0349323091608
223,491.01619048274756
224,490.9965374346763
225,490.9759787110468
226,490.954523670553
227,490.9321854555276
228,490.90898094343856
229,490.8849306796261
230,490.8600587917338
231,490.8343928857972
232,490.80796392361816
233,490.7808060810096
234,490.7529565866463
235,490.72445554137954
236,490.6953457178851
237,490.6656723406771
238,490.6354828470656
239,490.6048266304205
240,490.57375476775417
241,490.54231973404455
242,490.51057510605995
243,490.47857525884774
244,490.4463750584342
245,490.41402955445744
246,490.38159367629225
247,490.3491219357409
248,490.31666813867724
249,490.284285107311
250,490.2520244141145
251,490.219936128017
252,490.18806857334954
253,490.1564681023845
254,490.1251788831949
255,490.0942427055495
256,490.0636988080381
257,490.0335837292876
258,490.0039311853513
259,489.9747719748063
260,489.94613391312004
261,489.9180417981579
262,489.89051740865557
263,489.8635795366817
264,489.8372440537869
265,489.81152400922247
266,489.7864297577075
267,489.7619691137605
268,489.73814752933066
269,489.7149682911244
270,489.69243273358575
271,489.67054046308635
272,489.649289588692
273,489.6286769550725
274,489.6086983737566
275,489.5893488497892
276,489.5706228015338
277,489.55251427165064
278,489.53501712727876
279,489.51812524752506
280,489.5018326967727
281,489.48613388299435
282,489.4710237008801
283,489.4564976598832
284,489.442551997228
285,489.42918377572755
286,489.4163909661727
287,489.40417251414146
288,489.39252839120957
289,489.3814596305255
290,489.37096834654216
291,489.361057738599
292,489.35173207822754
293,489.34299668044827
294,489.3348578596903
295,489.3273228711048
296,489.3203998379261
297,489.3140976653281
298,489.3084259412513
299,489.30339482520236
300,489.2990149269153
301,489.29529717746203
302,489.29225269537557
303,489.2898926495917
304,489.28822812011634
305,489.2872699569147
306,489.287028637794
307,489.28751412671176
308,489.288735734558
309,489.29070198474096
310,489.29342048580037
311,489.2968978128911
312,489.3011393995488
313,489.3061494408499
314,489.31193080900726
315,489.3184849825128
316,489.32581198991335
317,489.3339103689605
318,489.34277714117235
319,489.3524078010091
320,489.3627963182232
321,489.37393515168486
322,489.38581527307775
323,489.39842619911514
324,489.4117560311831
325,489.4257915015599
326,489.4405180255791
327,489.45591975915295
328,489.471979660702
329,489.48867955572825
330,489.50600020147897
331,489.5239213489713
332,489.5424218003372
333,489.56147946066733
334,489.5810713847368
335,489.6011738199292
336,489.62176224735947
337,489.64281142346675
338,489.6642954239424
339,489.6861876909599
340,489.7084610839456
341,489.73108793395966
342,489.7540401019516
343,489.77728904143714
344,489.8008058665107
345,489.82456142664626
346,489.84852639031874
347,489.87267133983994
348,489.8969668796791
349,489.92138375973394
350,489.945893013603
351,489.97046611035194
352,489.99507511711164
353,490.01969286936827
354,490.0442931460364
355,490.06885084714884
356,490.09334217280235
357,490.117744802425
358,490.1420380733562
359,490.1662031573808
360,490.19022323353346
361,490.214083655296
362,490.23777211020627
363,490.2612787698821
364,490.28459642849566
365,490.30772062769637
366,490.33064976580494
367,490.3533851889655
368,490.37593126213415
369,490.3982954182801
370,490.4204881845074
371,490.44252318351334
372,490.4644171079985
373,490.48618966499225
374,490.5078634871232
375,490.5294640086514
376,490.55101930509073
377,490.5725598961088
378,490.5941185122297
379,490.61572982695986
380,490.63743015728255
381,490.6592571367038
382,490.6812493659881
383,490.7034460473739
384,490.72588660829285
385,490.7486103202928
386,490.7716559181584
387,490.79506122348124
388,490.8188627762655
389,490.8430954774268
390,490.8677922442188
391,490.89298367988306
392,490.9186977584702
393,490.9449595260543
394,490.9717908203633
395,490.9992100117459
396,491.0272317689485
397,491.05586685328274
398,491.08512194458507
399,491.1149995020299
400,491.1454976622907
401,491.1766101767246
402,491.20832638826965
403,491.2406312477194
404,491.2735053680424
405,491.30692511459563
406,491.34086272862737
407,491.37528648139494
408,491.4101608562892
409,491.44544675625815
410,491.4811017334655
411,491.51708023772517
412,491.5533338801907
413,491.58981170913734
414,491.62646049504446
415,491.6632250221824
416,491.7000483836222
417,491.7368722763268
418,491.77363729288527
419,491.81028320649784
420,491.8467492460693
421,491.88297435870504
422,491.9188974573192
423,491.9544576512803
424,491.9895944582438
425,492.02424799592546
426,492.0583591535159
427,492.0918697431873
428,492.12472263233644
429,492.15686185708995
430,492.1882327176479
431,492.21878185641856
432,492.2484573204104
433,492.27720860972164
434,492.30498671404166
435,492.3317441388218
436,492.3574349222917
437,492.38201464402454
438,492.4054404255649
439,492.42767092383804
440,492.44866631854785
441,492.46838829536017
442,492.48680002721096
443,492.50386615648904
444,492.51955278110756
445,492.5338274477052
446,492.54665915546633
447,492.5580183741064
448,492.5678770791097
449,492.5762088063033
450,492.5829887266178
451,492.58819374064444
452,492.5918025913431
453,492.5937959919548
454,492.5941567649876
455,492.5928699874016
456,492.5899231370757
457,492.58530623626507
458,492.57901198867
459,492.5710359075038
460,492.5613764324363
461,492.5500350336066
462,492.5370163011105
463,492.5223280184185
464,492.50598121807496
465,492.48799021795645
466,492.46837263664776
467,492.4471493872988
468,492.42434465042237
469,492.3999858269874
470,492.37410347353057
471,492.3467312209234
472,492.3179056780764
473,492.287666321381
474,492.2560553701571
475,492.2231176477872
476,492.188900427727
477,492.1534532635916
478,492.1168278032563
479,492.07907758806607
480,492.04025783919116
481,492.000425233481
482,491.9596376709126
483,491.91795403541175
484,491.8754339510304
485,491.8321375363133
486,491.7881251607286
487,491.7434572076942
488,491.69819384872113
489,491.65239483257125
490,491.60611929229646
491,491.55942557182226
492,491.51237107252405
493,491.4650121191923
494,491.41740384410616
495,491.36960008769915
496,491.3216533142042
497,491.27361454035866
498,491.2255332747684
499,491.17745746523974
500,491.1294334515545
501,491.0815059217297
502,491.0337178705448
503,490.98611055982417
504,490.93872348051286
505,490.8915943170286
506,490.8447589148618
507,490.7982512530818
508,490.7521034241852
509,490.706345624321
510,490.6610061571391
511,490.6161114542796
512,490.5716861148336
513,490.52775296506024
514,490.4843331385038
515,490.44144617565166
516,490.39911014135436
517,490.3573417572838
518,490.31615654587705
519,490.27556898178625
520,490.23559264685315
521,490.196240384752
522,490.15752445143875
523,490.1194566574691
524,490.0820484982765
525,490.0453112686686
526,490.0092561580224
527,489.97389432291754
528,489.93923693439234
529,489.90529519786526
530,489.8720803451916
531,489.83960360012816
532,489.8078761201583
533,489.7769089187997
534,489.7467127731652
535,489.7172981217892
536,489.6886749576224
537,489.6608527207506
538,489.63384019502723
539,489.60764541257254
540,489.58227556992
541,489.55773695926416
542,489.5340349176402
543,489.51117379601936
544,489.48915694944316
545,489.4679867486172
546,489.44766461292704
547,489.428191064547
548,489.409565802907
549,489.3917877979807
550,489.374855399713
551,489.3587664598898
552,489.34351846237576
553,489.3291086580229
554,489.3155342013203
555,489.3027922864679
556,489.29088028074653
557,489.27979585299227
558,489.26953709502607
559,489.26010263421847
560,489.2514917358921
561,489.2437043947852
562,489.23674141511856
563,489.2306044788159
564,489.2252962011113
565,489.22082017222806
566,489.21718098318814
567,489.21438423331455
568,489.21243651680885
569,489.2113453859883
570,489.21111928929577
571,489.2117674829867
572,489.21329991647866
573,489.2157270926352
574,489.2190599053382
575,489.22330945722416
576,489.22848686057023
577,489.234603024451
578,489.2416684315522
579,489.2496929081284
580,489.2586853903138
581,489.2686536893751
582,489.2796042575608
583,489.291541955012
584,489.30446981710094
585,489.31838882093217
586,489.33329764956653
587,489.3491924525578
588,489.3660666017038
589,489.3839104418061
590,489.4027110377014
591,489.42245192033903
592,489.44311283565054
593,489.46466950026786
594,489.48709336826437
595,489.5103514136284
596,489.53440593437205
597,489.5592143856087
598,489.5847292497907
599,489.61089795216566
600,489.6376628286781
601,489.6649611523798
602,489.692725222877
603,489.72088252141765
604,489.7493559322528
605,489.7780640292455
606,489.8069214253185
607,489.83583918109656
608,489.8647252680844
609,489.8934850809329
610,489.9220219926323
611,489.9502379457571
612,489.97803407237086
613,490.0053113349569
614,490.0319711805348
615,490.0579161996859
616,490.08305078163903
617,490.10728175623797
618,490.1305190138184
619,490.1526760947359
620,490.17367074126133
621,490.1934254055336
622,490.21186770809715
623,490.2289308422733
624,490.24455392036185
625,490.25868225862007
626,490.2712675991971
627,490.2822682685168
628,490.2916492727442
629,490.29938233195304
630,490.305445855635
631,490.30982486316947
632,490.3125108534817
633,490.31350162824566
634,490.3128010728403
635,490.31041889906027
636,490.306370353393
637,490.3006758945419
638,490.29336084384005
639,490.28445501222075
640,490.27399230740366
641,490.2620103247757
642,490.24854992499957
643,490.2336548008289
644,490.2173710353918
645,490.19974665457335
646,490.1808311767819
647,490.1606751638031
648,490.1393297763873
649,490.11684633772927
650,490.093275907398
651,490.06866886803937
652,490.043074527499
653,490.01654073955456
654,489.9891135467813
655,489.9608368492118
656,489.9317521026006
657,489.90189805018866
658,489.87131049162656
659,489.8400220921107
660,489.80806223392835
661,489.7754569116552
662,489.74222867134495
663,489.7083965933701
664,489.67397631829306
665,489.6389801152766
666,489.60341699273147
667,489.5672928505849
668,489.53061067251286
669,489.49337075508214
670,489.45557096966456
671,489.41720705262
672,489.3782729193977
673,489.3387609983315
674,489.29866257976124
675,489.2579681759456
676,489.2166678873633
677,489.17475177148856
678,489.13221021074577
679,489.08903427678615
680,489.0452160882522
681,489.00074915879605
682,488.9556287316206
683,488.90985209655133
684,488.8634188856809
685,488.81633134384305
686,488.7685945706189
687,488.7202167313732
688,488.67120923584145
689,488.6215868836885
690,488.57136797702447
691,488.52057440024265
692,488.4692316679307
693,488.4173689418824
694,488.3650190182359
695,488.3122182855993
696,488.25900665502553
697,488.20542746310866
698,488.15152735020433
699,488.0973561165138
700,488.04296655918733
701,487.9884142936605
702,487.93375756230074
703,487.87905703328875
704,487.8243755926278
705,487.7697781323038
706,487.7153313377771
707,487.6611034778319
708,487.60716419908954
709,487.55358432633267
710,487.50043566866975
711,487.44779083088184
712,487.3957230289884
713,487.3443059088196
714,487.29361336600243
715,487.243719365417
716,487.194697758113
717,487.146622093934
718,487.0995654284626
719,487.0536001232668
720,487.0087976388849
721,486.96522832061055
722,486.92296117776556
723,486.88206365748835
724,486.84260141394907
725,486.8046380734758
726,486.76823499570634
727,486.733451030882
728,486.7003422737909
729,486.66896181544
730,486.63935949418743
731,486.6115816488801
732,486.5856708774656
733,486.5616658051533
734,486.5396008660588
735,486.5195061014143
736,486.5014069763893
737,486.4853242168221
738,486.4712736668272
739,486.4592661681376
740,486.44930746200856
741,486.44139811450316
742,486.4355334660943
743,486.4317036068467
744,486.429893378974
745,486.4300824091048
746,486.4322451728797
747,486.43635109432444
748,486.4423646818499
749,486.4502457020023
750,486.4599493914757
751,486.4714267073539
752,486.48462461497166
753,486.49948641224705
754,486.51595208896805
755,486.53395871916075
756,486.5534408839557
757,486.57433112112324
758,486.5965603959655
759,486.62005858705476
760,486.6447549796868
761,486.67057875980237
762,486.6974595012186
763,486.725327639045
764,486.75411492221326
765,486.78375483851835
766,486.81418300665894
767,486.8453375311145
768,486.87715931681277
769,486.90959234139245
770,486.94258388382787
771,486.97608470927935
772,487.0100492108192
773,487.0444355088067
774,487.0792055083843
775,487.1143249153504
776,487.1497632108258
777,487.1854935855746
778,487.2214928352882
779,487.2577412184804
780,487.2942222789899
781,487.3309226356432
782,487.36783174239025
783,487.4049416229914
784,487.4422465849113
785,487.47974291738285
786,487.5174285787722
787,487.55530287852133
788,487.59336615900094
789,487.63161948228
790,487.67006432593183
791,487.70870229079156
792,487.7475348225984
793,487.78656294906125
794,487.82578703401595
795,487.86520655057404
796,487.9048198749999
797,487.9446241023507
798,487.9846148840104
799,488.0247862866153
800,488.06513067169
801,488.1056385954222
802,488.14629872814487
803,488.18709779302236
804,488.22802052306685
805,488.2690496350549
806,488.310165818456
807,488.3513477373698
808,488.39257204369375
809,488.43381340004385
810,488.4750445110429
811,488.51623616157104
812,488.55735726084544
813,488.59837489195303
814,488.63925436737384
815,488.6799592916693
816,488.72045163286674
817,488.7606918043886
818,488.8006387596475
819,488.8402501013497
820,488.8794822070052
821,488.9182903713271
822,488.95662896539255
823,488.9944516117393
824,489.03171137398635
825,489.06836095899104
826,489.10435292887286
827,489.1396399195867
828,489.17417486252486
829,489.2079112060968
830,489.24080313508796
831,489.27280578630905
832,489.3038754594374
833,489.3339698221943
834,489.3630481092655
835,489.3910713146552
836,489.4180023774922
837,489.44380636176754
838,489.4684506310274
839,489.49190501932225
840,489.5141419994418
841,489.5351368487669
842,489.5548678123411
843,489.57331626225954
844,489.59046685220466
845,489.60630766579385
846,489.6208303572283
847,489.63403028250804
848,489.645906619268
849,489.6564624731854
850,489.66570496899976
851,489.67364532445407
852,489.68029890585234
853,489.6856852643666
854,489.6898281527085
855,489.69275552224127
856,489.69449950092
857,489.6950963524338
858,489.6945864164868
859,489.69301402946707
860,489.6904274242247
861,489.68687860758735
862,489.68242321438197
863,489.6771203367718
864,489.67103232762526
865,489.6642245767539
866,489.65676525953654
867,489.6487250586515
868,489.6401768608185
869,489.6311954310022
870,489.6218570663465
871,489.6122392316589
872,489.60242017816563
873,489.5924785478231
874,489.58249296660176
875,489.5725416314058
876,489.56270189617175
877,489.5530498630319
878,489.54365998443
879,489.5346046819459
880,489.525953987219
881,489.5177752095647
882,489.5101326337011
883,489.50308724972405
884,489.4966965163146
885,489.49101415721134
886,489.48608999033996
887,489.4819697888289
888,489.478695173465
889,489.4763035366418
890,489.47482799802697
891,489.4742973917191
892,489.47473628377196
893,489.47616501812064
894,489.4785997884377
895,489.48205273315835
896,489.4865320506633
897,489.4920421313693
