frame_number,force
0,490.2769869888053
1,490.2631377084821
2,490.2505746306972
3,490.2392503797678
4,490.2291176411281
5,490.2201293731097
6,490.2122389976691
7,490.205400570327
8,490.1995689298137
9,490.1946998280823
10,490.190750041417
11,490.18767746335635
12,490.1854411802325
13,490.1840015303755
14,490.1833201483775
15,490.18335999609525
16,490.1840853821501
17,490.185461971495
18,490.1874567862287
19,490.1900381984344
20,490.1931759155929
21,490.1968409591153
22,490.20100563664823
23,490.2056435089113
24,490.21072935187976
25,490.21623911517713
26,490.2221498776516
27,490.228439801224
28,490.2350880841151
29,490.2420749144933
30,490.2493814255399
31,490.25698965295203
32,490.264882495893
33,490.2730436822612
34,490.28145773884916
35,490.29010996659645
36,490.29898642081895
37,490.3080738961066
38,490.3173599154828
39,490.32683272336413
40,490.3364812817931
41,490.3462952693423
42,490.35626508197214
43,490.36638183498746
44,490.37663736515884
45,490.38702423207235
46,490.39753571779073
47,490.4081658238757
48,490.41890926477737
49,490.4297614566911
50,490.4407185012903
51,490.4517771641676
52,490.4629348482017
53,490.4741895623319
54,490.4855398863479
55,490.4969849323131
56,490.508524303208
57,490.5201580493571
58,490.53188662318075
59,490.54371083275544
60,490.5556317946042
61,490.56765088610433
62,490.57976969791173
63,490.59198998680955
64,490.6043136293227
65,490.6167425763166
66,490.6292788086867
67,490.6419242942232
68,490.6546809457826
69,490.6675505809482
70,490.6805348833983
71,490.69363536622
72,490.7068533373837
73,490.7201898674724
74,490.7336457595543
75,490.7472215208596
76,490.76091733576266
77,490.77473303955406
78,490.78866809265605
79,490.80272155517594
80,490.8168920618595
81,490.8311777975286
82,490.84557647302836
83,490.86008530167624
84,490.8747009762564
85,490.8894196467443
86,490.9042368990844
87,490.91914773543004
88,490.93414655628516
89,490.94922714501337
90,490.96438265514496
91,490.97960560077945
92,490.9948878501835
93,491.01022062254737
94,491.02559448784547
95,491.0409993698162
96,491.0564245521535
97,491.07185868807665
98,491.0872898135171
99,491.10270536423985
100,491.1180921972183
101,491.1334366164628
102,491.1487244033102
103,491.16394085104736
104,491.17907080371384
105,491.19409869895424
106,491.20900861477344
107,491.22378431995423
108,491.23840932775767
109,491.25286695239555
110,491.26714036769977
111,491.28121266745114
112,491.2950669269194
113,491.30868626520027
114,491.3220539078719
115,491.33515324940424
116,491.3479679147296
117,491.3604818194398
118,491.3726792282036
119,491.3845448111713
120,491.3960636983017
121,491.40722153167
122,491.41800451587284
123,491.42839946664395
124,491.4383938577509
125,491.4479758662175
126,491.45713441593887
127,491.4658592198242
128,491.4741408206421
129,491.4819706306814
130,491.48934097017633
131,491.4962451042339
132,491.5026772778618
133,491.50863274867305
134,491.5141078168733
135,491.51909985211677
136,491.52360731675685
137,491.5276297850152
138,491.53116795768506
139,491.53422367209816
140,491.53679990714227
141,491.5389007831063
142,491.5405315560643
143,491.54169860643447
144,491.5424094213604
145,491.5426725706897
146,491.54249767652095
147,491.5418953764629
148,491.5408772808495
149,491.53945592417824
150,491.53764471099623
151,491.53545785643365
152,491.53291032166
153,491.5300177446977
154,491.52679636718494
155,491.52326295775373
156,491.5194347327113
157,491.5153292747214
158,491.5109644501724
159,491.5063583258262
160,491.5015290851544
161,491.4964949445377
162,491.49127406931547
163,491.48588448954007
164,491.4803440152349
165,491.4746701509774
166,491.4688800097514
167,491.46299022618786
168,491.4570168694623
169,491.45097535619755
170,491.44488036371393
171,491.43874574391396
172,491.4325844380261
173,491.4264083924369
174,491.42022847595626
175,491.4140543990685
176,491.407894635889
177,491.40175634955636
178,491.3956453216942
179,491.3895658865213
180,491.38352087026175
181,491.3775115366276
182,491.37153753921905
183,491.36559688170047
184,491.3596858866666
185,491.35379917423273
186,491.3479296514379
187,491.3420685134096
188,491.3362052569355
189,491.3303277067676
190,491.324422054761
191,491.3184729118167
192,491.312463372492
193,491.3063750920611
194,491.3001883757251
195,491.29388227950966
196,491.28743472212517
197,491.28082260681737
198,491.2740219521252
199,491.2670080304773
200,491.25975551356424
201,491.252238623342
202,491.2444312873901
203,491.236307297246
204,491.2278404683149
205,491.21900479997254
206,491.20977463449884
207,491.2001248134934
208,491.19003083043486
209,491.179468978074
210,491.16841648944353
211,491.15685167149286
212,491.14475403070367
213,491.13210439042695
214,491.11888500003136
215,491.1050796361888
216,491.09067369666144
217,491.07565428679703
218,491.0600102987077
219,491.0437324829234
220,491.0268135121849
221,491.0092480369384
222,490.9910327320431
223,490.97216633424176
224,490.9526496700531
225,490.93248567387406
226,490.9116793962193
227,490.89023800218524
228,490.8681707603647
229,490.84548902247354
230,490.8222061938569
231,490.79833769490017
232,490.77390091327743
233,490.74891514696986
234,490.72340153804896
235,490.69738299727084
236,490.6708841195447
237,490.64393109040225
238,490.61655158377965
239,490.58877465168695
240,490.5606306065553
241,490.5321508971934
242,490.5033679794002
243,490.4743151824151
244,490.44502657251473
245,490.41553681512534
246,490.38588103677176
247,490.35609468802727
248,490.32621340841075
249,490.29627289394347
250,490.2663087678776
251,490.2363564549644
252,490.2064510595871
253,490.1766272481982
254,490.14691913677353
255,490.11736018431304
256,490.08798309356337
257,490.0588197200213
258,490.02990099002176
259,490.00125682852934
260,489.97291609725204
261,489.9449065437858
262,489.91725476247416
263,489.889986167402
264,489.8631249775064
265,489.8366942133543
266,489.8107157048381
267,489.7852101088815
268,489.7601969361484
269,489.73569458563134
270,489.7117203858433
271,489.6882906412033
272,489.6654206821337
273,489.64312491744624
274,489.6214168877917
275,489.6003093192137
276,489.5798141760626
277,489.55994271261466
278,489.54070552273436
279,489.5221125869378
280,489.50417331634463
281,489.486896593218
282,489.4702908079913
283,489.4543638927742
284,489.43912335130796
285,489.42457628528
286,489.41072941687753
287,489.39758910748924
288,489.38516137250946
289,489.37345189219366
290,489.3624660184611
291,489.3522087775113
292,489.3426848681822
293,489.3338986561054
294,489.3258541638365
295,489.31855505718323
296,489.3120046279238
297,489.3062057730401
298,489.3011609706071
299,489.296872252647
300,489.29334117555015
301,489.29056878888787
302,489.288555603439
303,489.28730155901064
304,489.28680599234514
305,489.2870676052794
306,489.2880844334072
307,489.28985381571044
308,489.29237236582577
309,489.2956359457007
310,489.29963964235884
311,489.3043777483726
312,489.3098437465015
313,489.31603029885423
314,489.32292924091
315,489.3305315807532
316,489.3388275038653
317,489.34780638370216
318,489.3574567980546
319,489.3677665509204
320,489.37872269940215
321,489.39031158505793
322,489.40251886915723
323,489.4153295713706
324,489.42872811149834
325,489.44269835391526
326,489.45722365447256
327,489.47228690960907
328,489.4878706072967
329,489.50395687918234
330,489.520527553024
331,489.5375642044617
332,489.5550482073748
333,489.57296078246554
334,489.59128304409114
335,489.60999604566075
336,489.6290808241283
337,489.6485184441962
338,489.6682900427104
339,489.68837687343546
340,489.70876035216224
341,489.729422102043
342,489.7503439991124
343,489.7715082180404
344,489.7928972782836
345,489.8144940909712
346,489.836282007054
347,489.8582448673595
348,489.88036705516083
349,489.90263355161335
350,489.92502999395947
351,489.947542735911
352,489.97015890925
353,489.9928664855446
354,490.0156543369561
355,490.03851229536184
356,490.0614312092857
357,490.0844029982745
358,490.10742070434526
359,490.1304785400256
360,490.1535719324181
361,490.1766975626679
362,490.19985340019406
363,490.2230387310496
364,490.2462541798011
365,490.26950172431987
366,490.29278470283305
367,490.3161078125535
368,490.3394770992836
369,490.36289993755923
370,490.3863850010225
371,490.4099422226306
372,490.43358274406376
373,490.45731885349954
374,490.48116391095186
375,490.50513226064015
376,490.52923913018907
377,490.55350051674566
378,490.5779330603791
379,490.60255390548866
380,490.62738055137925
381,490.6524306935674
382,490.6777220576955
383,490.7032722281439
384,490.7290984735085
385,490.75521757101336
386,490.7816456316987
387,490.80839792798866
388,490.835488725027
389,490.8629311169333
390,490.8907368688624
391,490.9189162655105
392,490.9474779665914
393,490.97642886988854
394,491.00577398273805
395,491.0355163030742
396,491.06565671133933
397,491.096193874582
398,491.1271241639966
399,491.1584415870376
400,491.1901377350437
401,491.222201747031
402,491.2546202899818
403,491.2873775556103
404,491.32045527325215
405,491.35383273824226
406,491.3874868549874
407,491.42139219389765
408,491.45552106134613
409,491.4898435817779
410,491.5243277909577
411,491.55893973920183
412,491.59364360340504
413,491.628401806772
414,491.6631751452649
415,491.69792291976574
416,491.73260307284073
417,491.76717232890263
418,491.80158633651746
419,491.83579981160835
420,491.8697666803758
421,491.9034402208825
422,491.93677320237634
423,491.96971802148386
424,492.0022268344704
425,492.0342516849496
426,492.0657446267237
427,492.0966578416705
428,492.12694375265147
429,492.1565551313725
430,492.185445201144
431,492.2135677346044
432,492.24087714663705
433,492.2673285828291
434,492.2928780038475
435,492.3174822660252
436,492.3410991982988
437,492.36368767549044
438,492.3852076878719
439,492.4056204070186
440,492.4248882481233
441,492.4429749291348
442,492.4598455272713
443,492.4754665335954
444,492.48980590643185
445,492.502833124491
446,492.51451924065094
447,492.5248369373785
448,492.5337605846337
449,492.5412663007902
450,492.5473320167209
451,492.5519375428103
452,492.55506463826396
453,492.55669708168
454,492.55682074148143
455,492.55542364457955
456,492.5524960416408
457,492.5480304675423
458,492.54202179590857
459,492.5344672868802
460,492.5253666274376
461,492.5147219637169
462,492.5025379248367
463,492.48882163778376
464,492.4735827328852
465,492.45683333938297
466,492.4385880707309
467,492.41886399950243
468,492.39768062216353
469,492.37505981426125
470,492.3510257767103
471,492.3256049738409
472,492.2988260637666
473,492.27071982148556
474,492.2413190549648
475,492.2106585142776
476,492.1787747937131
477,492.1457062267854
478,492.1114927743127
479,492.0761759061119
480,492.0397984771625
481,492.00240459919485
482,491.96403950858104
483,491.9247494313025
484,491.884581445835
485,491.843583345066
486,491.80180349868965
487,491.75929071773555
488,491.7160941228791
489,491.6722630179781
490,491.6278467699428
491,491.58289469565614
492,491.5374559562627
493,491.4915794588001
494,491.4453137649223
495,491.39870700637925
496,491.351806806878
497,491.30466020984153
498,491.25731361141726
499,491.2098126979844
500,491.1622023874502
501,491.1145267737979
502,491.06682907457423
503,491.0191515812211
504,490.97153561231755
505,490.92402146993453
506,490.876648399445
507,490.8294545533433
508,490.78247695986596
509,490.73575149738633
510,490.6893128756105
511,490.6431946245199
512,490.5974290917723
513,490.5520474489275
514,490.50707970648705
515,490.46255473740575
516,490.41850030842807
517,490.3749431182894
518,490.3319088415492
519,490.28942217667594
520,490.2475068969998
521,490.20618590317986
522,490.1654812758258
523,490.125414326886
524,490.0860056484173
525,490.0472751574032
526,490.0092421353548
527,489.97192526151025
528,489.93534263859
529,489.89951181033973
530,489.8644497705528
531,489.83017296384156
532,489.7966972789685
533,489.76403803592825
534,489.7322099681791
535,489.70122720150755
536,489.67110323097324
537,489.64185089727937
538,489.6134823637987
539,489.58600909541605
540,489.5594418402984
541,489.5337906156074
542,489.5090646979726
543,489.48527261928353
544,489.46242216808844
545,489.4405203966688
546,489.4195736337239
547,489.3995875025134
548,489.3805669441844
549,489.36251624576465
550,489.3454390719418
551,489.3293384994369
552,489.31421705266536
553,489.30007673951405
554,489.28691908631765
555,489.27474517132583
556,489.26355565602415
557,489.2533508136604
558,489.24413055435366
559,489.23589444627794
560,489.2286417325907
561,489.22237134395203
562,489.21708190659376
563,489.2127717459071
564,489.2094388854249
565,489.2070810409053
566,489.20569560902976
567,489.20527965007585
568,489.2058298638731
569,489.20734255841813
570,489.2098136107022
571,489.21323841955876
572,489.21761185069
573,489.2229281744463
574,489.2291809972795
575,489.2363631879576
576,489.2444667996635
577,489.253482989141
578,489.26340193413165
579,489.27421275037614
580,489.2859034093552
581,489.2984606577432
582,489.3118699392363
583,489.32611531902916
584,489.34117941084736
585,489.35704330623304
586,489.3736865057126
587,489.3910868514706
588,489.4092204612433
589,489.42806166341757
590,489.4475829337771
591,489.46775483481025
592,489.4885459587889
593,489.50992287591254
594,489.53185008883275
595,489.5542899950302
596,489.57720285888297
597,489.6005467957072
598,489.6242777703124
599,489.64834961255417
600,489.6727140520857
601,489.6973207741192
602,489.7221174975027
603,489.7470500757862
604,489.77206262130323
605,489.7970976517545
606,489.82209625831814
607,489.84699829391235
608,489.8717425798967
609,489.89626712924195
610,489.9205093839604
611,489.9444064643584
612,489.9678954275025
613,489.9909135322129
614,490.01339850783
615,490.0352888238646
616,490.05652395746125
617,490.0770446555023
618,490.0967931882534
619,490.11571359169017
620,490.1337518959674
621,490.15085633781524
622,490.166977554928
623,490.1820687606569
624,490.1960858975714
625,490.2089877687759
626,490.22073614627834
627,490.23129585614765
628,490.24063484058
629,490.2487241973285
630,490.25553819729674
631,490.2610542814299
632,490.26525303824866
633,490.268118163434
634,490.2696364028385
635,490.26979748025195
636,490.2685940112048
637,490.26602140406726
638,490.2620777497036
639,490.2567637009665
640,490.2500823433251
641,490.24203905787516
642,490.2326413778469
643,490.22189883956065
644,490.2098228287162
645,490.19642642302927
646,490.18172423244425
647,490.16573223828993
648,490.14846763273033
649,490.1299486597066
650,490.11019445837326
651,490.0892249099549
652,490.0670604890484
653,490.04372212056916
654,490.0192310436369
655,489.99360868373674
656,489.966876534528
657,489.93905605069335
658,489.9101685531325
659,489.8802351475993
660,489.8492766575924
661,489.81731357199
662,489.784366007618
663,489.75045368670345
664,489.7155959290642
665,489.67981165891035
666,489.6431194261793
667,489.6055374422111
668,489.56708362922024
669,489.52777568255755
670,489.4876311443925
671,489.446667487318
672,489.4049022064128
673,489.36235291832526
674,489.3190374658862
675,489.2749740266934
676,489.23018122414317
677,489.18467823953284
678,489.1384849240506
679,489.09162190960154
680,489.04411071742464
681,488.9959738633209
682,488.9472349581507
683,488.8979188021757
684,488.848051471831
685,488.79766039758243
686,488.7467744316722
687,488.69542390481627
688,488.64364067124757
689,488.5914581417976
690,488.5389113048987
691,488.4860367355176
692,488.43287259216703
693,488.3794586022407
694,488.3258360359275
695,488.2720476689217
696,488.2181377341565
697,488.1641518629373
698,488.1101370160963
699,488.056141406044
700,488.00221441073836
701,487.9484064806287
702,487.8947690396007
703,487.8413543809158
704,487.78821555914004
705,487.73540627911734
706,487.68298078310335
707,487.6309937371418
708,487.5795001175469
709,487.52855509799394
710,487.47821393737416
711,487.4285318683587
712,487.37956398652966
713,487.3313651398643
714,487.2839898182441
715,487.23749204255444
716,487.191925252927
717,487.14734219576076
718,487.1037948092822
719,487.0613341075229
720,487.0200100627416
721,486.9798714865171
722,486.9409659099397
723,486.90333946343395
724,486.86703675670384
725,486.8321007591496
726,486.79857268098147
727,486.7664918552462
728,486.735895621101
729,486.70681920884203
730,486.6792956273942
731,486.6533555552191
732,486.6290272358792
733,486.60633637968067
734,486.5853060727563
735,486.56595669466145
736,486.54830584520766
737,486.532368281002
738,486.51815586203776
739,486.5056775086315
740,486.4949391689725
741,486.48594379753405
742,486.47869134461456
743,486.4731787573658
744,486.4693999928201
745,486.467346043585
746,486.4670049769522
747,486.4683619880947
748,486.47139946782266
749,486.47609708511857
750,486.4824318844668
751,486.49037839780414
752,486.4999087707225
753,486.510992902373
754,486.52359859839527
755,486.53769173607225
756,486.55323644068
757,486.570195271594
758,486.5885294162385
759,486.6081988895763
760,486.62916273663825
761,486.65137923555545
762,486.6748060985884
763,486.69940066866303
764,486.725120108946
765,486.7519215831495
766,486.77976242461256
767,486.80860029265034
768,486.83839331503236
769,486.8691002157324
770,486.9006804274168
771,486.9330941885031
772,486.9663026248867
773,487.00026781648626
774,487.03495284867967
775,487.07032184864465
776,487.1063400066895
777,487.1429735828134
778,487.1801898988998
779,487.2179573170681
780,487.2562452048371
781,487.29502388794754
782,487.33426459194965
783,487.3739393739244
784,487.41402104590094
785,487.45448309165033
786,487.4952995785965
787,487.53644506664574
788,487.5778945157645
789,487.61962319403807
790,487.6616065876665
791,487.70382031397367
792,487.74624003819685
793,487.7888413946998
794,487.8315999132972
795,487.87449095145655
796,487.917489633088
797,487.96057079441164
798,488.0037089370928
799,488.0468781886346
800,488.09005226995237
801,488.13320447008516
802,488.17630762803725
803,488.219334121711
804,488.2622558637651
805,488.3050443040447
806,488.34767043806994
807,488.3901048210234
808,488.4323175867342
809,488.4742784712427
810,488.51595684054433
811,488.55732172209196
812,488.5983418397087
813,488.6389856517917
814,488.6792213929659
815,488.71901711953956
816,488.7583407592092
817,488.7971601655516
818,488.83544317791274
819,488.873157687265
820,488.91027170841494
821,488.9467534586693
822,488.98257144279444
823,489.0176945438669
824,489.05209211941644
825,489.08573410206435
826,489.11859110363406
827,489.1506345214942
828,489.18183664581943
829,489.21217076660247
830,489.24161127951703
831,489.2701337899563
832,489.2977152146945
833,489.32433388069455
834,489.3499696206703
835,489.3746038651035
836,489.39821973052136
837,489.4208021039951
838,489.4423377239974
839,489.46281525785344
840,489.4822253759358
841,489.5005608225438
842,489.5178164831776
843,489.53398944776944
844,489.549079069356
845,489.56308701764016
846,489.576017326842
847,489.5878764371851
848,489.5986732293091
849,489.6084190508829
850,489.6171277347365
851,489.62481560793265
852,489.6315014913416
853,489.6372066894394
854,489.6419549702201
855,489.64577253528245
856,489.6486879802639
857,489.6507322458135
858,489.6519385591664
859,489.65234236618153
860,489.6519812535512
861,489.65089486087584
862,489.64912478235823
863,489.6467144578992
864,489.64370905336085
865,489.6401553298153
866,489.63610150182467
867,489.6315970851999
868,489.626692735072
869,489.6214400752958
870,489.6158915201543
871,489.61010008919465
872,489.6041192159977
873,489.59800255186974
874,489.59180376581077
875,489.5855763425129
876,489.57937338042683
877,489.573247392041
878,489.5672501085161
879,489.5614322907694
880,489.55584354898184
881,489.5505321722358
882,489.5455449696066
883,489.5409271236095
884,489.5367220565227
885,489.53297130979
886,489.529714436487
887,489.5269889067699
888,489.52483002631647
889,489.5232708679126
890,489.5223422163787
891,489.52207252686867
892,489.52248789626776
893,489.52361204713344
894,489.5254663234373
895,489.52806969726106
896,489.5314387854994
897,489.53558787553015
898,489.5405289587613
899,489.54627177101554
