frame_number,force
0,490.2769869906912
1,490.2631377104194
2,490.25057463269263
3,490.2392503818277
4,490.2291176432584
5,490.2201293753164
6,490.2122389999581
7,490.20540057270443
8,490.1995689322855
9,490.1946998306546
10,490.1907500440959
11,490.1876774661479
12,490.18544118314236
13,490.18400153340946
14,490.18332015154175
15,490.1833599993965
16,490.18408538559544
17,490.185461975092
18,490.18745678998505
19,490.1900382023576
20,490.1931759196902
21,490.1968409633937
22,490.20100564111436
23,490.20564351357143
24,490.21072935673993
25,490.21623912024296
26,490.22214988292814
27,490.22843980671576
28,490.2350880898261
29,490.2420749204271
30,490.2493814317
31,490.256989659341
32,490.2648825025124
33,490.27304368911155
34,490.2814577459303
35,490.2901099739075
36,490.2989864283582
37,490.3080739038714
38,490.31735992346984
39,490.3268327315693
40,490.3364812902112
41,490.34629527796756
42,490.35626509079833
43,490.36638184400834
44,490.3766373743681
45,490.3870242414633
46,490.3975357273564
47,490.40816583360913
48,490.4189092746718
49,490.42976146674016
50,490.44071851148743
51,490.4517771745059
52,490.46293485867363
53,490.4741895729296
54,490.48553989706346
55,490.4969849431383
56,490.508524314134
57,490.520158060375
58,490.5318866342816
59,490.5437108439303
60,490.55563180584426
61,490.5676508974008
62,490.57976970925597
63,490.5919899981929
64,490.60431364073685
65,490.6167425877535
66,490.62927882013855
67,490.6419243056824
68,490.6546809572417
69,490.66755059240035
70,490.6805348948376
71,490.6936353776416
72,490.7068533487841
73,490.7201898788492
74,490.73364577090604
75,490.74722153218556
76,490.76091734706245
77,490.7747330508275
78,490.788668103903
79,490.8027215663961
80,490.81689207305226
81,490.83117780869276
82,490.84557648416256
83,490.8600853127792
84,490.8747009873267
85,490.8894196577802
86,490.904236910084
87,490.91914774639133
88,490.9341465672061
89,490.9492271558919
90,490.9643826659788
91,490.97960561156594
92,490.99488786091956
93,491.0102206332295
94,491.02559449847
95,491.0409993803788
96,491.0564245626496
97,491.0718586985015
98,491.08728982386606
99,491.10270537450845
100,491.1180922074021
101,491.13343662655745
102,491.14872441331147
103,491.1639408609512
104,491.17907081351626
105,491.1940987086513
106,491.2090086243614
107,491.2237843294293
108,491.2384093371158
109,491.2528669616323
110,491.26714037681086
111,491.2812126764325
112,491.29506693576747
113,491.3086862739118
114,491.32205391644413
115,491.3351532578349
116,491.34796792301665
117,491.36048182758105
118,491.37267923619703
119,491.3845448190153
120,491.3960637059951
121,491.4072215392126
122,491.4180045232654
123,491.42839947388785
124,491.4383938648487
125,491.44797587317294
126,491.45713442275644
127,491.4658592265092
128,491.4741408272005
129,491.4819706371198
130,491.4893409765019
131,491.49624511045477
132,491.50267728398705
133,491.50863275471266
134,491.5141078228376
135,491.51909985801603
136,491.5236073226009
137,491.5276297908136
138,491.53116796344733
139,491.5342236778337
140,491.5367999128604
141,491.53890078881625
142,491.54053156177514
143,491.54169861215513
144,491.5424094271
145,491.5426725764572
146,491.54249768232535
147,491.54189538231276
148,491.54087728675324
149,491.53945593014384
150,491.53764471703124
151,491.53545786254557
152,491.53291032785586
153,491.5300177509839
154,491.5267963735673
155,491.5232629642377
156,491.51943473930197
157,491.5153292814238
158,491.51096445699113
159,491.5063583327653
160,491.5015290922172
161,491.49649495172736
162,491.4912740766343
163,491.4858844969893
164,491.4803440228144
165,491.4746701586859
166,491.46888001758725
167,491.4629902341488
168,491.4570168775453
169,491.4509753643987
170,491.4448803720286
171,491.4387457523367
172,491.4325844465509
173,491.4264084010571
174,491.42022848466456
175,491.4140544078576
176,491.4078946447514
177,491.4017563584847
178,491.39564533068074
179,491.3895658955581
180,491.3835208793407
181,491.3775115457404
182,491.3715375483572
183,491.36559689085544
184,491.35968589582984
185,491.3537991833956
186,491.34792966059155
187,491.3420685225453
188,491.3362052660446
189,491.33032771584175
190,491.32442206379267
191,491.3184729207993
192,491.3124633814195
193,491.30637510092777
194,491.30018838452617
195,491.29388228824087
196,491.2874347307829
197,491.2808226153987
198,491.27402196062803
199,491.26700803890037
200,491.2597555219068
201,491.25223863160386
202,491.24443129557164
203,491.23630730534876
204,491.2278404763412
205,491.219004807925
206,491.20977464238024
207,491.2001248213063
208,491.1900308381817
209,491.1794689857572
210,491.1684164970654
211,491.1568516790559
212,491.14475403821046
213,491.1321043978805
214,491.11888500743515
215,491.105079643547
216,491.09067370397884
217,491.07565429407913
218,491.0600103059605
219,491.0437324901532
220,491.02681351939873
221,491.009248044144
222,490.9910327392489
223,490.97216634145684
224,490.9526496772868
225,490.93248568113586
226,490.9116794035188
227,490.8902380095318
228,490.86817076776725
229,490.84548902994067
230,490.8222062013965
231,490.7983377025196
232,490.7739009209832
233,490.74891515476764
234,490.72340154594355
235,490.69738300526615
236,490.6708841276442
237,490.6439310986089
238,490.6165515920962
239,490.5887746601154
240,490.56063061509684
241,490.53215090584837
242,490.50336798816807
243,490.47431519129424
244,490.4450265815022
245,490.4155368242171
246,490.3858810459628
247,490.3560946973118
248,490.32621341778236
249,490.2962729033952
250,490.26630877740206
251,490.23635646455364
252,490.2064510692332
253,490.1766272578928
254,490.14691914650774
255,490.1173601940776
256,490.0879831033485
257,490.05881972981695
258,490.0299009998179
259,490.00125683831635
260,489.9729161070205
261,489.9449065535265
262,489.91725477217796
263,489.8899861770605
264,489.8631249871121
265,489.8366942229005
266,489.810715714319
267,489.7852101182918
268,489.76019694548387
269,489.73569459488857
270,489.71172039502017
271,489.68829065029894
272,489.6654206911486
273,489.6431249263826
274,489.62141689665316
275,489.60030932800476
276,489.5798141847886
277,489.55994272128174
278,489.5407055313492
279,489.52211259550756
280,489.5041733248768
281,489.4868966017199
282,489.4702908164701
283,489.4543639012367
284,489.43912335976114
285,489.42457629373075
286,489.41072942533253
287,489.3975891159551
288,489.385161380993
289,489.3734519007018
290,489.3624660270008
291,489.35220878608936
292,489.3426848768049
293,489.33389866477853
294,489.32585417256524
295,489.3185550659727
296,489.3120046367786
297,489.30620578196465
298,489.3011609796048
299,489.29687226172047
300,489.29334118470115
301,489.2905687981176
302,489.2885556127482
303,489.28730156839964
304,489.2868060018143
305,489.2870676148291
306,489.2880844430377
307,489.2898538254224
308,489.2923723756206
309,489.2956359555802
310,489.29963965232565
311,489.30437775842984
312,489.3098437566525
313,489.3160303091023
314,489.3229292512583
315,489.33053159120493
316,489.33882751442354
317,489.3478063943693
318,489.3574568088322
319,489.3677665618092
320,489.37872271040214
321,489.3903115961682
322,489.4025188803763
323,489.4153295826965
324,489.4287281229284
325,489.4426983654462
326,489.45722366610005
327,489.4722869213278
328,489.48787061910065
329,489.50395689106466
330,489.5205275649774
331,489.5375642164779
332,489.5550482194442
333,489.57296079457694
334,489.59128305623216
335,489.6099960578178
336,489.6290808362869
337,489.64851845634144
338,489.6682900548271
339,489.6883768855085
340,489.7087603641762
341,489.72942211398265
342,489.75034401096275
343,489.7715082297872
344,489.792897289913
345,489.81449410247035
346,489.8362820184109
347,489.8582448785632
348,489.88036706620164
349,489.90263356248227
350,489.9250300046482
351,489.94754274641195
352,489.9701589195565
353,489.9928664956507
354,490.0156543468564
355,490.0385123050518
356,490.061431218762
357,490.0844030075351
358,490.1074207133895
359,490.1304785488539
360,490.15357194103217
361,490.17669757107086
362,490.1998534083901
363,490.2230387390437
364,490.2462541875989
365,490.26950173192756
366,490.2927847102574
367,490.3161078198021
368,490.33947710636454
369,490.36289994448106
370,490.38638500779433
371,490.40994222926207
372,490.43358275056494
373,490.45731885988044
374,490.48116391722215
375,490.5051322668092
376,490.52923913626626
377,490.55350052274036
378,490.5779330663006
379,490.60255391134586
380,490.6273805571808
381,490.6524306993223
382,490.67772206341283
383,490.7032722338326
384,490.7290984791774
385,490.755217576671
386,490.78164563735305
387,490.8083979336475
388,490.83548873069793
389,490.86293112262365
390,490.89073687457915
391,490.91891627126023
392,490.9474779723808
393,490.9764288757245
394,491.0057739886271
395,491.03551630902257
396,491.0656567173529
397,491.0961938806661
398,491.12712417015615
399,491.1584415932773
400,491.1901377413679
401,491.2222017534439
402,491.2546202964873
403,491.2873775622116
404,491.32045527995126
405,491.3538327450403
406,491.3874868618846
407,491.42139220089376
408,491.45552106844
409,491.4898435889676
410,491.5243277982398
411,491.55893974657175
412,491.59364361085704
413,491.62840181429954
414,491.6631751528609
415,491.69792292742204
416,491.73260308054824
417,491.76717233665096
418,491.8015863442951
419,491.83579981940323
420,491.86976668817545
421,491.90344022867436
422,491.9367732101481
423,491.96971802922366
424,492.00222684216715
425,492.034251692593
426,492.0657446343041
427,492.0966578491791
428,492.12694376008005
429,492.1565551387133
430,492.1854452083897
431,492.2135677417482
432,492.24087715367284
433,492.2673285897519
434,492.2928780106533
435,492.3174822727104
436,492.3410992048602
437,492.3636876819256
438,492.3852076941793
439,492.4056204131975
440,492.4248882541734
441,492.4429749350565
442,492.4598455330656
443,492.47546653926435
444,492.48980591197846
445,492.50283312991945
446,492.51451924596626
447,492.5248369425866
448,492.53376058974106
449,492.5412663058038
450,492.54733202164823
451,492.5519375476591
452,492.55506464304204
453,492.55669708639533
454,492.556820746142
455,492.555423649193
456,492.55249604621406
457,492.5480304720817
458,492.54202180041926
459,492.5344672913661
460,492.5253666319014
461,492.51472196815996
462,492.5025379292588
463,492.4888216421832
464,492.4735827372592
465,492.45683334372836
466,492.43858807504404
467,492.4188640037795
468,492.3976806264004
469,492.3750598184538
470,492.3510257808545
471,492.32560497793315
472,492.2988260678035
473,492.27071982546346
474,492.2413190588799
475,492.21065851812625
476,492.1787747974918
477,492.1457062304912
478,492.1114927779428
479,492.07617590966385
480,492.0397984806341
481,492.0024046025846
482,491.96403951188853
483,491.92474943452817
484,491.8845814489805
485,491.8435833481339
486,491.8018035016838
487,491.759290720661
488,491.716094125742
489,491.67226302078546
490,491.62784677270247
491,491.58289469837655
492,491.5374559589525
493,491.49157946146806
494,491.44531376757755
495,491.39870700903134
496,491.3518068095369
497,491.3046602125176
498,491.2573136141211
499,491.2098127007266
500,491.1622023902416
501,491.1145267766492
502,491.0668290774963
503,491.0191515842241
504,490.97153561541137
505,490.9240214731285
506,490.87664840274783
507,490.8294545567634
508,490.7824769634112
509,490.7357515010641
510,490.68931287942723
511,490.6431946284808
512,490.597429095881
513,490.5520474531861
514,490.5070797108961
515,490.46255474196477
516,490.4185003131357
517,490.37494312314374
518,490.33190884654755
519,490.2894221818156
520,490.24750690227813
521,490.2061859085941
522,490.1654812813729
523,490.12541433256223
524,490.0860056542183
525,490.0472751633237
526,490.00924214138865
527,489.97192526765036
528,489.9353426448283
529,489.8995118166677
530,489.86444977696135
531,489.83017297032103
532,489.7966972855093
533,489.7640380425209
534,489.7322099748145
535,489.70122720817676
536,489.6711032376676
537,489.6418509039903
538,489.6134823705178
539,489.5860091021348
540,489.5594418470088
541,489.53379062230147
542,489.5090647046426
543,489.4852726259223
544,489.4624221746891
545,489.44052040322475
546,489.4195736402286
547,489.39958750896017
548,489.38056695056713
549,489.36251625207734
550,489.34543907817874
551,489.32933850559266
552,489.3142170587351
553,489.3000767454936
554,489.2869190922034
555,489.27474517711477
556,489.26355566171367
557,489.2533508192481
558,489.2441305598373
559,489.23589445165544
560,489.2286417378602
561,489.2223713491124
562,489.21708191164487
563,489.21277175084987
564,489.20943889026114
565,489.2070810456376
566,489.20569561366125
567,489.2052796546102
568,489.2058298683143
569,489.20734256277046
570,489.20981361497013
571,489.2132384237468
572,489.21761185480284
573,489.2229281784887
574,489.229181001256
575,489.2363631918724
576,489.2444668035209
577,489.2534829929452
578,489.26340193788695
579,489.2742127540867
580,489.28590341302555
581,489.29846066137816
582,489.3118699428414
583,489.32611532261063
584,489.3411794144121
585,489.35704330978893
586,489.37368650926817
587,489.39108685503504
588,489.40922046482655
589,489.42806166703014
590,489.44758293742984
591,489.46775483851434
592,489.48854596255563
593,489.50992287975293
594,489.53185009275774
595,489.5542899990507
596,489.5772028630096
597,489.6005467999503
598,489.62427777468196
599,489.6483496170597
600,489.67271405673586
601,489.6973207789218
602,489.72211750246476
603,489.7470500809136
604,489.7720626266011
605,489.797097657227
606,489.822096263969
607,489.84699829974466
608,489.87174258591295
609,489.89626713544385
610,489.92050939034885
611,489.94440647093387
612,489.96789543426524
613,489.9909135391626
614,490.0133985149658
615,490.0352888311851
616,490.0565239649643
617,490.0770446631848
618,490.09679319611126
619,490.1157135997186
620,490.1337519041609
621,490.1508563461675
622,490.16697756343206
623,490.18206876930515
624,490.1960859063556
625,490.20898777768747
626,490.22073615530854
627,490.2312958652876
628,490.24063484982094
629,490.2487242066616
630,490.25553820671365
631,490.26105429092246
632,490.26525304780915
633,490.268118173055
634,490.26963641251285
635,490.26979748997286
636,490.2685940209659
637,490.26602141386235
638,490.2620777595269
639,490.2567637108128
640,490.2500823531897
641,490.24203906775375
642,490.2326413877356
643,490.2218988494562
644,490.20982283861565
645,490.19642643293037
646,490.18172424234535
647,490.16573224818984
648,490.1484676426281
649,490.1299486696014
650,490.1101944682644
651,490.08922491984123
652,490.0670604989284
653,490.0437221304407
654,490.01923105349744
655,489.99360869358304
656,489.9668765443565
657,489.93905606050043
658,489.9101685629145
659,489.8802351573525
660,489.84927666731267
661,489.81731358167343
662,489.78436601726065
663,489.7504536963016
664,489.7155959386141
665,489.67981166840815
666,489.64311943562103
667,489.60553745159274
668,489.56708363853755
669,489.52777569180586
670,489.487631153567
671,489.4466674964142
672,489.40490221542666
673,489.3623529272532
674,489.31903747472523
675,489.2749740354409
676,489.23018123279644
677,489.1846782480891
678,489.13848493250634
679,489.0916219179526
680,489.04411072566614
681,488.9959738714475
682,488.94723496615694
683,488.8979188100562
684,488.8480514795804
685,488.79766040519564
686,488.7467744391448
687,488.6954239121443
688,488.6436406784273
689,488.5914581488258
690,488.5389113117723
691,488.4860367422343
692,488.43287259872545
693,488.37945860864045
694,488.32583604216956
695,488.2720476750077
696,488.218137740089
697,488.16415186871944
698,488.11013702173165
699,488.0561414115361
700,488.0022144160906
701,487.9484064858445
702,487.89476904468347
703,487.84135438586884
704,487.78821556396656
705,487.7354062838203
706,487.68298078768584
707,487.63099374160737
708,487.5795001218994
709,487.52855510223776
710,487.4782139415141
711,487.4285318724
712,487.3795639904782
713,487.3313651437264
714,487.2839898220266
715,487.23749204626495
716,487.1919252565735
717,487.14734219935167
718,487.10379481282644
719,487.06133411103013
720,487.02001006622174
721,486.9798714899802
722,486.9409659133957
723,486.90333946689213
724,486.8670367601727
725,486.832100762637
726,486.7985726844947
727,486.76649185879194
728,486.73589562468527
729,486.70681921247024
730,486.6792956310713
731,486.65335555894956
732,486.62902723966715
733,486.60633638352977
734,486.5853060766697
735,486.5659566986419
736,486.5483058492572
737,486.5323682851217
738,486.51815586622814
739,486.5056775128926
740,486.49493917330426
741,486.4859438019365
742,486.478691349088
743,486.4731787619108
744,486.46939999743694
745,486.46734604827395
746,486.4670049817136
747,486.4683619929292
748,486.471399472731
749,486.4760970901016
750,486.48243188952523
751,486.4903784029384
752,486.49990877593234
753,486.5109929076578
754,486.52359860375407
755,486.5376917415039
756,486.5532364461826
757,486.57019527716506
758,486.58852942187525
759,486.6081988952758
760,486.6291627423974
761,486.65137924137105
762,486.67480610445705
763,486.6994006745814
764,486.72512011491085
765,486.75192158915763
766,486.7797624306606
767,486.8086002987352
768,486.83839332115093
769,486.8691002218814
770,486.90068043359304
771,486.9330941947038
772,486.96630263110933
773,487.0002678227287
774,487.0349528549399
775,487.0703218549211
776,487.10634001298064
777,487.14297358911807
778,487.1801899052173
779,487.2179573233979
780,487.2562452111788
781,487.2950238943007
782,487.33426459831423
783,487.37393938030044
784,487.41402105228894
785,487.4544830980512
786,487.4952995850112
787,487.5364450730755
788,487.57789452221044
789,487.6196232005009
790,487.6616065941464
791,487.7038203204705
792,487.7462400447104
793,487.78884140122983
794,487.8315999198438
795,487.8744909580199
796,487.9174896396688
797,487.9605708010108
798,488.00370894371144
799,488.04687819527396
800,488.0900522766139
801,488.13320447677074
802,488.176307634749
803,488.2193341284511
804,488.26225587053625
805,488.30504431084984
806,488.34767044491264
807,488.39010482790746
808,488.43231759366375
809,488.47427847822206
810,488.51595684757797
811,488.55732172918465
812,488.5983418468653
813,488.63898565901684
814,488.67922140026405
815,488.71901712691493
816,488.75834076666564
817,488.79716017309283
818,488.8354431855423
819,488.87315769498593
820,488.9102717162295
821,488.94675346657897
822,488.98257145079975
823,489.0176945519676
824,489.05209212761144
825,489.08573411035195
826,489.1185911120124
827,489.150634529961
828,489.18183665437203
829,489.21217077523784
830,489.24161128823147
831,489.2701337987454
832,489.297715223553
833,489.3243338896167
834,489.34996962965005
835,489.37460387413427
836,489.39821973959624
837,489.42080211310713
838,489.44233773313977
839,489.462815267019
840,489.48222538511754
841,489.5005608317349
842,489.51781649237154
843,489.53398945695983
844,489.5490790785371
845,489.5630870268065
846,489.57601733598824
847,489.58787644630587
848,489.59867323839944
849,489.60841905993806
850,489.6171277437515
851,489.6248156169027
852,489.6315015002621
853,489.63720669830553
854,489.64195497902716
855,489.64577254402536
856,489.6486879889378
857,489.6507322544135
858,489.6519385676874
859,489.6523423746183
860,489.65198126189847
861,489.6508948691287
862,489.64912479051236
863,489.6467144659512
864,489.64370906130887
865,489.6401553376585
866,489.6361015095631
867,489.6315970928345
868,489.6266927426045
869,489.62144008272844
870,489.61589152748974
871,489.61010009643564
872,489.6041192231467
873,489.5980025589293
874,489.5918037727834
875,489.58557634940144
876,489.5793733872345
877,489.57324739877174
878,489.5672501151744
879,489.5614322973603
880,489.55584355551076
881,489.55053217870864
882,489.5455449760296
883,489.54092712998954
884,489.53672206286757
885,489.5329713161083
886,489.5297144427877
887,489.5269889130623
888,489.5248300326101
889,489.52327087421685
890,489.5223422227027
891,489.52207253322115
892,489.5224879026573
893,489.52361205356846
894,489.52546632992596
895,489.52806970381096
896,489.5314387921174
