frame_number,force
0,652.9594100000487
1,653.2181900750763
2,653.4713824692152
3,653.7140759831841
4,653.9425546451414
5,654.1545477925667
6,654.3491780645465
7,654.5266544636881
8,654.6878154195547
9,654.8336489032602
10,654.964903860936
11,655.0818684512736
12,655.1843379806381
13,655.271745547735
14,655.3434006951923
15,655.398781328855
16,655.4378343420458
17,655.4612422361549
18,655.4706078347353
19,655.4685105264867
20,655.4584049352036
21,655.4443644553251
22,655.4307055092615
23,655.4215512500024
24,655.4204014732276
25,655.4297705836491
26,655.450941044401
27,655.4838604244378
28,655.527191384929
29,655.5785080631811
30,655.6346145065689
31,655.691937647078
32,655.746930168255
33,655.7964207686784
34,655.837864286138
35,655.8694611198894
36,655.8901408948263
37,655.8994416263805
38,655.8973393997243
39,655.8840753532213
40,655.8600029141588
41,655.8254663057272
42,655.780721675088
43,655.7259098219566
44,655.6610838292312
45,655.586290164406
46,655.501688227354
47,655.4076653936003
48,655.3048842480092
49,655.1942140137435
50,655.0765458409041
51,654.9525417403272
52,654.8223979258133
53,654.6857116963916
54,654.5415259594545
55,654.3885831692032
56,654.2257545368603
57,654.0525418117812
58,653.8695078174192
59,653.6784989085376
60,653.482579824065
61,653.2856899437329
62,653.0921082648952
63,652.9058395843601
64,652.7300027901042
65,652.5662611423057
66,652.41433370086
67,652.271661294662
68,652.1333194083298
69,651.9922432231454
70,651.8397746347364
71,651.666489893312
72,651.4632298146822
73,651.222223269457
74,650.9381632927508
75,650.6090739766539
76,650.2368148354707
77,649.8271184209425
78,649.389138752286
79,648.9345796033303
80,648.4765424435321
81,648.0282594066183
82,647.6018556096797
83,647.2072428789418
84,646.8512200694624
85,646.536863055144
86,646.2633083537584
87,646.0260171647192
88,645.8175212239062
89,645.6285274411362
90,645.4491635372787
91,645.2701316074346
92,645.0835969293109
93,644.8837354856175
94,644.666952054995
95,644.4318315360026
96,644.178895996312
97,643.9102327925742
98,643.6290565114793
99,643.3392644033909
100,643.0450310450063
101,642.750469382086
102,642.4593673304353
103,642.1749876773674
104,641.8999040220783
105,641.6358571118471
106,641.3836476431346
107,641.1431001823192
108,640.9131223018425
109,640.6918617257093
110,640.4769538583823
111,640.2658511561767
112,640.0562217344435
113,639.8463913298838
114,639.6357783252081
115,639.4252388687526
116,639.2172172638117
117,639.0156109983212
118,638.8253145640782
119,638.6514834561373
120,638.498638957754
121,638.3697971335654
122,638.2658242043576
123,638.1851686348728
124,638.1240104847074
125,638.0767611608162
126,638.0367949893516
127,637.9972949758135
128,637.9521125009251
129,637.8965535076017
130,637.8280141910141
131,637.7464050665232
132,637.654323303903
133,637.556948974746
134,637.4616500368047
135,637.377306345489
136,637.313420159768
137,637.2791390818177
138,637.2823307629003
139,637.3288156306535
140,637.421821621202
141,637.5616939681623
142,637.7458667919269
143,637.9690786148295
144,638.2237984763443
145,638.500823633782
146,638.7900040420466
147,639.0810358726594
148,639.3642508323771
149,639.6313193238105
150,639.8757901793084
151,640.0934132055679
152,640.2822308975935
153,640.4424631631399
154,640.5762230534926
155,640.6870966162186
156,640.7796218995749
157,640.8587258316068
158,640.9292042562366
159,640.9953247515954
160,641.0605886440392
161,641.127642670929
162,641.1983094134488
163,641.2737008262079
164,641.3543782541914
165,641.4405275659919
166,641.5321274345475
167,641.6290926166629
168,641.7313725238745
169,641.8389857890375
170,641.9519748882198
171,642.0702718495668
172,642.1934841717457
173,642.3206398038512
174,642.4499560311677
175,642.5787040277314
176,642.7032269662072
177,642.8191406094894
178,642.9217098771842
179,643.0063658638298
180,643.0693109865874
181,643.1081457517945
182,643.1224309679462
183,643.1140837260394
184,643.0875113143904
185,643.0494220339626
186,643.0083081924093
187,642.9736557648945
188,642.954979225962
189,642.9608033745666
190,642.9977226865243
191,643.0696673874745
192,643.1774877337415
193,643.3189254807089
194,643.4889798435776
195,643.6806126175915
196,643.8856879491138
197,644.0960107339854
198,644.3043151985074
199,644.505064236367
200,644.694949130657
201,644.8730246955324
202,645.0404749013102
203,645.2000703601516
204,645.3554315574539
205,645.510234790168
206,645.6674935244346
207,645.8290251717173
208,645.9951734656247
209,646.1648024824214
210,646.335530289481
211,646.5041496655075
212,646.6671804324369
213,646.8214866939355
214,646.9648740460212
215,647.0965778979777
216,647.2175671404949
217,647.3306061848351
218,647.4400452016138
219,647.5513517254417
220,647.6704470976549
221,647.8029470900759
222,647.953417736743
223,648.1247487201944
224,648.3177225210065
225,648.530822916373
226,648.7602916564721
227,649.0004185996022
228,649.2440388542111
229,649.4831984573073
230,649.7099285381524
231,649.9170428505564
232,650.0988584395949
233,650.2517435346329
234,650.3744256112732
235,650.4680419316024
236,650.5359630413228
237,650.5834399834232
238,650.6171139489551
239,650.6444054414009
240,650.6727986733969
241,650.7090713745877
242,650.7585742939203
243,650.8246917456648
244,650.9085786070613
245,651.0091903686814
246,651.1235617359624
247,651.2472810425231
248,651.3751281271906
249,651.5018440507147
250,651.6229643026899
251,651.7355991317959
252,651.8390238106373
253,651.9349641416037
254,652.0275192317459
255,652.1227352366
256,652.2279061470863
257,652.3507102609241
258,652.4982961448623
259,652.6764290876916
260,652.8888039670505
261,653.1366101683018
262,653.4183949904054
263,653.730229524678
264,654.0661464701598
265,654.4187873952817
266,654.7801655990255
267,655.1424325238188
268,655.4985417465452
269,655.8427331055134
270,656.1708029718361
271,656.4801756071142
272,656.7698279252749
273,657.0401283801259
274,657.2926299230321
275,657.5298245577433
276,657.7548444829584
277,657.9710959251631
278,658.1818325521293
279,658.389697358292
280,658.5962768955098
281,658.80173199556
282,659.0045983165987
283,659.2018604118483
284,659.3893625197858
285,659.5625311524076
286,659.7172879484078
287,659.850969194661
288,659.9630606802258
289,660.0555999951868
290,660.1331790864689
291,660.2025709634346
292,660.272067440228
293,660.3506288292157
294,660.4469320391703
295,660.5683990835879
296,660.720305755357
297,660.9050879838447
298,661.1219548697784
299,661.3668758804905
300,661.632946874014
301,661.9110777807042
302,662.1909082012824
303,662.4618523538375
304,662.7141789280037
305,662.940021416998
306,663.1342027905355
307,663.2947730796246
308,663.4231973183881
309,663.5241684572867
310,663.6050504362106
311,663.6749988712517
312,663.7438620124582
313,663.8210060638851
314,663.9142147337917
315,664.0287878625049
316,664.1669263712479
317,664.3274516340738
318,664.5058683463213
319,664.69474517734
320,664.8843649639098
321,665.0635832293793
322,665.2208204306905
323,665.345104982609
324,665.4270920549822
325,665.4599934275293
326,665.440342513703
327,665.3684947452338
328,665.248763002744
329,665.0891336332427
330,664.9005914957232
331,664.6961667014713
332,664.4898570660177
333,664.2955597845757
334,664.1260897135752
335,663.9923120593222
336,663.9023937895863
337,663.8611827483902
338,663.8697554451898
339,663.9252153180196
340,664.0208339753198
341,664.1465852771855
342,664.2900456868156
343,664.4375667896462
344,664.5755933817001
345,664.6919967341031
346,664.777295850127
347,664.8256397156957
348,664.8354327300714
349,664.8095207762311
350,664.7549137311164
351,664.6820799539987
352,664.6038942012813
353,664.5343533131539
354,664.4871954955119
355,664.4745629567436
356,664.5058339584722
357,664.5867335404869
358,664.7188216686617
359,664.8994365223185
360,665.1221135318963
361,665.3774130422674
362,665.6540124822518
363,665.9398889080659
364,666.2234348594025
365,666.4943917863084
366,666.7445298445575
367,666.9680407915307
368,667.1616450166727
369,667.3244487773904
370,667.4576125675407
371,667.5638951346403
372,667.647133520684
373,667.7117233824428
374,667.7621618479747
375,667.8026881407909
376,667.8370179303082
377,667.8681454610308
378,667.8981934627004
379,667.9283117782178
380,667.9586449197133
381,667.9883984913599
382,668.0160309756818
383,668.0395750185041
384,668.0570524306513
385,668.066908786406
386,668.0683802478135
387,668.0617222718663
388,668.0482649496704
389,668.0302985031435
390,668.0108222573881
391,667.9932032580547
392,667.9807916088184
393,667.9765390644812
394,667.9826658966787
395,668.0004111591044
396,668.0298830635694
397,668.0700131330051
398,668.1186219634398
399,668.1726113073979
400,668.2282780905869
401,668.281702322445
402,668.3291319975967
403,668.3673045719942
404,668.3936916944756
405,668.4066877472055
406,668.4057537989352
407,668.3914890985885
408,668.365575987249
409,668.3305643148541
410,668.2895178633573
411,668.2455974701702
412,668.2016718804907
413,668.1600237080694
414,668.1221728679953
415,668.0888038320466
416,668.0597775222948
417,668.0342246615892
418,668.0107247319373
419,667.9875570238802
420,667.9629811287211
421,667.9354884075608
422,667.9039750109888
423,667.8678133157521
424,667.8268262293969
425,667.7811861814126
426,667.7312667735287
427,667.6774779055023
428,667.6201212349033
429,667.5593066593112
430,667.494958737485
431,667.4269087261329
432,667.3550262571061
433,667.2793216391773
434,667.1999621650959
435,667.1171815163323
436,667.0310955399203
437,666.9414620233065
438,666.8474443600045
439,666.7474580378025
440,666.639175274421
441,666.5197234595331
442,666.3860549946529
443,666.2354236115926
444,666.065889529521
445,665.8767786645418
446,665.6690233828502
447,665.4453186538682
448,665.2100482749471
449,664.9689630512529
450,664.7286140949822
451,664.4955683040884
452,664.2754767658712
453,664.0721276449326
454,663.8866650255547
455,663.7171577441227
456,663.5586402692352
457,663.4036427775208
458,663.2431239437758
459,663.0676477757685
460,662.8686117589732
461,662.63933567382
462,662.3758538136027
463,662.0773115751206
464,661.7459448895559
465,661.3867031338763
466,661.0066373340917
467,660.614197644549
468,660.2185656177277
469,659.8290943911992
470,659.4548606561859
471,659.1042771016747
472,658.7846986194547
473,658.5019792540069
474,658.2599816019183
475,658.0600891381459
476,657.9008094193218
477,657.7775678695401
478,657.6827746273585
479,657.6062117831646
480,657.5357494782793
481,657.4583600974337
482,657.361351301218
483,657.2336792954426
484,657.0671566480393
485,656.8573647816486
486,656.604124768056
487,656.3114506902831
488,655.9869913030425
489,655.6410544287043
490,655.2853915944168
491,654.9319639556549
492,654.5918849001825
493,654.2746480672599
494,653.9876471038574
495,653.7359275050305
496,653.5221081181824
497,653.3464498407294
498,653.2070778211747
499,653.1003493679807
500,653.0213242577953
501,652.9642733264801
502,652.9231634911376
503,652.8920746009609
504,652.8655288985143
505,652.8387351907625
506,652.8077579221871
507,652.7696247936826
508,652.7223928997911
509,652.6651921494667
510,652.5982482506474
511,652.5228668819575
512,652.4413515672258
513,652.3568349347883
514,652.2730204933528
515,652.1938512800281
516,652.1231375605063
517,652.0641853743585
518,652.0194677741696
519,651.9903697849479
520,651.9770237735852
521,651.9782471755107
522,651.9915992871104
523,652.0135665528178
524,652.039851556269
525,652.0657013102814
526,652.0862023649973
527,652.0965005951299
528,652.0919470378551
529,652.0682048428047
530,652.0213697865158
531,651.9481546830724
532,651.8461601196257
533,651.7142052264527
534,651.5526472320378
535,651.363601078253
536,651.1509826792949
537,650.920330358895
538,650.6783970960637
539,650.4325425119969
540,650.1899868709476
541,649.9570230779768
542,649.7383074654127
543,649.5363458128413
544,649.3512522360617
545,649.1808032819812
546,649.0207589841109
547,648.8653876030096
548,648.7081139181633
549,648.5422083593696
550,648.3614406069287
551,648.1606354498906
552,647.9360856952827
553,647.6857877064616
554,647.4094775952816
555,647.1084804408607
556,646.7854343090174
557,646.4439788781752
558,646.0884866315881
559,645.7238792631847
560,645.3555302043496
561,644.9892064676242
562,644.630958931665
563,644.2868633280837
564,643.9625672539925
565,643.662685214559
566,643.3901514144404
567,643.1456631008974
568,642.9273345902112
569,642.730646168468
570,642.5487182601664
571,642.3728830128102
572,642.1934845600047
573,642.0008212765134
574,641.7861297339225
575,641.5424896764903
576,641.2655210451429
577,640.9537700908566
578,640.6087357418259
579,640.2345468033459
580,639.8373517256413
581,639.424521799237
582,639.0037931226868
583,638.5824801403273
584,638.1668787800024
585,637.7619354471045
586,637.3711995785791
587,636.9970250337104
588,636.6409517407506
589,636.3041789301577
590,635.9880299955681
591,635.6943108920314
592,635.4254846691936
593,635.1846246807997
594,634.975163465891
595,634.8005085677762
596,634.6636257099103
597,634.5666786477484
598,634.5107756557624
599,634.4958320912986
600,634.5205360270845
601,634.5824004877444
602,634.6778870420173
603,634.8025779087615
604,634.9513627970939
605,635.1186128118268
606,635.2983441755728
607,635.4844048084756
608,635.6707143916082
609,635.8515540857675
610,636.021868407889
611,636.1775333008588
612,636.3155571070191
613,636.4341976505536
614,636.5329880627295
615,636.6126692809032
616,636.6750382002914
617,636.7227391312326
618,636.7590402576778
619,636.7876310376297
620,636.8124508462247
621,636.8375322901511
622,636.866832681478
623,636.9040347058851
624,636.9523139065429
625,637.014091534184
626,637.0908093646925
627,637.1827656499829
628,637.2890377565891
629,637.4075062418774
630,637.535002174906
631,637.6676094599134
632,637.8011348051997
633,637.9317044902233
634,638.056393138147
635,638.1737680537617
636,638.2842431394241
637,638.3901620451643
638,638.4955664287716
639,638.6056623553205
640,638.7260731877946
641,638.8620262341183
642,639.0176295551297
643,639.1953602776812
644,639.3958318101892
645,639.6178488528383
646,639.8587066139498
647,640.1146586651972
648,640.381471841797
649,640.6549996531475
650,640.9317261538471
651,641.2092450425046
652,641.4866320800929
653,641.7646486324143
654,642.045703035393
655,642.3335183403605
656,642.6325184599607
657,642.9470278513194
658,643.2804360863835
659,643.6344788789298
660,644.0087476885976
661,644.4004952266882
662,644.80476585149
663,645.2148381854112
664,645.6229192184094
665,646.0209866345277
666,646.4016522718376
667,646.7589224208934
668,647.0887626889232
669,647.3894259830377
670,647.661547660641
671,647.9080330076213
672,648.1337620487413
673,648.3451348377595
674,648.5494934189926
675,648.7544828885324
676,648.9674328322711
677,649.1948340748031
678,649.4419622033273
679,649.7126780631583
680,650.0094146858128
681,650.3333263582764
682,650.6845369545002
683,651.062405876152
684,651.4657404789322
685,651.8929141577811
686,652.3418878630432
687,652.810168733441
688,653.294757588107
689,653.7921300684014
690,654.2982775161432
691,654.8088184560803
692,655.3191732741012
693,655.8247645432081
694,656.3211846375577
695,656.8042899247738
696,657.2702273999721
697,657.7154344432804
698,658.1366505376722
699,658.5309532594863
700,658.8958116917174
701,659.2291556524987
702,659.5294715373466
703,659.7959316045508
704,660.0285480767905
705,660.2283333240886
706,660.3974419802208
707,660.5392641609932
708,660.6584361568956
709,660.7607378956776
710,660.852847971604
711,660.9419312380766
712,661.0350605634002
713,661.1385300440232
714,661.2571729320015
715,661.3938131041414
716,661.5489471822855
717,661.7207037092327
718,661.9050767994283
719,662.0963828931862
720,662.2878472869351
721,662.472216255779
722,662.6423203234043
723,662.7915629590833
724,662.9143450062062
725,663.0064396898005
726,663.065310879857
727,663.0903426163335
728,663.0829407236125
729,663.0464763392243
730,662.9860537455551
731,662.908095184695
732,662.8197513636768
733,662.7281816500372
734,662.6397999161973
735,662.5596195394473
736,662.49081754111
737,662.434571439931
738,662.3901438614768
739,662.3551457388318
740,662.3259135573225
741,662.2979680787516
742,662.266545410295
743,662.2271836058005
744,662.1763161478549
745,662.1117941480111
746,662.0332538921533
747,661.942268113862
748,661.8422536708313
749,661.7381403388333
750,661.6358336970472
751,661.5415335550994
752,661.4609950721621
753,661.3988357959562
754,661.3579930702718
755,661.3394172844309
756,661.34204653671
757,661.3630584089616
758,661.3983488225264
759,661.4431513865596
760,661.4926842984529
761,661.5427047386754
762,661.58987529825
763,661.631900307569
764,661.6674495804031
765,661.6959313615135
766,661.7171974301743
767,661.731261927397
768,661.738098081183
769,661.7375557697434
770,661.7294229141047
771,661.7136259235128
772,661.6905222325065
773,661.6611957396515
774,661.627649351121
775,661.5928090579496
776,661.5603001132615
777,661.5340100172511
778,661.517505209454
779,661.5134136964206
780,661.5229094072531
781,661.5454141313825
782,661.5785718480016
783,661.6184840715191
784,661.6601556728236
785,661.6980891885169
786,661.7269640759519
787,661.7423300176333
788,661.7412300579603
789,661.7226664984175
790,661.6878433380209
791,661.6401576999568
792,661.5849507651126
793,661.5290511325234
794,661.4801508753194
795,661.446062505842
796,661.4339256445389
797,661.4494580675077
798,661.4963571336864
799,661.5759404732488
800,661.6870715320257
801,661.8263610642706
802,661.988585705458
803,662.1672298516505
804,662.3550475702353
805,662.544564281186
806,662.728483457048
807,662.900008278773
808,663.0531165339185
809,663.1828351096099
810,663.2855427008659
811,663.3592831344129
812,663.4040154738318
813,663.4216960713585
814,663.4161064437009
815,663.3924046150777
816,663.3564591348999
817,663.3140929467595
818,663.2703926997391
819,663.2292132224145
820,663.1929386955084
821,663.1624902451645
822,663.1375275682832
823,663.1167828549029
824,663.0984699145588
825,663.0807131071
826,663.0619421408226
827,663.0412124863628
828,663.018429183536
829,662.9944522614144
830,662.9710503341176
831,662.9506768605972
832,662.9360824210722
833,662.9298239231213
834,662.9337623159241
835,662.9486443997324
836,662.9738437647253
837,663.0073011459247
838,663.0456719508657
839,663.0846684525902
840,663.1195687234307
841,663.1458395976424
842,663.1597876449631
843,663.1591290687517
844,663.1433726867411
845,663.1139381979872
846,663.0739777433976
847,663.02793185686
848,662.9809201711528
849,662.938110188914
850,662.9041982670675
851,662.8830817772532
852,662.8777286982814
853,662.8901915960636
854,662.9216841009543
855,662.9726355661535
856,663.0426556796467
857,663.1303813497433
858,663.2332436319065
859,663.3472515706256
860,663.4669018730341
861,663.5852852674705
862,663.694406887794
863,663.7856975162155
864,663.8506683453078
865,663.8816471404904
866,663.8725199222946
867,663.8193871691359
868,663.7210422777723
869,663.5792088964319
870,663.3985204509571
871,663.186260042707
872,662.9518903034482
873,662.7064006892981
874,662.4614964089934
875,662.2286602735318
876,662.0181479867646
877,661.838023253404
878,661.6933701613183
879,661.5858057096685
880,661.5133558982872
881,661.470687611737
882,661.4496436969226
883,661.4400199138234
884,661.4305257948306
885,661.4098606001731
886,661.3678093273977
887,661.2962410635187
888,661.189890962936
889,661.0468280843517
890,660.8685424015434
891,660.6596267028063
892,660.4270933131214
893,660.1794355301868
894,659.925579699433
895,659.6738627022561
896,659.4311403361796
897,659.2021131046663
898,658.988942168534
899,658.7911996603834
900,658.6061499566871
901,658.4293052492244
902,658.2551575844449
903,658.077973526315
904,657.892548361926
905,657.6948424700637
906,657.4824499194079
907,657.2548762159607
908,657.0136271929829
909,656.7621218311565
910,656.5054314039247
911,656.2498349560689
912,656.0021926185427
913,655.7691735108024
914,655.5564141954371
915,655.367715143857
916,655.2044023554665
917,655.0649760812048
918,654.9451274566029
