acceleration,velocity,displacement
-0.0001665379453323073,0.0,0.0
0.0006017505075951785,1.0880314056571781e-07,2.7200785141429452e-11
0.0013704686058279272,6.018579189214943e-07,2.0486605001323248e-10
0.0021400378660574155,1.47948453689283e-06,7.252016639668136e-10
0.0029108636773480623,2.7422099227441993e-06,1.7806252788760708e-09
0.003683327565429563,4.390757733438606e-06,3.563867192921772e-09
0.004457779859201062,6.426034589596262e-06,6.268065273680489e-09
0.005234532899806479,8.849112779348148e-06,1.0086852115916592e-08
0.006013854925107547,1.1661209735576655e-05,1.5214432744647792e-08
0.006795964743460921,1.486366465271877e-05,2.184565134172165e-08
0.00758102728106015,1.8457912658849038e-05,3.01760456696136e-08
0.008369150050157325,2.2445456991653408e-05,4.0401888082239214e-08
0.009160380545628741,2.6827839640599926e-05,5.2720212240302545e-08
0.00995470453913921,3.160661091179191e-05,6.73288248784005e-08
0.01075204520883827,3.6783298348786286e-05,8.442630219354504e-08
0.011552263023563073,4.235937540688662e-05,1.0421197063246327e-07
0.012355156295595386,4.8336230236676234e-05,1.2688587204335398e-07
0.013160462319561252,5.4715134890465395e-05,1.526487133251394e-07
0.01396785901866996,6.14972152250232e-05,1.8170180085401153e-07
0.014776967019501586,6.868342173456609e-05,2.1424696009390884e-07
0.015587352076928114,7.62745015086735e-05,2.504864409047187e-07
0.016398527775998706,8.427097147190522e-05,2.906228091498634e-07
0.017209958449147328,9.267309302819173e-05,3.348588252748876e-07
0.018021062264353797,0.000101480848206567,3.8339731058357726e-07
0.01883121446088179,0.0001106939173878759,4.36441001982188e-07
0.019639750727459448,0.00012031165868496121,4.941923960003973e-07
0.020445970724538746,0.00013033308904796076,5.568535829336278e-07
0.021249141743272717,0.00014075686716491363,6.246260719868464e-07
0.02204850247442339,0.00015158127821933765,6.977106083329092e-07
0.022843266844768416,0.0001628042205491356,7.763069830250275e-07
0.023632627880683214,0.0001744231942304985,8.60613836719936e-07
0.02441576157605689,0.00018643529159468355,9.508284581762315e-07
0.025191830756592152,0.00019883718967784582,1.0471465784943639e-06
0.025959988931769228,0.00021162514459993617,1.1497621620638093e-06
0.026719384112984843,0.0002247949878611247,1.2588671951790744e-06
0.027469162562799875,0.00023834212453007088,1.3746514732768732e-06
0.028208472432739592,0.00025226153327895576,1.49730238772913e-06
0.02893646724711417,0.0002665477681989192,1.6270047130985988e-06
0.029652309196330582,0.0002811949623097804,1.7639403957257737e-06
0.03035517220994836,0.0002961968326613501,1.9082883444685563e-06
0.031044244783061347,0.00031154668690960255,2.0602242243612943e-06
0.03171873253028612,0.0003272374312379394,2.2199202538981796e-06
0.03237786044396158,0.00034326157948150134,2.38754500657804e-06
0.03302087484022087,0.00035961126330254694,2.563263217274052e-06
0.03364704498826457,0.0003762782432596683,2.747235593914606e-06
0.034255664432150286,0.000393253920614772,2.939618634883216e-06
0.034846052030270615,0.0004105293497303772,3.140564452469503e-06
0.03541755275688973,0.0004280952509271673,3.350220602633889e-06
0.035969538330285176,0.00044594202369896104,3.568729921290421e-06
0.03650140774510611,0.00046405976021780885,3.796230367269614e-06
0.03701258778498695,0.00048243825910033214,4.032854872099149e-06
0.03750253357331811,0.0005010670394399084,4.278731196734209e-06
0.037970729189320755,0.0005199353551305681,4.533981795376828e-06
0.03841668834174473,0.0005390322095133345,4.798723686537804e-06
0.03883995506428465,0.0005583463703648418,5.073068331507348e-06
0.039240104381404496,0.0005778663852262641,5.357121520405125e-06
0.03961674288979643,0.0005975805970440644,5.650983265972707e-06
0.0399695092032856,0.0006174771600673349,5.954747705250556e-06
0.0402980742143421,0.0006375440559217418,6.268503009247825e-06
0.04060214113595754,0.0006577691097593168,6.59233130066809e-06
0.04088144530710177,0.0006781400063700816,6.9263085797004395e-06
0.041135753771186646,0.0006986443061396537,7.2705046578278734e-06
0.041364864662564775,0.0007192694607480915,7.6249830995498096e-06
0.04156860645612424,0.0007400028285277638,7.989801171868774e-06
0.04174683714872886,0.000760831689428977,8.36500980135796e-06
0.04189944344695144,0.000781743259577897,8.750653538609678e-06
0.042026340032182766,0.0008027247054476806,9.146770529866073e-06
0.04212746896521183,0.0008237631576970293,9.553392495652251e-06
0.0422027992818734,0.0008448457247588006,9.97054471626621e-06
0.042252326820237246,0.0008659595062843283,1.0398246024026991e-05
0.04227607430914061,0.0008870916065666728,1.0836508802239742e-05
0.04227409173962609,0.0009082291480788645,1.1285338990901127e-05
0.042246457032438914,0.0009293592852718807,1.1744736099238813e-05
0.042193276998076006,0.0009504692187795094,1.221469322525166e-05
0.04211468855926526,0.0009715462101688447,1.269519708248875e-05
0.042010860180489544,0.0009925775973537833,1.3186228034369406e-05
0.04188199343779367,0.0010135508107583541,1.3687760136397441e-05
0.04172832466186093,0.0010344533902832678,1.4199761186657846e-05
0.04155012658346904,0.0010552730030946003,1.4722192785002313e-05
0.04134770989531709,0.0010759974622142968,1.5255010401329538e-05
0.04112142462607813,0.0010966147458446455,1.5798163453344274e-05
0.040871661216880316,0.001117113017305385,1.6351595394131783e-05
0.04059885120534188,0.0011374806454109406,1.6915243809810865e-05
0.040303467452545136,0.0011577062250754124,1.7489040527432452e-05
0.03998602388228687,0.0011777785979091204,1.8072911733178585e-05
0.039647074728701145,0.0011976868725618675,1.866677810079633e-05
0.039287213301875276,0.0012174204445695115,1.9270554930079173e-05
0.03890707028284181,0.0012369690154656909,1.9884152295087973e-05
0.038507311556521505,0.0012563226109255318,2.050747520168578e-05
0.03808863559159539,0.001275471597712561,2.1140423753845304e-05
0.0376517703850259,0.0012944066992067163,2.1782893328075124e-05
0.03719747000898646,0.0013131190093052193,2.2434774755203107e-05
0.03672651082807694,0.0013316000045144852,2.309595450865803e-05
0.03623968748631041,0.001349841554093082,2.3766314898309925e-05
0.035737808781232866,0.001367835928159968,2.4445734268873186e-05
0.035221693535208376,0.0013855758037390781,2.5134087201847946e-05
0.03469216654625567,0.001403054268759444,2.5831244719972575e-05
0.03415005467279989,0.001420264824064208,2.653707449317849e-05
0.03359618309302086,0.0014372013835056631,2.7251441045070955e-05
0.03303137177799573,0.0014538582722234173,2.7974205959003226e-05
0.03245643221910579,0.0014702302232226928,2.8705228082864753e-05
0.03187216444811903,0.001486312372389499,2.94443637317678e-05
0.03127935437811569,0.0015021002520960577,3.019146688788919e-05
0.030678771471024303,0.0015175897835583427,3.094638939680279e-05
0.030071166708605216,0.00153277726810325,3.170898115971819e-05
0.02945727082323667,0.0015476593774862105,3.2479090321115555e-05
0.028837792742239132,0.0015622331433775795,3.3256563451331506e-05
0.028213418209076756,0.0015764959461154085,3.404124572370475e-05
0.027584808556518892,0.0015904455028068075,3.4832981085935306e-05
0.026952599615683883,0.0016040798548498582,3.563161242534947e-05
0.026317400748264715,0.0016173973549408454,3.643698172779715e-05
0.02567979398683603,0.0016303966536246207,3.7248930229938515e-05
0.025040333267409787,0.0016430766854381822,3.8067298564704216e-05
0.024399543749543073,0.0016554366546924204,3.8891926899736866e-05
0.023757921242688985,0.0016674760209404785,3.972265506864509e-05
0.023115931781286278,0.0016791944841964724,4.0559322694929327e-05
0.02247401140391599,0.001690591969992773,4.1401769308476635e-05
0.021832566192257506,0.0017016686143918162,4.2249834454572784e-05
0.02119197261792603,0.001712424749094362,4.310335779544433e-05
0.020552578232537914,0.001722860886806978,4.3962179204419665e-05
0.019914702721490107,0.001732977707045485,4.482613885288278e-05
0.01927863932950216,0.0017427760425582331,4.5695077290283706e-05
0.01864465665706609,0.0017522568665548752,4.656883551756198e-05
0.01801300081604272,0.0017614212809231524,4.744725505443149e-05
0.017383897910590543,0.0017702705056048106,4.833017800106348e-05
0.016757556771590028,0.0017788058692753557,4.9217447094783525e-05
0.016134171826738517,0.0017870288014249379,5.0108905762458596e-05
0.015513925955200866,0.0017949408258704227,5.100439816928244e-05
0.014896993170740046,0.001802543555651908,5.190376926466302e-05
0.014283540998436926,0.0018098386891942022,5.2806864825874544e-05
0.013673732442847994,0.0018168280075545233,5.371353150006173e-05
0.013067727477587644,0.0018235133725346322,5.462361684508402e-05
0.012465684013834636,0.0018298967254074877,5.553696936956955e-05
0.011867758329951805,0.0018359800859934342,5.645343857241978e-05
0.011274104968691821,0.001841765551818095,5.737287498187266e-05
0.010684876134077575,0.0018472552970937874,5.829513019410063e-05
0.010100220648696635,0.001852451571289481,5.9220056911196444e-05
0.009520282563596433,0.0018573566970925541,6.014750897829195e-05
0.008945199541308924,0.0018619730676187804,6.107734141946979e-05
0.008375101146180881,0.001866303142790653,6.200941047207215e-05
0.007810107166116393,0.0018703494448687272,6.2943573618987e-05
0.007250326060485334,0.0018741145531753778,6.387968961849802e-05
0.006695853598828556,0.0018776010980902063,6.481761853131442e-05
0.006146771739025869,0.00188081175442467,6.575722174444315e-05
0.005603147788733874,0.0018837492343066098,6.669836199162597e-05
0.005065033886624219,0.0018864162797254493,6.764090337013398e-05
0.004532466820930781,0.0018888156549023382,6.858471135379093e-05
0.0040054681731846245,0.001890950138650867,6.952965280217923e-05
0.0034840447467005477,0.0018928225168808382,7.047559596606216e-05
0.002968189229137445,0.0018944355753747978,7.142241048912607e-05
0.0024578810538369742,0.0018957920929455413,7.236996740620615e-05
0.0019530874548062168,0.001896894835072702,7.331813913821071e-05
0.0014537647364385755,0.0018977465481205132,7.426679948400901e-05
0.0009598597902827188,0.0018983499542521937,7.521582360960218e-05
0.0004713118863263316,0.001898707747171346,7.616508803495807e-05
-1.1945249545724394e-05,0.001898822588830541,7.711447061895854e-05
-0.000489981078526902,0.001898697107248523,7.806385054297831e-05
-0.0009628656332984553,0.0018983338955705666,7.901310829368307e-05
-0.0014306666784538538,0.0018977355124926284,7.996212564569887e-05
-0.001893446700479048,0.0018969044841478952,8.091078564485901e-05
-0.0023512598029057303,0.001895843307522049,8.18589725927765e-05
-0.0028041485976528615,0.0018945544554219093,8.280657203351248e-05
-0.003252141187709736,0.0018930403829755687,8.375347074311186e-05
-0.003695248334061827,0.0018913035355951258,8.469955672275454e-05
-0.004133460897441792,0.0018893463582872498,8.564471919622513e-05
-0.004566747644267288,0.0018871713061518224,8.65888486123349e-05
-0.004995053501287419,0.0018847808558654338,8.753183665283921e-05
-0.005418298329549542,0.0018821775179077246,8.847357624628251e-05
-0.005836376264273959,0.0018793638492592688,8.941396158807425e-05
-0.006249155639325895,0.001876342466283369,9.035288816695992e-05
-0.006656479492757931,0.001873116057500348,9.129025279790585e-05
-0.007058166638002476,0.0018696873959676578,9.222595366127285e-05
-0.007454013280186629,0.0018660593509881105,9.31598903480118e-05
-0.007843795151628946,0.0018622348988801567,9.409196391047886e-05
-0.008227270130078278,0.0018582171325597298,9.502207691833883e-05
-0.008604181287436513,0.0018540092697053511,9.595013351890511e-05
-0.008974260302171591,0.001849614659307949,9.687603950115843e-05
-0.009337231166578815,0.0018450367864407615,9.77997023625956e-05
-0.009692814137034945,0.001840279275114858,9.872103137798451e-05
-0.010040729905579533,0.0018353458891042043,9.963993766903928e-05
-0.010380703999998077,0.0018302405306278098,0.00010055633427397229
-0.010712471434720424,0.0018249672367691302,0.00010147013621582153
-0.011035781632672086,0.001819530173502282,0.00010238126056838938
-0.011350403619467948,0.001813933627189247,0.00010328962651856227
-0.0116561314566008,0.0018081819934202298,0.00010419515542371464
-0.011952789834243647,0.0018022797630975187,0.00010509777086284408
-0.01224023969848012,0.0017962315057143377,0.00010599739868004705
-0.012518383754063937,0.0017900418498512018,0.00010689396701893843
-0.0127871716675825,0.00178371546099579,0.00010778740634665018
-0.013046604798322084,0.0017772570168793139,0.00010867764946611895
-0.01329674030578977,0.001770671180603286,0.0001095646315154896
-0.013537694521243029,0.0017639625718965277,0.00011044828995361456
-0.013769645516352147,0.001757135736887129,0.00011132856453081047
-0.01399283484053563,0.001750195116797907,0.00011220539724423173
-0.01420756841925118,0.0017431450159829604,0.00011307873227742695
-0.014414216611439072,0.0017359895697252878,0.00011394851592385401
-0.014613213426345513,0.0017287327122158416,0.0001148146964943393
-0.014805054903902144,0.0017213781451332797,0.00011567722420867658
-0.014990296665667686,0.0017139293072408873,0.00011653605107177011
-0.015169550642651684,0.0017063893454138076,0.00011739113073493379
-0.015343480986728709,0.0016987610875064624,0.00011824241834316386
-0.015512799182422586,0.0016910470174641746,0.00011908987036940652
-0.015678258398475083,0.0016832492530689503,0.0001199334444370398
-0.015840647148981632,0.001675369526682086,0.00012077309913197756
-0.0160007823630941,0.0016674091693040672,0.0001216087938059741
-0.016159501983200254,0.0016593690982174935,0.0001224404883728545
-0.016317657222929497,0.0016512498084159612,0.00012326814309951287
-0.01647610462015107,0.001643051367955191,0.00012409171839360565
-0.016635698015758826,0.0016347734172962136,0.0001249111745899185
-0.016797280575015318,0.00162641517264852,0.00012572647173740467
-0.01696167694866314,0.0016179754332676004,0.0001265375693888837
-0.017129685653078028,0.0016094525926171651,0.0001273444263953549
-0.017302071735479128,0.0016008446532700259,0.0001281470007068267
-0.017479559778930964,0.0015921492453914233,0.00012894524918149206
-0.017662827289580282,0.0015833636486242955,0.00012973912740499598
-0.017852498498124033,0.0015744848171773695,0.0001305285895214464
-0.018049138607286703,0.0015655094079010169,0.00013131358807771598
-0.01825324853131681,0.001556433811116366,0.00013209407388247032
-0.01846526019734874,0.0015472541839341995,0.00013286999588123295
-0.018685532502131206,0.0015379664857593297,0.00013364130104865634
-0.018914348030016893,0.0015285665156262926,0.00013440793429900274
-0.01915191062888328,0.0015190499509615675,0.0001351698384156497
-0.019398343907851456,0.0015094123873273838,0.00013592695400022195
-0.019653690676666943,0.0014996493786812541,0.0001366792194417241
-0.01991791331008703,0.0014897564776845656,0.00013742657090581555
-0.02019089500096536,0.0014797292756068025,0.00013816894234413839
-0.020472441855064173,0.001469563441392795,0.0001389062655233883
-0.020762285762775817,0.001459254759488335,0.00013963847007360857
-0.021060087949794207,0.0014487991660601925,0.0001403654835549957
-0.021365443069019007,0.001438192783305489,0.00014108723154233712
-0.021677883669353425,0.001427431951620896,0.0001418036377260687
-0.021996884880551706,0.0014165132594834199,0.0001425146240288448
-0.022321869189801263,0.0014054335709658317,0.00014322011073645711
-0.02265221124328716,0.0013941900508575595,0.00014392001664191296
-0.022987242662545194,0.0013827801873811014,0.00014461425920147262
-0.02332625690042036,0.00137120181249036,0.0001453027547014405
-0.02366851416921433,0.0013594531197229512,0.00014598541843449382
-0.024013246464492266,0.0013475326795645245,0.0001466621648843157
-0.02435966269776518,0.0013354394522739602,0.00014733290791727532
-0.024706953948671284,0.001323172798112351,0.0001479975609798719
-0.025054298852150034,0.0013107324849121456,0.00014865603730062802
-0.025400869140795812,0.0012981186929139092,0.00014930825009508452
-0.025745835356694544,0.0012853320167895367,0.00014995411277251037
-0.026088372724529192,0.0012723734647692307,0.00015059353914290006
-0.02642766714168242,0.0012592444548026778,0.00015122644362279303
-0.026762921202587515,0.0012459468077166103,0.00015185274143842285
-0.027093360146333803,0.00123248273737938,0.00015247234882469684
-0.027418237605964846,0.0012188548379413054,0.000153085183218527
-0.02773684104578589,0.0012050660682783678,0.00015369116344508192
-0.028048496794199504,0.0011911197338183716,0.0001542902098956061
-0.028352574604217338,0.0011770194659687673,0.00015488224469555287
-0.02864849169264302,0.0011627691993945522,0.0001554671918618937
-0.02893571622042949,0.001148373147416284,0.0001560449774485964
-0.02921377018457003,0.0011338357758150343,0.00015661552967940424
-0.029482231700065854,0.0011191617753438753,0.00015717877906719395
-0.02974073666110004,0.0011043560332535838,0.0001577346585193433
-0.02998897978377651,0.0010894236041423648,0.0001582831034286923
-0.030226715047249726,0.0010743696804346081,0.00015882405174983652
-0.030453755565145946,0.0010591995627815091,0.00015935744406064055
-0.0306699729363686,0.0010439186306561304,0.00015988322360899996
-0.03087529614180608,0.0010285323133865868,0.00016040133634501064
-0.031069710064195226,0.0010130460618350866,0.00016091173093881606
-0.03125325370755181,0.0009974653208921498,0.00016141435878449788
-0.03142601818500043,0.0009817955029190117,0.00016190917399045067
-0.03158814453573852,0.000966041962238827,0.00016239613335674013
-0.031739821422144814,0.0009502099707493562,0.00016287519633998717
-0.03188128274238986,0.0009343046947082225,0.00016334632500635156
-0.032012805175673634,0.0009183311727287066,0.0001638094839732108
-0.032134705664369725,0.0009022942950186958,0.00016426464034014764
-0.03224733883185396,0.0008861987838946399,0.000164711763609876
-0.03235109433129049,0.0008700491756038537,0.00016515082559975062
-0.03244639411451792,0.0008538498034924017,0.0001655818003445247
-0.03253368960377044,0.0008376047825628296,0.0001660046639910385
-0.03261345874616316,0.0008213179954753462,0.00016641939468554806
-0.03268620293085945,0.0008049930800560905,0.00016682597245443092
-0.03275244374908045,0.0007886334183861056,0.00016722437907904148
-0.0328127195795625,0.0007722421275539449,0.0001676145979655265
-0.03286758199127751,0.0007558220521612348,0.00016799661401045528
-0.03291759197293508,0.0007393757586701817,0.00016837041346316314
-0.03296331602164944,0.0007229055316715356,0.00016873598378574857
-0.03300532214280493,0.000706413372130422,0.00016909331351169907
-0.03304417582041763,0.0006899009976396163,0.00016944239210414156
-0.03308043600995189,0.0006733698446820239,0.00016978320981472198
-0.03311465119123976,0.000656821072881726,0.00017011575754411292
-0.03314735550728777,0.000640255571207094,0.00017044002670513512
-0.033179065009433364,0.0006236739660779138,0.00017075600908945636
-0.0332102740299884,0.0006070766313180584,0.00017106369673880535
-0.033241451706692994,0.0005904636998838881,0.00017136308182160584
-0.03327303868432345,0.000573835077286134,0.00017165415651589834
-0.0333054440173194,0.0005571904566107232,0.00017193691289937255
-0.03333904229902999,0.0005405293350316359,0.00017221134284728314
-0.03337417104951173,0.0005238510316945004,0.00017247743793896467
-0.03341112839583672,0.0005071547068331633,0.0001727351893735966
-0.03345017106684573,0.0004904393819674926,0.00017298458789579676
-0.033491512699212425,0.0004737039610259781,0.00017322562373154514
-0.03353532242202518,0.0004569472522456687,0.00017345828653486306
-0.03358172365856599,0.0004401679907255209,0.00017368256534560587
-0.03363079306095099,0.00042336486154564165,0.00017389844855867365
-0.03368255948389099,0.0004065365234094312,0.00017410592390491243
-0.03373700291703694,0.0003896816328091992,0.0001743049784439671
-0.033794053331188276,0.0003727988687471429,0.00017449559856935618
-0.03385358944306702,0.00035588695805357904,0.00017467777002605635
-0.03391543745369776,0.00033894470132938783,0.0001748514779409021
-0.033979369854364436,0.0003219709995023723,0.00017501670686611003
-0.03404510441203996,0.0003049648809357712,0.00017517344083621956
