acceleration,velocity,displacement
-0.1532698859172532,0.0,0.0
-0.14934329377819702,-0.0001513065898477251,-7.565329492386256e-08
-0.14550264867200974,-0.0002987295610728285,-3.006713703841394e-07
-0.1418241084909,-0.0004423929396542834,-6.712326207476954e-07
-0.13836591140647442,-0.0005824879496029706,-1.1836730653763226e-06
-0.1351632108786114,-0.0007192525107455136,-1.8345432955505646e-06
-0.13222644566661113,-0.0008529473390181248,-2.6206432204323837e-06
-0.1295429378159334,-0.000983832030759397,-3.5390329053211447e-06
-0.12708087689255895,-0.001112143938113643,-4.587020889757664e-06
-0.1247948376734628,-0.001238081795396654,-5.762133756512813e-06
-0.12263210258644772,-0.0013617952655266092,-7.062072286974445e-06
-0.12053887571434602,-0.001483380754677006,-8.484660297076253e-06
-0.11846516424857173,-0.001602882774658465,-1.0027792061743988e-05
-0.11636726306064718,-0.0017202989883130743,-1.1689382943229757e-05
-0.11420755745426223,-0.001835586398570529,-1.3467325636671558e-05
-0.11195225412820593,-0.001948666304361763,-1.5359451988137703e-05
-0.1095681926659906,-0.0020594265277588614,-1.7363498404198016e-05
-0.10702009266459692,-0.002167720670424155,-1.9477072003289524e-05
-0.10426956443183082,-0.002273365498972369,-2.1697615087987785e-05
-0.10127677267810055,-0.0023761386675273345,-2.4022367171237636e-05
-0.09800469624010631,-0.002475779401986438,-2.6448326205994523e-05
-0.0944249127115026,-0.0025719942064622425,-2.8972213010218862e-05
-0.09052336693179178,-0.0026644683462838897,-3.1590444286591926e-05
-0.08630478163721281,-0.002752882420568392,-3.429911967001807e-05
-0.08179489392223646,-0.0028369322583481167,-3.709402700947632e-05
-0.07704028951883111,-0.0029163498500686504,-3.9970668063684707e-05
-0.07210621560780825,-0.00299092310263197,-4.292430454003502e-05
-0.0670731230594895,-0.003060512771965619,-4.5950022477333815e-05
-0.06203237257584185,-0.0031250655197832848,-4.9042811623208266e-05
-0.057080698867110154,-0.0031846220555047607,-5.219765541085229e-05
-0.052312605723617414,-0.0032393187078001246,-5.540962579250473e-05
-0.047810516420920365,-0.0032893802688723937,-5.867397528084099e-05
-0.04363379949702332,-0.0033351024268313653,-6.198621662869287e-05
-0.03980880321419185,-0.003376823728186973,-6.534217970620204e-05
-0.03632234342463316,-0.0034148893015063858,-6.873803622104872e-05
-0.03312084870983378,-0.0034496108975736193,-7.217028632058872e-05
-0.03011660838043365,-0.003481229626118753,-7.563570658243491e-05
-0.02720107244911877,-0.0035098884665335293,-7.913126562876105e-05
-0.02426310493851119,-0.0035356205552273443,-8.265402013964149e-05
-0.02120840068021682,-0.0035583563080367085,-8.620100857127352e-05
-0.017975870687170034,-0.003577948443720402,-8.976916094715208e-05
-0.01454774644900733,-0.003594210252288491,-9.335524029515652e-05
-0.010951716020194345,-0.003606959983523092,-9.695582541306232e-05
-0.007254919179600458,-0.003616063301122989,-0.00010056733705538535
-0.003550941261742874,-0.0036214662313436606,-0.00010418610182161868
5.7913564696133366e-05,-0.0036232127451921842,-0.0001078084413098866
0.003479929705096883,-0.0036214438235572877,-0.00011143076959426135
0.006651371623545271,-0.003616378172892967,-0.00011504968059248648
0.009548782020784078,-0.0036082780960708023,-0.00011866200872696836
0.012194017277842013,-0.003597406696421489,-0.00012226485112321452
0.014651369937358312,-0.003583984002813889,-0.0001258555464728322
0.017017761086989044,-0.0035681494373017153,-0.00012943161319289
0.019408160079971454,-0.0035499364767182353,-0.00013299065614989997
0.02193876699291256,-0.0035292630131817933,-0.00013653025589484998
0.024710333405213794,-0.00350593846298273,-0.00014004785663293226
0.027793759177773488,-0.0034796864166912363,-0.00014354066907276925
0.03121982926771231,-0.0034501796224684932,-0.00014700560209234912
0.03497440358153309,-0.0034170825060438705,-0.00015043923315660528
0.038999564276274365,-0.0033800955221149668,-0.0001538378221706847
0.04320045492450951,-0.003338995512514575,-0.00015719736768799947
0.04745690675455336,-0.0032936668316750437,-0.00016051369886009427
0.051638240890985405,-0.0032441192578522744,-0.00016378259190485793
0.05561892039470574,-0.003190490677209429,-0.00016699989687238878
0.05929250513408818,-0.003133034964445032,-0.00017016165969321601
0.06258193442148528,-0.003072097744667245,-0.00017326422604777215
0.06544521083429318,-0.003008084172039356,-0.00017630431700612544
0.06787660148890746,-0.002941423265877756,-0.00017927907072508398
0.06990422936566248,-0.002872532850450471,-0.0001821860487832481
0.0715851709529733,-0.002801788150291153,-0.0001850232092836189
0.07299881147833436,-0.0027294961590754994,-0.00018778885143830223
0.07423859591461636,-0.002655877455379024,-0.0001904815382455295
0.0754020911733423,-0.0025810571118350446,-0.00019310000552913653
0.07657974005811802,-0.0025050661962193145,-0.00019564306718316372
0.07784351578240303,-0.0024278545682990538,-0.0001981095275654229
0.07923727490725385,-0.0023493141729542255,-0.00020049811193604953
0.0807706051232646,-0.0022693102329389664,-0.00020280742413899614
0.08241742088928722,-0.0021877162199326903,-0.00020503593736543197
0.08411969699087628,-0.0021044476609926085,-0.00020718201930589462
0.08579578390009505,-0.0020194899205471227,-0.00020924398809666448
0.08735198060196692,-0.0019329160382960916,-0.00021122019107608608
0.08869565049443803,-0.001844892222747889,-0.00021310909520660807
0.08974811081276338,-0.0017556703420942884,-0.00021490937648902916
0.09045559312435512,-0.0016655684901257291,-0.00021661999590513918
0.09079671940693987,-0.0015749423338600817,-0.0002182402513171321
0.0907853738715507,-0.0014841512872208365,-0.00021976979812767254
0.09046873329107409,-0.0013935242336395241,-0.00022120863588810273
0.08992138444752877,-0.0013033291747702226,-0.0002225570625923076
0.08923733282382479,-0.0012137498161345459,-0.00022381560208775998
0.08852160752612105,-0.0011248703459595729,-0.00022498491216880703
0.08788208430911097,-0.0010366685000419568,-0.0002260656815918078
0.08742102681824603,-0.0009490169444782783,-0.00022705852431406792
0.08722570398795523,-0.0008616935790751776,-0.00022796387957584464
0.0873584502985518,-0.0007744015019319242,-0.0002287819271163482
0.08784800654530432,-0.0006867982735099961,-0.00022951252700406915
0.08868485760086092,-0.0005985318414369134,-0.0002301551920615426
0.08982280639035782,-0.000509278009441304,-0.0002307090969869817
0.09118730690551684,-0.0004187729527933667,-0.00023117312246809905
0.0926890258421899,-0.0003268347864195133,-0.00023154592633770548
0.09423965714271977,-0.00023337044492705846,-0.00023182602895337876
0.09576660711253845,-0.00013836731279942934,-0.000232011897832242
0.09722372450154487,-4.187214699238767e-05,-0.0002321020175621379
0.09859644641718922,5.6037938466979386e-05,-0.0002320949346664006
0.09990116824410497,0.00015528674579762649,-0.0002319892723242683
0.10117990380132265,0.0002558272818203403,-0.0002317837153104593
0.10249200212928514,0.0003576632347856442,-0.00023147697005215632
0.1039046705438745,0.000460861571122224,-0.0002310677076492024
0.10548354596550001,0.0005655556793769113,-0.00023055449902395283
0.10728398380198179,0.0006719394442606522,-0.00022993575146213404
0.1093433492400805,0.0007802531107816834,-0.00022920965518461288
0.11167446368330088,0.0008907620172433741,-0.00022837414762060036
0.11426051290408559,0.0010037295055370674,-0.00022742690185921014
0.11705206021285983,0.00111938579209554,-0.00022636534421039385
0.11996699300220562,0.0012378953187030728,-0.00022518670365499454
0.12289396420836352,0.0013593257973083573,-0.00022388809309698883
0.1256992665305419,0.00148362241267781,-0.00022246661899199573
0.12823650207062035,0.0016105902969783912,-0.00022091951263716764
0.13035807580146894,0.0017398875859144357,-0.00021924427369572123
0.1319272781324275,0.0018710302628813839,-0.00021743881477132333
0.1328294919771361,0.0020034086479361656,-0.00021550159531591456
0.13298116789423303,0.0021363139778718503,-0.00021343173400301056
0.13233581484681203,0.002268972469242373,-0.00021122909077945346
0.1308870028304019,0.00240058387808098,-0.00020889431260579178
0.12866873460007264,0.002530361746796217,-0.0002064288397933532
0.1257533685027555,0.002657572798347631,-0.00020383487252078128
0.12224695715344598,0.002781572961175732,-0.0002011152996410196
0.11828193176712035,0.0029018374056360152,-0.00019827359445761373
0.11400758887313993,0.0030179821659561453,-0.00019531368467181763
0.1095793925860867,0.0031297756566857587,-0.00019223980576049668
0.10514827051189385,0.003237139488234749,-0.00018905634818803643
0.10085086547454503,0.0033401390562279687,-0.00018576770891580506
0.09680142853642351,0.003438965203233453,-0.00018237815678607435
0.09308591284095322,0.0035339088739221414,-0.00017889171974749655
0.08975872048197264,0.0036253311905836043,-0.0001753120997152437
0.08684225104938084,0.003713631676349281,-0.00017164261828177724
0.08432900974474467,0.0037992173067463437,-0.00016788619379022943
0.08218584975509503,0.0038824747364962636,-0.00016404534776860813
0.08035996725613324,0.0039637476450018775,-0.00016012223657785906
0.0787862716952149,0.004043320764477552,-0.00015611870237311934
0.07739555813402337,0.004121411679392171,-0.00015203633615118448
0.07612265551440489,0.004198170786216386,-0.00014787654491838019
0.07491366473487449,0.004273688946341025,-0.00014364061505210148
0.07373158341496787,0.004348011570415946,-0.000139329764793723
0.07255988228951452,0.004421157303268187,-0.00013494518035688094
0.0714038230141714,0.00449313915592003,-0.00013048803212728684
0.07028943263504842,0.00456398578374464,-0.0001259594696574545
0.06926002371035482,0.004633760511917342,-0.00012136059650962352
0.06837009322819497,0.004702575570386617,-0.00011669242846847155
0.0676766666679458,0.004770598950334688,-0.0001119558412081109
0.06722876130410452,0.0048380516643207125,-0.0001071515159007832
0.06705630926589295,0.004905194199605711,-0.00010227989296881998
0.06716031669727052,0.0049723025125872925,-9.734114461272348e-05
0.06750620142212231,0.005039635771646989,-9.233517547060634e-05
0.06802205630386558,0.005107399900509983,-8.726165763452785e-05
0.0686028060569455,0.0051757123316903885,-8.212010151842766e-05
0.06911994634869631,0.005244573707893209,-7.690995849863587e-05
0.06943536428731459,0.005313851363211214,-7.163074596308365e-05
0.0694172006778911,0.005383277645693817,-6.628218145863113e-05
0.0689557662791167,0.00545246412917232,-6.0864310571198064e-05
0.06797764675371466,0.0055209308356887355,-5.5377613088767534e-05
0.06645608488820816,0.005588147701509697,-4.9823073820168315e-05
0.06441591710149108,0.005653583702504546,-4.4202208118161195e-05
0.06193222633531389,0.005716757774222948,-3.851703737979745e-05
0.05912319219002387,0.005777285483485617,-3.2770015750943166e-05
0.05613860013918685,0.005834916379650223,-2.6963914819375247e-05
0.05314573360552181,0.005889558546522577,-2.1101677356288846e-05
0.050314157985379214,0.005941288492318027,-1.5186253836868544e-05
0.047800609467246576,0.00599034587604434,-9.22043665268736e-06
0.045735106512862944,0.006037113734034394,-3.206706847647993e-06
0.044209584879988016,0.00608208607973082,2.8528930592346143e-06
0.04327048743138519,0.006125826115886506,8.956849157043277e-06
0.04291635556147558,0.006168919537382937,1.5104221983677999e-05
0.043100661922194985,0.006211928046124772,2.1294645775431854e-05
0.043739437074772756,0.006255348095623256,2.7528283846305867e-05
0.044722866882010645,0.006299579247601647,3.380574751791832e-05
0.04592971714870117,0.006344905539617003,4.0127989911527644e-05
0.04724302498700021,0.006391491910684853,4.6496188636678574e-05
0.048565076825268234,0.006439395961590987,5.29116325728165e-05
0.04982947037678919,0.006488593235192016,5.9375627171208e-05
0.05100828947964594,0.006539012115120234,6.588942984636413e-05
0.05211322943863309,0.006590572874579374,7.245422234121393e-05
0.053190651850477395,0.006643224815223929,7.907112118611559e-05
0.05431151478188806,0.006696975898540111,8.574122154299762e-05
0.05555760876295938,0.006751910460312535,9.246566472242394e-05
0.057005747495986664,0.006808192138442008,9.924571602180122e-05
0.05871187108713319,0.006866050947733568,0.000106082837564889
0.060697326722059686,0.006925755546638165,0.00011297874081207487
0.0629395482857664,0.006987573984142078,0.00011993540557746499
0.06536890689601389,0.007051728211732968,0.0001269550566754025
0.06787277219124657,0.007118349051276599,0.0001340400953069073
0.07030671384145476,0.007187438794292949,0.00014119298922969206
0.07251124342507724,0.007258847772926215,0.00014841613251330164
0.07433111354965055,0.007332268951413578,0.00015571169087547152
0.07563378446534262,0.007407251400421075,0.00016308145105138884
0.07632434116072401,0.007483230463234109,0.00017052669198321644
0.07635516531742739,0.007559570216473185,0.0001780480923230701
0.0757294895766864,0.007635612543920241,0.00018564568370326681
0.07449875572016594,0.007710726666568668,0.00019331885330851127
0.07275469793712719,0.007784353393397315,0.00020106639333849428
0.07061797194851366,0.007856039728340135,0.000208886589899363
0.06822543087198252,0.007925461429750383,0.00021677734047840827
0.06571771478440021,0.007992433002578575,0.00022473628769457277
0.06322807001646852,0.008056905894979009,0.00023276095714335157
0.06087264063184285,0.008118956250303165,0.00024084888821599267
0.05874200654254555,0.00817876357389036,0.0002489977481280894
0.05689358777194154,0.008236581371047602,0.0002572054206005584
0.05534488824232896,0.008292700609054737,0.00026547006159060953
0.0540684241824128,0.008347407265267108,0.00027379011552777045
0.052990176881970864,0.0084009365657993,0.00028216428744330365
0.051993825855030214,0.0084534285671678,0.0002905914700097872
0.05093226719473053,0.00850489161369268,0.00029907063010021747
0.04964605440016016,0.008555180774490126,0.0003076006662943089
0.04798622245501577,0.008603996912917713,0.0003161802551380128
0.04583748532730899,0.008650908766808876,0.0003248077079778761
0.043137557721475685,0.008695396288333268,0.0003334808605054472
0.03988923061360344,0.008736909682500807,0.00034219701349086427
0.03616339559854955,0.008774935995606883,0.00035095293632991814
0.03209294372275059,0.008809064165267532,0.00035974493641035535
0.027858859583657875,0.008839040066920737,0.0003685689885264495
0.02367064812242037,0.008864804820773776,0.00037742091097029676
0.019743608001548212,0.00888651194883576,0.00038629656935510153
0.016275657368530913,0.008904521581520799,0.0003951920861202798
0.013426438433433469,0.00891937262942178,0.0004041040332257511
0.011301057791655165,0.008931736377534324,0.00041302958772922914
0.00993997408359294,0.008942356893471948,0.00042196663436473226
0.009315532309988587,0.008951984646668739,0.0004309138051348026
0.009334946876984818,0.008961309886262226,0.00043987045240126806
0.009849278485253478,0.008970901998943345,0.00044883655834387085
0.01066775338042693,0.008981160514876185,0.0004578125896007806
0.011576252818746106,0.008992282517975772,0.0004667993111172066
0.012358051555362192,0.009004249670162827,0.00047579757721127587
0.012814368947846823,0.009016835880414431,0.0004848081199865645
0.012782393067212098,0.00902963426142196,0.0004938313550574827
0.012149118019393194,0.009042100016965263,0.0005028672221966763
0.010860141757094753,0.009053604646853508,0.0005119150745285856
0.00892300221591168,0.009063496218840011,0.0005209736249614324
0.006404656906596031,0.009071160048401266,0.000530040953095053
0.0034228208381006852,0.009076073787273615,0.0005391145700128904
0.00013155107380563764,0.009077850973229568,0.000548191532393142
-0.003297317143884447,0.009076268090194529,0.000557268591924854
-0.006694097914702166,0.009071272382665236,0.000566342362161284
-0.00990927567377358,0.009062970695870998,0.0005754094837005521
-0.01282675683007854,0.009051602679619072,0.0005844667703882972
-0.015370617020104015,0.00903750399269398,0.0005935113237244537
-0.01750523055484292,0.009021066068906507,0.0006025406087552539
-0.01923032849707184,0.009002698289380549,0.0006115524909343974
-0.020573450578241687,0.008982796399842893,0.0006205452382790092
-0.021581948567356856,0.008961718700270094,0.0006295174958290656
-0.02231552599732001,0.008939769962987756,0.0006384682401606946
-0.02283918610473302,0.00891719260693673,0.0006473967214456569
-0.023216153771552818,0.008894164936998586,0.0006563024002176245
-0.023500847703873073,0.008870806436260873,0.0006651848859042542
-0.023732643998507406,0.008847189690409683,0.0006740438839675895
-0.023931393531631866,0.008823357671644614,0.0006828791576486167
-0.024095416417855304,0.00879934426666987,0.0006916905086177739
-0.02420224429579575,0.008775195436313046,0.0007004777784692653
-0.024211876130764518,0.008750988376099765,0.0007092408703754718
-0.024071954234761057,0.008726846460917002,0.0007179797877939801
-0.023724233432086007,0.008702948367083579,0.0007266946852079804
-0.02311189629597852,0.008679530302219548,0.000735385924542632
-0.0221873832949391,0.008656880662424088,0.0007440541300249538
-0.0209203159036784,0.00863532681282478,0.0007527002337625782
-0.019304836825156088,0.008615214236460363,0.0007613255042872208
-0.01736542941165921,0.008596879103341955,0.0007699315509571219
-0.015160159445129677,0.00858061630891356,0.0007785202986632496
-0.01278037655451064,0.00856664604091374,0.0007870939298381633
-0.010346292880186604,0.008555082706196392,0.0007956547942117183
-0.007998544541888735,0.008545910287485354,0.0008042052907085592
-0.005886569883827805,0.008538967730272495,0.0008127477297174381
-0.004155044946258055,0.008533946922857453,0.000821284187044003
-0.0029297313209583685,0.008530404534723843,0.0008298163627727937
-0.002304230836993961,0.008527787553644868,0.0008383454588169781
-0.0023293765278133254,0.008525470749962464,0.0008468720879687818
-0.003007061160187603,0.008522802531118463,0.0008553962246093223
-0.0042899275973531424,0.008519154036739692,0.0008639172028932513
-0.00608742065686315,0.008513965362612584,0.0008724337625929274
-0.008277425932747346,0.008506782939317779,0.0008809441367438926
-0.010721539102679449,0.008497283456800066,0.0008894461699419516
-0.013281317858670112,0.00848528202831939,0.0008979374526845113
-0.015832818240690768,0.00847072496026971,0.0009064154561788058
-0.01827723503468465,0.008453669933632023,0.0009148776536257567
-0.020546370947383884,0.00843425813064099,0.0009233216176578932
-0.022602800609862184,0.008412683544862366,0.0009317450884956449
-0.02443579582974546,0.008389164246642562,0.0009401460123913974
-0.026054920904850884,0.008363918888275264,0.0009485225539588563
-0.02748324352633115,0.008337149806059672,0.0009568730883060237
-0.028751409602937542,0.008309032479495038,0.0009651961794488011
-0.02989300616961849,0.00827971027160876,0.000973490550824353
-0.03094119378263003,0.008249293171632636,0.0009817550525459736
-0.03192649906370589,0.008217859325209468,0.0009899886287943946
-0.03287559426743803,0.008185458278543896,0.0009981902875962714
-0.033810733952900095,0.008152115114433726,0.0010063590742927602
-0.03474946122258298,0.008117835016845985,0.0010144940493584
-0.03570438811066014,0.008082608092179363,0.0010225942709129127
-0.03668313134502062,0.008046414332451523,0.0010306587821252281
-0.03768857834769113,0.008009228477605167,0.0010386866035302564
-0.03871956358229443,0.007971024406640175,0.001046676729972379
-0.039771941984386924,0.007931778653856834,0.0010546281315026275
-0.040840018720823865,0.007891472673504228,0.001062539757166308
-0.04191824265899364,0.00785009354281432,0.0010704105402744675
-0.043002925090147893,0.00780763295893975,0.0010782394035253446
-0.04409356013018069,0.007764084716329585,0.0010860252623629792
-0.045193286776815576,0.007719441292876087,0.001093767025367582
-0.04630827390854559,0.007673690512533406,0.0011014635912702866
-0.04744618883777838,0.007626813281160244,0.0011091138431671334
-0.04861418872849063,0.00757878309237711,0.001116716641353902
-0.04981698824362487,0.007529567503891052,0.001124270816652036
-0.051055540510619335,0.00747913123951393,0.0011317751660237386
