frame_number,force
0,690.0285030005236
1,689.9841445926464
2,689.940357276805
3,689.8976921871653
4,689.8566616188605
5,689.8177221735408
6,689.7812606608776
7,689.7475832024129
8,689.7169076972946
9,689.6893596071666
10,689.6649709307328
11,689.643682203502
12,689.6253473127911
13,689.6097408861655
14,689.596568056148
15,689.585476527393
16,689.5760709822305
17,689.5679298314672
18,689.5606240979281
19,689.5537378725662
20,689.5468894210215
21,689.5397517445568
22,689.5320712785862
23,689.5236834440586
24,689.5145239057248
25,689.504634625597
26,689.4941641545737
27,689.4833620634029
28,689.4725679097447
29,689.4621955955158
30,689.4527143014697
31,689.4446273159896
32,689.4384500029672
33,689.4346879813197
34,689.43381644768
35,689.4362615222034
36,689.4423844755788
37,689.4524695934931
38,689.4667162103708
39,689.4852351379255
40,689.5080493629349
41,689.5350985151865
42,689.5662462965989
43,689.6012899321508
44,689.6399707660329
45,689.6819852862275
46,689.7269960291896
47,689.7746419710205
48,689.8245481731979
49,689.8763346389418
50,689.9296245033353
51,689.9840517134095
52,690.0392682051157
53,690.0949503514342
54,690.150804290136
55,690.2065697151709
56,690.2620218165633
57,690.3169712351316
58,690.3712621265347
59,690.4247686546304
60,690.4773903643484
61,690.5290468540511
62,690.5796720241574
63,690.629208030063
64,690.6775989695427
65,690.7247842984805
66,690.7706920237885
67,690.8152318914435
68,690.8582890144646
69,690.8997185477126
70,690.9393420139792
71,690.9769457259287
72,691.0122815457686
73,691.0450700813411
74,691.0750063163574
75,691.1017675559785
76,691.1250234651452
77,691.1444479393263
78,691.1597325316301
79,691.1706010656533
80,691.1768248514468
81,691.1782376517003
82,691.1747493328907
83,691.1663570897337
84,691.1531532944882
85,691.1353293614739
86,691.1131754411554
87,691.0870761576726
88,691.0575029012703
89,691.0250033558726
90,690.9901889601766
91,690.9537208473463
92,690.9162945568528
93,690.87862363815
94,690.8414222844174
95,690.8053872878837
96,690.7711797616448
97,690.7394071576582
98,690.7106061500225
99,690.6852270074617
100,690.6636201804229
101,690.6460259190759
102,690.6325676984228
103,690.6232500030136
104,690.6179606892431
105,690.616477794407
106,690.6184803430804
107,690.6235624474584
108,690.6312498459758
109,690.6410179544246
110,690.6523104524783
111,690.6645573961177
112,690.6771919333075
113,690.6896649803276
114,690.7014576048693
115,690.7120911765469
116,690.7211354789362
117,690.7282149572513
118,690.7330131917488
119,690.7352756268338
120,690.7348106061855
121,690.7314888643255
122,690.7252417598182
123,690.7160586534089
124,690.7039838766829
125,690.6891136343145
126,690.6715929361208
127,690.6516124041711
128,690.6294047310663
129,690.6052407215573
130,690.5794250795997
131,690.5522922149482
132,690.5242022804981
133,690.4955374930927
134,690.4666986318521
135,690.4381014871147
136,690.4101729405706
137,690.3833462847008
138,690.3580553749924
139,690.3347273265167
140,690.3137737581064
141,690.2955809927662
142,690.2804999845845
143,690.268836888604
144,690.2608450633187
145,690.2567190171467
146,690.2565905631409
147,690.2605272737699
148,690.2685331332156
149,690.2805510458118
150,690.2964667095276
151,690.3161133998923
152,690.3392773559814
153,690.3657035973093
154,690.3951020940704
155,690.4271542531828
156,690.4615196479257
157,690.4978428332398
158,690.5357600201905
159,690.5749053911557
160,690.6149169179693
161,690.6554416066259
162,690.6961400504183
163,690.7366900812215
164,690.7767893118495
165,690.8161565341335
166,690.8545321938284
167,690.8916783371044
168,690.92737842335
169,690.961437286126
170,690.9936814037831
171,691.0239595453886
172,691.052143780446
173,691.0781308042173
174,691.1018435491688
175,691.1232330945589
176,691.1422808994466
177,691.159001332063
178,691.1734443378398
179,691.1856979138695
180,691.1958899097222
181,691.2041886012847
182,691.2108015017501
183,691.2159720099953
184,691.219973773332
185,691.2231029964316
186,691.2256692116977
187,691.2279851371865
188,691.2303562481638
189,691.2330707059164
190,691.2363903247885
191,691.2405432007297
192,691.2457184355546
193,691.2520631733735
194,691.2596820058282
195,691.2686386725373
196,691.2789598241687
197,691.2906404312739
198,691.3036502602021
199,691.3179407358182
200,691.3334514759093
201,691.3501158089482
202,691.3678646874545
203,691.3866285994081
204,691.4063373421949
205,691.4269178051255
206,691.4482901422073
207,691.4703628528977
208,691.4930273341477
209,691.516152502255
210,691.5395801469257
211,691.5631216728149
212,691.5865566666307
213,691.6096333206558
214,691.6320703579553
215,691.6535599526252
216,691.6737712406592
217,691.6923542253649
218,691.7089440578369
219,691.7231657981025
220,691.734639884026
221,691.7429886581559
222,691.7478443387752
223,691.7488586501019
224,691.7457139322152
225,691.738135086262
226,691.725901385527
227,691.7088570940426
228,691.6869199240115
229,691.6600865419942
230,691.6284345811869
231,691.5921209355982
232,691.5513764512355
233,691.5064974214879
234,691.4578345274435
235,691.4057800739361
236,691.3507545564341
237,691.293193666457
238,691.2335367169131
239,691.1722171806196
240,691.1096557131145
241,691.0462557372379
242,690.9824013763711
243,690.9184572528193
244,690.854769506921
245,690.7916673772584
246,690.7294647448741
247,690.6684611133296
248,690.6089415781784
249,690.5511754915814
250,690.4954137835391
251,690.4418852106757
252,690.3907920444575
253,690.3423057715601
254,690.2965632516509
255,690.2536635815851
256,690.2136657920745
257,690.1765874597601
258,690.142404235963
259,690.1110501424316
260,690.0824184130267
261,690.0563627879316
262,690.0326993985291
263,690.0112095375518
264,689.9916436363337
265,689.9737267186007
266,689.9571654726714
267,689.9416568230537
268,689.9268975119866
269,689.9125939083034
270,689.8984712405482
271,689.8842816946697
272,689.86981112713
273,689.8548843405202
274,689.839368915901
275,689.8231775683938
276,689.8062689733051
277,689.7886470424097
278,689.7703587124953
279,689.7514903968644
280,689.732163300968
281,689.7125278355584
282,689.692757422989
283,689.6730420497128
284,689.6535818755376
285,689.6345810681546
286,689.6162419087541
287,689.598759194919
288,689.5823150110932
289,689.5670739631762
290,689.5531789675493
291,689.5407477000572
292,689.529869889197
293,689.520605743074
294,689.5129858171568
295,689.5070124762236
296,689.5026628520985
297,689.4998930109776
298,689.498642976897
299,689.4988422288205
300,689.5004152223597
301,689.5032864194625
302,689.5073843401575
303,689.5126443156877
304,689.5190098479426
305,689.5264326604414
306,689.5348716123689
307,689.5442906578065
308,689.5546560015192
309,689.5659325446267
310,689.5780796588399
311,689.5910463409385
312,689.6047659102428
313,689.6191505865286
314,689.6340864690645
315,689.6494295641429
316,689.6650034986352
317,689.6805993819622
318,689.6959780132908
319,689.7108743793865
320,689.7250041908738
321,689.7380720668634
322,689.7497809418057
323,689.7598423574926
324,689.7679874304289
325,689.7739783088281
326,689.7776198108369
327,689.7787707697698
328,689.7773545354825
329,689.7733680996467
330,689.7668893190342
331,689.7580816630654
332,689.7471959071911
333,689.734568337645
334,689.7206153209999
335,689.7058244182199
336,689.6907424527434
337,689.6759610090824
338,689.6620997986724
339,689.6497882935049
340,689.6396460611218
341,689.6322623503842
342,689.62817566184
343,689.6278542233999
344,689.6316783589976
345,689.6399255949764
346,689.652759026199
347,689.6702190889927
348,689.6922186092484
349,689.7185409136334
350,689.748840904122
351,689.7826491890745
352,689.8193795152989
353,689.8583397909106
354,689.8987469009062
355,689.9397452826906
356,689.9804288893869
357,690.0198658418769
358,690.057124861243
359,690.091302479672
360,690.1215499809141
361,690.1470990027572
362,690.167284801343
363,690.1815663622236
364,690.1895427733301
365,690.1909654384407
366,690.1857457691694
367,690.1739580089582
368,690.1558369190103
369,690.1317702763121
370,690.1022864830876
371,690.0680379450233
372,690.0297811208621
373,689.9883542383709
374,689.9446536292564
375,689.8996094988058
376,689.8541617748484
377,689.8092365382028
378,689.7657234610435
379,689.724454677276
380,689.6861855647991
381,689.6515779850805
382,689.6211865230879
383,689.5954481705934
384,689.5746757588545
385,689.559055334248
386,689.5486475570865
387,689.5433930051757
388,689.5431209352365
389,689.5475606769674
390,689.556354574884
391,689.5690713578969
392,689.5852189736322
393,689.6042561861644
394,689.625602542215
395,689.6486466265933
396,689.672752829539
397,689.6972671100209
398,689.7215223857215
399,689.7448441286249
400,689.7665565427668
401,689.7859895359509
402,689.8024866809345
403,689.8154143988818
404,689.8241725501488
405,689.8282064686916
406,689.8270202756369
407,689.8201910886804
408,689.807383560473
409,689.7883640853609
410,689.7630139675946
411,689.7313407465587
412,689.6934867351209
413,689.6497337874813
414,689.6005034862172
415,689.546352296508
416,689.4879616665257
417,689.4261234657969
418,689.3617214926193
419,689.2957099957734
420,689.2290902235095
421,689.162885974283
422,689.0981190319139
423,689.035785243839
424,688.976831869386
425,688.9221367302572
426,688.8724896386459
427,688.8285764916152
428,688.79096625803
429,688.7601009063934
430,688.7362882435303
431,688.719697701686
432,688.7103592412143
433,688.7081655899651
434,688.7128779677577
435,688.7241352956763
436,688.7414667115077
437,688.7643070181025
438,688.792014518982
439,688.8238906025141
440,688.8592004317868
441,688.8971941131505
442,688.9371276614719
443,688.9782829483016
444,689.0199857275841
445,689.0616209108498
446,689.1026444991281
447,689.1425918346715
448,689.1810820211731
449,689.2178185296824
450,689.2525862494626
451,689.2852455352994
452,689.3157240119152
453,689.3440069111728
454,689.370126543665
455,689.3941512473434
456,689.4161739475873
457,689.4363004107884
458,689.4546373999898
459,689.4712811702219
460,689.4863069595106
461,689.4997602707618
462,689.5116507783905
463,689.52194961073
464,689.5305905317397
465,689.5374751854727
466,689.5424821426545
467,689.5454790944996
468,689.5463372387853
469,689.5449467224373
470,689.5412319585229
471,689.5351657196884
472,689.5267810668738
473,689.5161803168116
474,689.503540358722
475,689.4891137622088
476,689.4732253433446
477,689.456264167971
478,689.4386713190536
479,689.4209241172402
480,689.4035178638288
481,689.3869465247036
482,689.3716839627638
483,689.3581672310573
484,689.3467830696922
485,689.3378582661626
486,689.331654112295
487,689.3283648736024
488,689.3281199365922
489,689.3309890810116
490,689.3369901374975
491,689.3460981582272
492,689.3582551782231
493,689.3733796814588
494,689.3913749905738
495,689.4121359852096
496,689.435553842259
497,689.461518825802
498,689.4899214298686
499,689.520652337493
500,689.5536017038826
501,689.5886582094954
502,689.6257081909761
503,689.6646350066397
504,689.7053186832294
505,689.747635840172
506,689.7914598924388
507,689.8366615664313
508,689.8831097603672
509,689.9306726949686
510,689.9792191816582
511,690.0286197929183
512,690.0787478066143
513,690.1294799510118
514,690.1806970638638
515,690.2322847083738
516,690.2841336207439
517,690.3361397614414
518,690.3882038043396
519,690.4402300568893
520,690.4921249146597
521,690.5437949565644
522,690.5951447397633
523,690.6460743204174
524,690.6964765211725
525,690.746233988327
526,690.7952161526733
527,690.8432763386082
528,690.8902493994398
529,690.9359502974163
530,690.9801739809582
531,691.0226968394251
532,691.0632800033135
533,691.1016747034982
534,691.1376296438771
535,691.1708998919806
536,691.2012563973185
537,691.22849515381
538,691.2524452427691
539,691.2729753338871
540,691.289998484919
541,691.30347519838
542,691.3134147301445
543,691.3198747063101
544,691.3229592394482
545,691.322815902669
546,691.3196320239052
547,691.3136307323999
548,691.3050670500743
549,691.2942241698175
550,691.2814099776883
551,691.2669538591714
552,691.2512038256538
553,691.2345239538054
554,691.2172920522409
555,691.1998973968155
556,691.1827383061589
557,691.1662192099733
558,691.1507467063389
559,691.1367240651491
560,691.1245438745883
561,691.1145790188375
562,691.1071727160838
563,691.1026287255047
564,691.1012029168911
565,691.1030971400397
566,691.108455810576
567,691.1173650643228
568,691.1298539757427
569,691.1458972905642
570,691.1654192876179
571,691.1882985852629
572,691.2143738338636
573,691.2434502561832
574,691.2753069133537
575,691.3097044027907
576,691.3463924800495
577,691.3851169127645
578,691.4256248016126
579,691.4676676902102
580,691.5110020305092
581,691.5553869142731
582,691.6005793381803
583,691.6463275927345
584,691.692363655855
585,691.738395692466
586,691.7841018048177
587,691.829125992832
588,691.8730769600842
589,691.9155300853363
590,691.9560326489983
591,691.9941122547505
592,692.0292882820404
593,692.0610860948988
594,692.0890535749642
595,692.1127793467836
596,692.1319118550886
597,692.146178252107
598,692.1554018836168
599,692.1595171022002
600,692.1585802390521
601,692.152775796638
602,692.1424172397765
603,692.1279421624205
604,692.1099020483509
605,692.0889472192904
606,692.0658078165895
607,692.0412718353078
608,692.0161613808834
609,691.9913084297483
610,691.9675313552244
611,691.9456132693883
612,691.9262828793437
613,691.9101981716343
614,691.8979329077765
615,691.889965689433
616,691.8866712596154
617,691.8883137344242
618,691.8950415729083
619,691.9068842555901
620,691.9237508021921
621,691.9454303381257
622,691.9715948831623
623,692.0018044464604
624,692.0355144543815
625,692.0720855287693
626,692.1107956387948
627,692.1508546161749
628,692.1914208971522
629,692.2316201474893
630,692.2705652404027
631,692.3073769636062
632,692.3412047968973
633,692.3712470796324
634,692.3967698977837
635,692.4171240961235
636,692.4317599448652
637,692.44023912215
638,692.4422438066389
639,692.4375827977472
640,692.4261946318475
641,692.4081476097908
642,692.3836365858418
643,692.3529764040628
644,692.316591987829
645,692.2750051878718
646,692.2288185596638
647,692.1786963811912
648,692.1253435170804
649,692.0694831147937
650,692.0118343944501
651,691.9530917866533
652,691.893906371141
653,691.8348701728424
654,691.7765036117294
655,691.7192463309613
656,691.6634516329061
657,691.6093847311311
658,691.557224968391
659,691.5070720676389
660,691.4589563325998
661,691.4128524482741
662,691.3686961798937
663,691.3264029334548
664,691.285886920197
665,691.2470795798239
666,691.209945905756
667,691.1744973630553
668,691.1408002795624
669,691.1089789920442
670,691.0792135796537
671,691.0517325634931
672,691.0268013569066
673,691.0047074643553
674,690.9857434877514
675,690.9701889948908
676,690.9582923037701
677,690.9502532494992
678,690.9462079770431
679,690.9462166751487
680,690.9502549282194
681,690.9582090854751
682,690.9698757748005
683,690.9849653794673
684,691.0031089329657
685,691.0238675703533
686,691.0467435277925
687,691.0711917401449
688,691.0966312999195
689,691.1224563363289
690,691.1480462068436
691,691.1727752389693
692,691.1960225248897
693,691.217182312933
694,691.2356753359585
695,691.2509611359346
696,691.2625512549652
697,691.2700230454542
698,691.273033663352
699,691.2713334973132
700,691.2647779883814
701,691.253336705844
702,691.2370987160779
703,691.2162735787138
704,691.1911875873759
705,691.1622751399274
706,691.1300654538804
707,691.0951652383984
708,691.0582382717141
709,691.0199829813882
710,690.9811090929147
711,690.9423143197369
712,690.9042619817188
713,690.8675603280551
714,690.8327442006301
715,690.800259573567
716,690.7704514733406
717,690.7435557609471
718,690.7196951664084
719,690.6988797767012
720,690.6810119185112
721,690.6658950993237
722,690.6532463988724
723,690.6427114370143
724,690.6338808146176
725,690.6263068136316
726,690.619519234732
727,690.6130395604586
728,690.6063930779945
729,690.599119042636
730,690.5907792830428
731,690.5809657646822
732,690.5693075371934
733,690.5554772760752
734,690.5391974000873
735,690.520245572278
736,690.4984592831438
737,690.4737391448342
738,690.4460504913479
739,690.415422940713
740,690.3819478099215
741,690.3457736597687
742,690.3071006118188
743,690.266174216631
744,690.2232794990102
745,690.1787354837442
746,690.1328901842892
747,690.0861158081369
748,690.0388038159887
749,689.9913594790783
750,689.9441957076442
751,689.8977261157952
752,689.8523574510738
753,689.8084815856836
754,689.7664672317798
755,689.7266514462774
756,689.6893309112733
757,689.6547530048487
758,689.6231068485683
759,689.5945147711067
760,689.5690248528649
761,689.5466053326305
762,689.5271416403665
763,689.5104367033774
764,689.4962150157259
765,689.4841307763397
766,689.4737801293497
767,689.4647171407248
768,689.4564727069223
769,689.4485752718191
770,689.440572087012
771,689.4320497292374
772,689.4226526479555
773,689.4120986705367
774,689.4001906100434
775,689.386823324754
776,689.3719857742881
777,689.3557579012581
778,689.3383025752788
779,689.3198532661654
780,689.30069843259
781,689.28116377167
782,689.2615935148219
783,689.2423319525009
784,689.2237063545402
785,689.2060123599675
786,689.1895026627303
787,689.1743794537033
788,689.1607907375455
789,689.1488304141461
790,689.1385418419408
791,689.1299244120371
792,689.1229424919454
793,689.1175359802224
794,689.1136315938846
795,689.111153881801
796,689.1100349412933
797,689.1102220100023
798,689.1116824593732
799,689.1144060872896
800,689.1184048751971
801,689.1237105209566
802,689.1303701670872
803,689.138440893755
804,689.1479837098861
805,689.1590578469161
806,689.1717160500194
807,689.1860012995963
808,689.2019451402837
809,689.2195676840848
810,689.2388793302734
811,689.259884123037
812,689.2825843868336
813,689.3069859734467
814,689.3331032868822
815,689.3609632857153
816,689.390607862252
817,689.4220942506313
818,689.4554933018932
819,689.4908855894039
820,689.5283554863556
821,689.5679836104467
822,689.6098382233218
823,689.6539661933689
824,689.7003840407579
825,689.7490695224536
826,689.7999542397712
827,689.8529178080371
828,689.9077841176896
829,689.9643200699653
830,690.0222369142288
831,690.0811940548616
832,690.140805013587
833,690.2006451311402
834,690.2602605712048
835,690.3191782869633
836,690.37691682296
837,690.4329980544317
838,690.4869600756701
839,690.5383713580993
840,690.5868460377886
841,690.6320598711152
842,690.6737661247248
843,690.7118104949325
844,690.7461440811891
845,690.7768334414405
846,690.8040668099466
847,690.8281556651132
848,690.8495310403251
849,690.8687343140936
850,690.8864026618777
851,690.9032497818253
852,690.9200427846557
853,690.9375762089825
854,690.9566440761566
855,690.9780108953556
856,691.0023826320598
857,691.0303787682376
858,691.0625066039164
859,691.0991388795242
860,691.1404957038266
861,691.186631676937
862,691.2374289475058
863,691.2925966771521
864,691.3516770247472
865,691.4140574024264
866,691.4789884630486
867,691.5456070469902
868,691.6129631232674
869,691.6800496336568
870,691.7458341173038
871,691.8092910226588
872,691.8694336360094
873,691.9253445375073
874,691.9762034584462
875,692.0213114277321
876,692.0601102415526
877,692.0921965783267
878,692.1173304242762
879,692.1354377839892
880,692.1466079081457
881,692.1510854901801
882,692.14925847118
883,692.1416422722286
884,692.128861461413
885,692.111629987057
886,692.0907310351895
887,692.0669972490409
888,692.0412916118865
889,692.0144889700514
890,691.9874581022864
891,691.9610443748389
892,691.9360532011567
893,691.9132346461912
894,691.8932695568516
895,691.8767575583008
896,691.8642071350395
897,691.8560278714492
898,691.8525248500583
899,691.8538952491074
900,691.8602272960743
901,691.8715017840916
902,691.8875962278131
903,691.9082914711217
904,691.9332803519363
905,691.9621780014218
906,691.994533431692
907,692.0298420952677
908,692.0675590205889
909,692.1071119977038
910,692.1479142025502
911,692.1893756671261
912,692.2309131229877
913,692.2719579311638
914,692.3119620401409
915,692.3504021550773
916,692.3867824963078
917,692.4206366523354
