acceleration,velocity,displacement
-0.0014779240900092408,0.0,0.0
-0.002108463873760837,-8.965969909425195e-07,-2.2414924773562987e-10
-0.002730885777118186,-2.1064344036622754e-06,-9.749070963868288e-10
-0.003337355614083332,-3.6234947514626547e-06,-2.407389385168061e-09
-0.0039205912823905694,-5.43798147558113e-06,-4.6727584419290075e-09
-0.004474102343818013,-7.536654882133275e-06,-7.916417531357608e-09
-0.004992390429551711,-9.903278075475706e-06,-1.2276400770759854e-08
-0.005471104125277165,-1.2519151714182926e-05,-1.788200821817451e-08
-0.005907146068213142,-1.5363714262555502e-05,-2.4852724712359118e-08
-0.0062987328634737695,-1.841518399547723e-05,-3.32974492768673e-08
-0.0066454096602957795,-2.1651219626419617e-05,-4.331405018234151e-08
-0.006948021726340528,-2.5049577473078694e-05,-5.498924945721609e-08
-0.007208646004042044,-2.8588744405674338e-05,-6.839882992690435e-08
-0.007430486086433964,-3.224852742829334e-05,-8.360814788539627e-08
-0.007617733415105944,-3.601058230367832e-05,-1.0067292531838919e-07
-0.007775395749398381,-3.9858864594804405e-05,-1.1964028704300986e-07
-0.00790909239645756,-4.377998663126839e-05,-1.4054999984952806e-07
-0.008024816104260831,-4.7763463756447994e-05,-1.6343586244645715e-07
-0.008128664638439568,-5.1801833942123095e-05,-1.8832718687109994e-07
-0.008226550005605767,-5.589063760313443e-05,-2.152503047574143e-07
-0.008323898430741444,-6.002824971222123e-05,-2.442300265862532e-07
-0.00842535809044167,-6.421556384251701e-05,-2.7529097997493776e-07
-0.008534533319642018,-6.845553669503793e-05,-3.084587551093265e-07
-0.008653763553955243,-7.275261091343725e-05,-3.4376079201144534e-07
-0.008783963297216727,-7.711204262623024e-05,-3.812269553963622e-07
-0.008924536073600737,-8.15391674689346e-05,-4.208897579201534e-07
-0.009073370282267346,-8.603864405790162e-05,-4.6278421080186247e-07
-0.009226918359342955,-9.06137162183042e-05,-5.069473008709139e-07
-0.009380353607392528,-9.526553420998807e-05,-5.534171134779869e-07
-0.009527792550496473,-9.999257074946032e-05,-6.02231639717849e-07
-0.009662565942734846,-0.00010479016037276816,-6.534273224984061e-07
-0.009777519709750954,-0.00010965018178588961,-7.070374080380706e-07
-0.00986532812791079,-0.00011456089374530505,-7.630901769208692e-07
-0.009918803995100646,-0.0001195069267760579,-8.2160713205121e-07
-0.009931192551690629,-0.00012446942591275574,-8.826012202234134e-07
-0.009896436643607903,-0.00012942633321158037,-9.460751600044975e-07
-0.009809400930033425,-0.00013435279260499072,-1.0120199414586402e-06
-0.009666044385950761,-0.00013922165393398677,-1.0804135530933845e-06
-0.009463533539840951,-0.0001440040484154347,-1.15121997868074e-06
-0.009200293240619344,-0.00014867000511054979,-1.224388492062236e-06
-0.008875996739000993,-0.00015318907760545486,-1.2998532627412372e-06
-0.008491502177156964,-0.00015753095233449435,-1.3775332702262244e-06
-0.008048746986272767,-0.00016166601462535177,-1.457332511966186e-06
-0.007550613544779735,-0.0001655658547581149,-1.5391404793120526e-06
-0.0070007785576316085,-0.00016920370278371774,-1.6228328686975108e-06
-0.006403556345634027,-0.00017255478650953415,-1.7082724910208237e-06
-0.005763743839086868,-0.00017559661155571438,-1.7953103405371358e-06
-0.005086472870769125,-0.00017830916573317838,-1.883786784859359e-06
-0.004377073065131342,-0.0001806750522171535,-1.9735328393469418e-06
-0.003640945948044919,-0.00018267955697044756,-2.064371491643842e-06
-0.0028834485270071196,-0.00018431065558921058,-2.1561190447837567e-06
-0.00210978412132082,-0.00018555896375129256,-2.2485864496188823e-06
-0.0013249003438673206,-0.0001864176348675896,-2.341580599273603e-06
-0.0005333974434144272,-0.00018688220931441005,-2.4349055603191027e-06
0.00026054742772200904,-0.00018695042181833316,-2.5283637181022887e-06
0.0010532341069752922,-0.00018662197643465884,-2.6217568176655366e-06
0.0018414669964882879,-0.00018589830115879293,-2.7148868870638998e-06
0.002622554419457508,-0.0001847822958048065,-2.8075570363047997e-06
0.003394281101217892,-0.00018327808692463764,-2.899572131987161e-06
0.004154858323513321,-0.00018139080206845483,-2.990739354235434e-06
0.004902858151451823,-0.00017912637294971356,-3.080868647989976e-06
0.005637137702917264,-0.0001764913739861213,-3.169773084723935e-06
0.006356757394688282,-0.0001734929002117199,-3.257269153273395e-06
0.007060894985252062,-0.0001701384871167348,-3.3431770001055086e-06
0.007748755843359764,-0.00016643607440958185,-3.4273206404870877e-06
0.008419479354853323,-0.00016239401561002857,-3.5095281629919903e-06
0.009072042162316057,-0.00015802113523073622,-3.5896319507021814e-06
0.009705161335308764,-0.00015332683435633003,-3.667468943098948e-06
0.010317203794210502,-0.00014832124307395021,-3.742880962456518e-06
0.010906110614303592,-0.0001430154144718217,-3.815715126842961e-06
0.011469344802359985,-0.00013742155061765578,-3.885824368115331e-06
0.012003868865087879,-0.00013155324720079382,-3.953068067569943e-06
0.012506155607582557,-0.0001254257410826262,-4.017312814640798e-06
0.012972233564696877,-0.00011905614378955635,-4.078433285858843e-06
0.013397767032920515,-0.000112463643640152,-4.13631323271627e-06
0.013778169014124023,-0.00010566965962839086,-4.190846558533406e-06
0.01410874390702643,-9.869793139810325e-05,-4.241938456290029e-06
0.014384856245871868,-9.157453135987868e-05,-4.2895065719795246e-06
0.014602121562298728,-8.432778690783603e-05,-4.333482151546453e-06
0.014756614102032323,-7.698810299175327e-05,-4.373811124021351e-06
0.01484508311469938,-6.958767868757035e-05,-4.410455069441182e-06
0.014865165593088224,-6.216011651062344e-05,-4.44339201824073e-06
0.014815580319613176,-5.4739930032448094e-05,-4.472617029876498e-06
0.014696287418108227,-4.736196309801774e-05,-4.498142503159114e-06
0.01450859992903163,-4.006074126123278e-05,-4.519998179248927e-06
0.014255238742276043,-3.286978159340586e-05,-4.538230809962587e-06
0.013940328248683352,-2.582088984566601e-05,-4.552903477822355e-06
0.013569335750471277,-1.8943473845877352e-05,-4.5640945687452414e-06
0.013148961900724128,-1.22638994330785e-05,-4.5718964120649805e-06
0.012686991841411425,-5.804910997544612e-06,-4.576413614672636e-06
0.012192116967057947,4.1486620457273134e-07,-4.577761125870879e-06
0.01167373506225407,6.381329211900736e-06,-4.576062077016761e-06
0.011141732985623334,1.2085196223870086e-05,-4.571445445657818e-06
0.010606253601615729,1.7522192870679852e-05,-4.564043598384181e-06
0.010077448925022776,2.269311850233948e-05,-4.553989770540926e-06
0.009565223621995111,2.760378663909395e-05,-4.5414155442555675e-06
0.00907897519185841,3.226483634255733e-05,-4.5264483885101546e-06
0.008627338358989465,3.66914147302693e-05,-4.509209325741948e-06
0.008217941764407889,4.0902734761118636e-05,-4.489810788369101e-06
0.007857185825924002,4.4921516658701606e-05,-4.468354725514146e-06
0.007550052078259254,4.877332613474742e-05,-4.444931014815784e-06
0.007299955596421291,5.248582805341755e-05,-4.419616226268743e-06
0.007108651535852397,5.6087979836485976e-05,-4.392472774296266e-06
0.0069762036429176005,5.960919363117848e-05,-4.3635484809293505e-06
0.006901017834153432,6.307849900044624e-05,-4.332876557771445e-06
0.006879938984708585,6.652373820516174e-05,-4.3004759984700424e-06
0.006908404537353324,6.997082408567722e-05,-4.2663523578973325e-06
0.0069806449340635195,7.344308645353142e-05,-4.23049888026253e-06
0.007089918706904243,7.696072736377336e-05,-4.192897926808204e-06
0.007228769068579122,8.05403993076442e-05,-4.153522645140349e-06
0.0073892881135838254,8.419491360318494e-05,-4.112338816912642e-06
0.007563374280216827,8.79330792016351e-05,-4.0693068187114375e-06
0.007742969958288091,9.175966526126134e-05,-4.024383632595713e-06
0.007920270108197302,9.567547527788268e-05,-3.977524847460927e-06
0.008087898282474483,9.967751737555062e-05,-3.928686599297569e-06
0.008239050911869857,0.0001037592546741367,-3.877827406285147e-06
0.008367612615240447,0.00010791092055591428,-3.824909862477634e-06
0.008468245008164817,0.0001121198849617656,-3.769902161098214e-06
0.008536450290868641,0.00011637105878652396,-3.7127794251611417e-06
0.008568610041550663,0.00012064732386962879,-3.6535248294971037e-06
0.008561999930346561,0.0001249299763626031,-3.592130504439046e-06
0.008514782492138464,0.00012919917196822436,-3.5285982173563393e-06
0.00842598201210458,0.00013343436309428512,-3.4629398335907118e-06
0.008295447256822063,0.00013761472041151678,-3.395177562714261e-06
0.008123808384790683,0.00014171953432191996,-3.325343999030902e-06
0.007912432912963268,0.00014572859464635846,-3.2534819667888323e-06
0.007663382106896393,0.00014962254840132337,-3.179644181026912e-06
0.0073793655949144854,0.0001533832353267761,-3.1038927350948872e-06
0.007063691023729896,0.0001569939994814372,-3.0262984263928337e-06
0.006720207791396551,0.0001604399741852188,-2.9469399329761696e-06
0.0063532471617088054,0.00016370833792349516,-2.865902854948991e-06
0.005967562656356962,0.00016678854037801161,-2.7832786353736146e-06
0.005568273727083022,0.0001696724994738716,-2.699163375410644e-06
0.005160813457196448,0.00017235477126994146,-2.6136565577246904e-06
0.00475087878650515,0.00017483269433086687,-2.5268596913244885e-06
0.004344380034219913,0.00017710650903604813,-2.43887489048276e-06
0.003947385179368758,0.0001791794503394453,-2.3498034006388864e-06
0.0035660533282114437,0.00018105780996634035,-2.25974408556244e-06
0.003206551589945979,0.0001827509611958797,-2.1687918927718847e-06
0.0028749512610227895,0.0001842713369086219,-2.0770363182457594e-06
0.0025771033641069597,0.0001856343505649043,-1.984559896377378e-06
0.002318499350212225,0.0001868582512434841,-1.8914367459252808e-06
0.0021041279131514263,0.00018796390805932503,-1.7977312060995785e-06
0.001938340943433293,0.00018897452527347121,-1.7034965977663794e-06
0.00182473984646427,0.00018991529547094562,-1.6087741425802751e-06
0.001766089493704862,0.0001908130028059879,-1.5135920680110417e-06
0.0017642635631801857,0.00019169559107020916,-1.4179649195419924e-06
0.001820222574705889,0.00019259171260468068,-1.32189309362327e-06
0.0019340231620872872,0.00019353027403887896,-1.22536259696238e-06
0.0021048537297149606,0.00019453999326182953,-1.1283450301372028e-06
0.0023310895128320084,0.00019564897907246628,-1.0307977870536287e-06
0.0026103605794065452,0.00019688434159552593,-9.326644568866307e-07
0.002939628390103491,0.00019827183883790343,-8.338754117782734e-07
0.0033152684834504816,0.00019983556305629193,-7.343485613047245e-07
0.003733158183726435,0.00020159766972308615,-6.3399025310988e-07
0.0041887687978983314,0.00020357815146849234,-5.326962978119853e-07
0.0046772612751232335,0.00020579465898674774,-4.3035309519817526e-07
0.005193583083963391,0.0002082623700765194,-3.268388379323585e-07
0.0057325630876095155,0.0002109939066194126,-2.220247687583755e-07
0.006289001312146361,0.00021399929771935157,-1.1577646767368447e-07
0.006857751649496471,0.00021728598595976227,-7.95514675390601e-09
0.007433796409126751,0.0002208588729744181,1.0158106797963908e-07
0.00801231103935028,0.00022472039983653734,2.1297588618237794e-07
0.008588716029106727,0.0002288706566036516,3.263736502924252e-07
0.009158713046700745,0.00023330751387260347,4.4191819291148896e-07
0.009718304813014703,0.00023802676833753234,5.597517634640229e-07
0.010263801852141324,0.00024302229500382136,6.800140292993614e-07
0.010791821730776413,0.0002482862008995508,8.028411532752045e-07
0.011299286397278705,0.00025380897793156456,9.283649479829833e-07
0.011783421626644579,0.0002595796549375454,1.0567121062002609e-06
0.01224176086723679,0.00026558595056101574,1.1880035075749012e-06
0.012672154422434788,0.00027181442938343364,1.3223536025610135e-06
0.013072783803439106,0.0002782506639399021,1.4598698758918474e-06
0.013442180568281394,0.00028487940503283223,1.600652393135031e-06
0.013779249227996405,0.0002916847624819017,1.7447934350137145e-06
0.014083294390753088,0.00029865039838658904,1.8923772252308372e-06
0.014354052503328232,0.00030575973511010935,2.043479758605012e-06
0.014591727805261455,0.0003129961801872568,2.1981687374293533e-06
0.014797030253984104,0.0003203433697020682,2.3565036249016846e-06
0.01497121069843496,0.00032778542994017296,2.518535824812245e-06
0.015116086477054504,0.00033530725423404535,2.6843089958557993e-06
0.015234049574721794,0.00034289478824698944,2.853859506476058e-06
0.015328049721371794,0.0003505353130710128,3.027217031805559e-06
0.015401546749817422,0.0003582177121888101,3.2044052881205145e-06
0.015458430464147336,0.0003659327064923013,3.3854428927907925e-06
0.015502911313707643,0.0003736730419367651,3.570344329898059e-06
0.015539389197042258,0.0003814336170644526,3.7591209946483638e-06
0.015572309295674545,0.0003892115416876318,3.9517822843363844e-06
0.015606013837309135,0.0003970061224708777,4.148336700376012e-06
0.015644598937286074,0.0004048187756645265,4.348792924909863e-06
0.015691786198067693,0.00041265287194836497,4.553160836813086e-06
0.015750817926526415,0.0004205135229795135,4.761452435545056e-06
0.015824382141093808,0.00042840732299641857,4.973682647039039e-06
0.015914570445603474,0.0004363420611430929,5.189869993073916e-06
0.01602286957493054,0.0004443264211482264,5.410037113646746e-06
0.016150185566239043,0.0004523696849335188,5.634211140167183e-06
0.016296897249780257,0.00046048145563752364,5.862423925309943e-06
0.016462933133652182,0.00046867141323338174,6.09471214252767e-06
0.016647863456726333,0.0004769491123809764,6.331117273931259e-06
0.016850997739865967,0.00048532382768012443,6.571685508946534e-06
0.017071477670319416,0.0004938044465326708,6.816467577499733e-06
0.017308355534862648,0.0005023994048339663,7.065518540341392e-06
0.01756064984690171,0.0005111166561794074,7.318897555594735e-06
0.017827372516565167,0.0005199636617702741,7.576667635082156e-06
0.018107525637413184,0.0005289473863087687,7.838895397101916e-06
0.01840006996569605,0.000538074285209546,8.105650814981494e-06
0.0187038705175905,0.0005473502703303676,8.377006953866473e-06
0.019017626643791558,0.0005567806446207131,8.653039682604243e-06
0.01933979458864341,0.0005663699999288219,8.933827343741628e-06
0.01966851104159701,0.000576122076336382,9.219450362807929e-06
0.020001527096765725,0.0005860395858709726,9.509990778359768e-06
0.02033616193502242,0.0005961240081289197,9.805531676859742e-06
0.02066928245587091,0.000606375369226643,1.0106156521198632e-05
0.020997309297660197,0.0006167920171650258,1.041194836779655e-05
0.02131624420377124,0.0006273704055403836,1.0722988973472902e-05
0.021621711532963803,0.0006381048944745675,1.103935779847664e-05
0.021909008165160476,0.0006489875743990986,1.1361130915695057e-05
0.022173159015608707,0.0006600081161942909,1.1688379838343405e-05
0.022408977880362255,0.0006711536504182836,1.2021170279996548e-05
0.02261113511435178,0.0006824086786669622,1.235956086226786e-05
0.02277423537002666,0.0006937550212880568,1.2703601787256615e-05
0.022892910374284578,0.0007051718077241346,1.3053333494509662e-05
0.02296193223424933,0.0007166355183762681,1.3408785326034762e-05
0.02297635032732842,0.0007281200890166625,1.3769974227882994e-05
0.022931649225054057,0.0007395970889047582,1.4136903522363348e-05
0.022823918490154273,0.0007510359808335603,1.4509561789797927e-05
0.02265002056692899,0.0007624044655978311,1.4887921901405775e-05
0.022407741721211672,0.0007736689061698663,1.52719402443477e-05
0.02209591225976672,0.0007847948196651109,1.5661556175806444e-05
0.021714484798887265,0.0007957474189297743,1.6056691735455164e-05
0.021264562868238343,0.0008064921808465557,1.6457251635399246e-05
0.020748376663163686,0.0008169954157294062,1.6863123534543236e-05
0.020169207581677995,0.0008272248117906167,1.727417859142324e-05
0.019531267334222526,0.0008371499305195919,1.7690272277000793e-05
0.018839540734003127,0.0008467426325366483,1.8111245417764852e-05
0.018099604261708323,0.0008559774187855762,1.853692543059541e-05
0.017317435118382178,0.0008648316786305988,1.8967127704949453e-05
0.016499226511788853,0.0008732858440381416,1.9401657085616637e-05
0.015651223126516234,0.0008813234564477179,1.9840309410738102e-05
0.014779586632224477,0.000888931158887403,2.0282873064571884e-05
0.013890296505286327,0.0008960986296717808,2.0729130511711682e-05
0.0129890872650899,0.0009028184756143748,2.1178859788033222e-05
0.012081419095740557,0.0009090861022045824,2.163183593248796e-05
0.011172474980133483,0.0009148995757235509,2.2087832351969996e-05
0.010267175186254255,0.0009202594882651478,2.2546622117967172e-05
0.009370199729325103,0.0009251688319940426,2.300797919803197e-05
0.008486010322332153,0.0009296328845069569,2.3471679627157218e-05
0.007618864307218292,0.0009336591031643446,2.3937502624075042e-05
0.006772814220965635,0.0009372570227963906,2.4405231655565225e-05
0.005951688813548333,0.000940438148555019,2.487465544840308e-05
0.005159054970157647,0.0009432158345009455,2.534556894416707e-05
0.004398164388930257,0.0009456051393407175,2.5817774187627485e-05
0.003671892290432662,0.0009476226535105582,2.6291081135840305e-05
0.002982676299825391,0.0009492862956581228,2.6765308373132475e-05
0.0023324618310513446,0.000950615080190842,2.7240283717094716e-05
0.0017226575124358622,0.0009516288600267137,2.7715844702149104e-05
0.0011541024456142043,0.0009523480500162263,2.819183892965984e-05
0.0006270464766051681,0.0009527933372467811,2.8668124276475592e-05
0.0001411434971787346,0.0009529853847402271,2.9144568956972343e-05
-0.00030454435121012475,0.0009529445345267193,2.962105143678908e-05
-0.0007115347131527797,0.0009526905147606285,3.0097460199110915e-05
-0.001081906622533101,0.000952242154426707,3.0573693366407746e-05
-0.0014182737096253867,0.0009516171093436675,3.104965818235034e-05
-0.0017237448243528658,0.0009508316047101728,3.15252703608638e-05
-0.002001867500990113,0.0009499002016288372,3.200045331244855e-05
-0.002256550434371079,0.0009488355971449968,3.247513726214201e-05
-0.002491962950956836,0.0009476484687986649,3.294925827862793e-05
-0.0027124131664806495,0.0009463473747693055,3.342275723951992e-05
-0.002922211787569537,0.0009449387185307929,3.389557876284495e-05
-0.0031255326820740555,0.000943426782413382,3.436767013808099e-05
-0.0033262816334307744,0.0009418138288345058,3.483898029089296e-05
-0.003527981234680224,0.000940100263117478,3.530945881388096e-05
-0.0037336754638808557,0.0009382848489428377,3.577905509189604e-05
-0.003945854693026022,0.0009363649664036111,3.624771754573266e-05
-0.004166401212614359,0.000934336902427201,3.671539301294036e-05
-0.004396555747715502,0.0009321961631871186,3.718202627934394e-05
-0.004636905714894154,0.0009299377978214662,3.764755976959609e-05
-0.004887395509594595,0.000927556722515344,3.811193339968029e-05
-0.005147357941239578,0.0009250480341526354,3.857508458884728e-05
-0.005415564673926656,0.0009224073034988439,3.903694842326015e-05
-0.0056902928131148086,0.0009196308391270835,3.9497457958916636e-05
-0.005969404320772275,0.0009167159148436118,3.995654464740931e-05
-0.006250434056729229,0.0009136609552492364,4.041413886493252e-05
-0.00653068142772399,0.0009104656763781232,4.0870170522839366e-05
-0.006807301229693266,0.0009071311807137689,4.132456973711234e-05
-0.007077391287868682,0.0009036600075843784,4.177726753418688e-05
-0.007338076243459084,0.0009000561407015464,4.222819657125836e-05
-0.007586587114624792,0.0008963249748620255,4.267729185014925e-05
-0.00782033563251176,0.0008924732441752414,4.312449140490857e-05
-0.008036981979879256,0.0008885089147721437,4.356973694464541e-05
-0.008234494648658233,0.0008844410456150093,4.4012974434742204e-05
-0.008411200916486124,0.0008802796217237232,4.4454154601576887e-05
-0.008565825323092503,0.0008760353651638285,4.489323334829877e-05
-0.008697512030608609,0.0008717195308254032,4.5330172072296077e-05
-0.008805826703371891,0.0008673436961419081,4.5764937879037905e-05
-0.008890735726860725,0.0008629195555343499,4.619750369195697e-05
-0.00895256416447305,0.0008584587305615165,4.6627848263480934e-05
-0.00899193652039204,0.0008539726053903002,4.7055956097468885e-05
-0.009009705332678673,0.0008494721949270325,4.748181729754822e-05
