frame_number,force
0,690.0285029883975
1,689.9929234009788
2,689.9574655831296
3,689.9222507478146
4,689.8873990123599
5,689.8530288925061
6,689.8192568414989
7,689.7861968415696
8,689.7539600504684
9,689.7226545023289
10,689.6923848605575
11,689.6632522196811
12,689.6353539521564
13,689.6087835954612
14,689.5836307753387
15,689.5599811629021
16,689.5379164649847
17,689.5175144466767
18,689.4988489816097
19,689.4819901202294
20,689.4670041608175
21,689.4539537040026
22,689.442897669957
23,689.4338912583955
24,689.4269858341413
25,689.422228725206
26,689.4196629264349
27,689.4193267094981
28,689.4212531483215
29,689.425469576727
30,689.4319970007246
31,689.44084949031
32,689.4520335747819
33,689.4655476630855
34,689.4813815085894
35,689.4995157369046
36,689.5199214549356
37,689.542559957564
38,689.5673825445587
39,689.5943304551089
40,689.6233349214003
41,689.6543173362448
42,689.6871895243088
43,689.7218541037954
44,689.7582049257563
45,689.7961275800279
46,689.835499958738
47,689.8761928700599
48,689.9180706967493
49,689.9609920962884
50,690.0048107414602
51,690.0493761001005
52,690.0945342498708
53,690.1401287197344
54,690.1860013467618
55,690.2319931361167
56,690.2779451133396
57,690.3236991606326
58,690.3690988322331
59,690.4139901473659
60,690.4582223612156
61,690.5016487138458
62,690.5441271547455
63,690.5855210384025
64,690.625699784877
65,690.6645394989358
66,690.7019235423858
67,690.7377430571713
68,690.7718974406782
69,690.8042947776017
70,690.8348522331065
71,690.8634964099487
72,690.8901636695491
73,690.9148004153213
74,690.9373633355831
75,690.9578196022185
76,690.9761470203434
77,690.9923341244016
78,691.0063802166815
79,691.0182953436001
80,691.0281002026358
81,691.0358259694218
82,691.0415140320699
83,691.0452156199439
84,691.0469913175477
85,691.0469104603545
86,691.0450504168558
87,691.0414957681079
88,691.0363374013517
89,691.0296715374525
90,691.0215987125823
91,691.0122227324132
92,691.0016496132429
93,690.9899865217046
94,690.9773407248156
95,690.9638185641868
96,690.9495244701338
97,690.9345600321077
98,690.9190231416952
99,690.9030072243743
100,690.8866005767677
101,690.8698858264346
102,690.8529395293914
103,690.8358319157636
104,690.8186267874014
105,690.8013815644937
106,690.7841474719147
107,690.7669698507987
108,690.7498885772708
109,690.7329385680813
110,690.7161503511152
111,690.6995506774031
112,690.6831631519361
113,690.6670088644587
114,690.651107007164
115,690.6354754709646
116,690.6201314140753
117,690.6050917964594
118,690.5903738726558
119,690.5759956350029
120,690.561976200179
121,690.5483361342755
122,690.535097714567
123,690.522285128934
124,690.5099246155653
125,690.4980445450193
126,690.4866754439448
127,690.4758499569386
128,690.4656027430597
129,690.4559703070942
130,690.4469907703684
131,690.4387035886961
132,690.4311492250132
133,690.4243687826308
134,690.4184036033087
135,690.4132948331134
136,690.4090829581107
137,690.4058073112174
138,690.403505551588
139,690.4022131199235
140,690.4019626776853
141,690.4027835444564
142,690.4047011531247
143,690.4077365444733
144,690.4119059202494
145,690.4172202687791
146,690.4236850725761
147,690.4313001038669
148,690.440059310015
149,690.4499507861245
150,690.4609568287729
151,690.4730540644018
152,690.4862136471958
153,690.5004015224501
154,690.5155787519465
155,690.5317018975633
156,690.5487234579483
157,690.5665923509372
158,690.5852544326203
159,690.604653043475
160,690.6247295727367
161,690.6454240327508
162,690.6666756340942
163,690.6884233506302
164,690.7106064636553
165,690.7331650770523
166,690.7560405995806
167,690.7791761934492
168,690.802517188703
169,690.826011461661
170,690.8496097743258
171,690.8732660708292
172,690.8969377264962
173,690.9205857453226
174,690.9441749028018
175,690.9676738325687
176,690.9910550564487
177,691.0142949575965
178,691.0373736952736
179,691.0602750579745
180,691.0829862501683
181,691.1054976076131
182,691.1278022372732
183,691.1498955807463
184,691.1717749051259
185,691.1934387313922
186,691.2148862153764
187,691.2361164984725
188,691.2571280455569
189,691.2779179880226
190,691.298481490489
191,691.3188111587929
192,691.3388965037311
193,691.3587234713355
194,691.3782740475776
195,691.3975259428969
196,691.4164523588913
197,691.435021835989
198,691.4531981776693
199,691.4709404444508
200,691.4882030095085
201,691.5049356673554
202,691.5210837877319
203,691.5365885089448
204,691.5513869681179
205,691.5654125693392
206,691.5785952935053
207,691.5908620549243
208,691.6021371096074
209,691.612342519919
210,691.6213986805005
211,691.6292249095613
212,691.6357401055743
213,691.6408634624333
214,691.6445152295793
215,691.6466175008229
216,691.647095016917
217,691.6458759700317
218,691.6428928009991
219,691.638082982205
220,691.6313897810815
221,691.6227630013639
222,691.6121597002352
223,691.5995448772812
224,691.5848921255731
225,691.5681842285746
226,691.5494136822443
227,691.5285831211779
228,691.5057056299885
229,691.4808049249283
230,691.4539153956864
231,691.4250820033643
232,691.3943600370379
233,691.3618147369608
234,691.3275207971633
235,691.2915617644877
236,691.254029354921
237,691.215022710077
238,691.1746476154541
239,691.1330156982243
240,691.090243617805
241,691.0464522582945
242,691.0017659276273
243,690.9563115642724
244,690.9102179498847
245,690.8636149260766
246,690.8166326143538
247,690.7694006391243
248,690.7220473546569
249,690.6746990788387
250,690.627479340106
251,690.5805081482034
252,690.5339013025641
253,690.4877697523386
254,690.44221901932
255,690.3973486911108
256,690.3532519891044
257,690.3100154143222
258,690.2677184720116
259,690.2264334726895
260,690.1862254053766
261,690.1471518799982
262,690.1092631388397
263,690.0726021387379
264,690.0372047055081
265,690.0030997607489
266,689.9703096187122
267,689.9388503464512
268,689.908732174358
269,689.8799599394096
270,689.8525335430389
271,689.8264484093963
272,689.8016959347578
273,689.7782639221186
274,689.756136996014
275,689.7352969925096
276,689.7157233193918
277,689.6973932825438
278,689.6802823762727
279,689.6643645372623
280,689.649612363142
281,689.6359972977045
282,689.6234897863079
283,689.6120594064096
284,689.6016749779941
285,689.5923046568622
286,689.5839160122238
287,689.5764760900842
288,689.5699514649142
289,689.5643082827547
290,689.5595122990018
291,689.5555289144892
292,689.5523232148021
293,689.5498600194331
294,689.5481039476336
295,689.5470195053089
296,689.5465711932117
297,689.5467236335647
298,689.5474417109755
299,689.5486907228209
300,689.5504365329773
301,689.552645721431
302,689.5552857225057
303,689.5583249467574
304,689.5617328848447
305,689.5654801942397
306,689.5695387707194
307,689.573881806482
308,689.5784838359955
309,689.5833207695466
310,689.588369913392
311,689.593609975451
312,689.599021057091
313,689.6045846342033
314,689.6102835336061
315,689.6161019127854
316,689.6220252508745
317,689.6280403560968
318,689.634135390861
319,689.6402999119313
320,689.6465249202396
321,689.6528029130463
322,689.6591279309474
323,689.6654955940473
324,689.671903124079
325,689.6783493501289
326,689.684834694222
327,689.6913611309569
328,689.6979321147319
329,689.7045524689485
330,689.7112282322179
331,689.7179664563412
332,689.7247749512201
333,689.7316619745147
334,689.7386358687165
335,689.7457046536696
336,689.7528755863165
337,689.7601547005091
338,689.7675463389861
339,689.7750526888083
340,689.7826733316981
341,689.7904048220581
342,689.7982403077305
343,689.8061692107731
344,689.8141769857494
345,689.8222449698561
346,689.8303503331423
347,689.8384661301346
348,689.8465614487314
349,689.8546016499082
350,689.862548692519
351,689.8703615395463
352,689.877996643643
353,689.8854085097429
354,689.8925503304756
355,689.8993746859238
356,689.9058342935814
357,689.9118827890695
358,689.9174755149136
359,689.9225702934499
360,689.9271281596282
361,689.9311140298131
362,689.9344972845645
363,689.9372522472698
364,689.9393585452635
365,689.9408013438921
366,689.9415714462741
367,689.9416652531629
368,689.941084579975
369,689.9398363329664
370,689.9379320534524
371,689.9353873459562
372,689.9322212112717
373,689.9284553079998
374,689.9241131663961
375,689.9192193769809
376,689.9137987742323
377,689.9078756337813
378,689.9014729004554
379,689.8946114643636
380,689.8873095027448
381,689.8795819057615
382,689.8714398035938
383,689.8628902096215
384,689.8539357911548
385,689.8445747760783
386,689.834801000529
387,689.8246040980455
388,689.813969823828
389,689.8028805001235
390,689.7913155629992
391,689.7792521885721
392,689.7666659776622
393,689.7535316804707
394,689.7398239463404
395,689.7255180874093
396,689.7105908486637
397,689.6950211801457
398,689.6787910087173
399,689.6618860055227
400,689.6442963418781
401,689.6260174237474
402,689.6070505949489
403,689.5874038003182
404,689.5670922000148
405,689.5461387247542
406,689.5245745597236
407,689.5024395428302
408,689.4797824615363
409,689.4566612327096
410,689.4331429509506
411,689.4093037911781
412,689.3852287509666
413,689.3610112194374
414,689.3367523641591
415,689.3125603350333
416,689.2885492927259
417,689.2648382773901
418,689.2415499403068
419,689.2188091658039
420,689.1967416130475
421,689.1754722076244
422,689.1551236120974
423,689.1358147032051
424,689.1176590814939
425,689.100763637608
426,689.0852271982351
427,689.0711392727603
428,689.0585789183036
429,689.0476137369759
430,689.0382990167157
431,689.0306770267206
432,689.024776478974
433,689.020612166539
434,689.0181847863889
435,689.017480950387
436,689.0184733833834
437,689.0211213025086
438,689.0253709672432
439,689.0311563866613
440,689.0384001685596
441,689.0470144939277
442,689.0569021979795
443,689.0679579356726
444,689.0800694071402
445,689.093118618798
446,689.1069831588798
447,689.1215374696525
448,689.1366541011247
449,689.1522049335173
450,689.1680623595462
451,689.1841004222823
452,689.2001959078995
453,689.2162293932331
454,689.2320862458203
455,689.2476575705979
456,689.2628410948308
457,689.2775419827616
458,689.2916735742753
459,689.3051580463426
460,689.3179270003451
461,689.3299219815133
462,689.3410949382807
463,689.3514086290307
464,689.3608369811255
465,689.3693654024361
466,689.3769910399214
467,689.3837229746014
468,689.3895823385416
469,689.3946023376164
470,689.3988281640577
471,689.402316785076
472,689.4051365972365
473,689.4073669394297
474,689.4090974597985
475,689.4104273348363
476,689.4114643431254
477,689.4123238017394
478,689.413127379361
479,689.4140018063405
480,689.4150775082622
481,689.4164871953499
482,689.4183644431691
483,689.4208422986259
484,689.4240519393763
485,689.4281214069814
486,689.4331744271494
487,689.4393293250467
488,689.4466980392646
489,689.4553852340622
490,689.4654875059772
491,689.4770926781507
492,689.490279174236
493,689.5051154636075
494,689.521659570481
495,689.5399586417199
496,689.5600485718676
497,689.5819536884422
498,689.6056865040977
499,689.631247544028
500,689.6586252569579
501,689.687796016369
502,689.718724215764
503,689.7513624587257
504,689.7856518421787
505,689.8215223298783
506,689.8588932126768
507,689.8976736521275
508,689.9377633034652
509,689.9790530122118
510,690.0214255763889
511,690.0647565652853
512,690.1089151867761
513,690.1537651973423
514,690.199165850053
515,690.2449728744473
516,690.2910394794242
517,690.3372173684876
518,690.3833577575638
519,690.4293123880349
520,690.4749345293278
521,690.5200799654398
522,690.564607959066
523,690.608382186543
524,690.651271636842
525,690.6931514683362
526,690.7339038183694
527,690.7734185629349
528,690.8115940261449
529,690.8483376401286
530,690.8835665553219
531,690.9172082003889
532,690.9492007912917
533,690.9794937886845
534,691.0080482993033
535,691.0348374105541
536,691.0598464419655
537,691.0830730964129
538,691.1045274982605
539,691.124232111732
540,691.1422215378064
541,691.1585421906374
542,691.1732518559395
543,691.1864191356293
544,691.198122785992
545,691.2084509601349
546,691.2175003679419
547,691.2253753670501
548,691.2321869969011
549,691.2380519662163
550,691.2430916035046
551,691.2474307804555
552,691.2511968184385
553,691.2545183879672
554,691.2575244099756
555,691.260342966718
556,691.263100228998
557,691.2659194044413
558,691.2689197088207
559,691.2722153614744
560,691.2759146091586
561,691.2801187898277
562,691.2849214556637
563,691.2904075798582
564,691.2966528721014
565,691.3037232227211
566,691.3116742861735
567,691.320551204592
568,691.3303884653404
569,691.3412098846237
570,691.3530287106179
571,691.3658478415455
572,691.3796601549344
573,691.3944489434745
574,691.4101884504589
575,691.4268444940618
576,691.4443751653522
577,691.4627315811681
578,691.4818586710271
579,691.5016959779341
580,691.5221784562257
581,691.5432372545566
582,691.5648004774265
583,691.5867939235299
584,691.6091418037284
585,691.6317674449908
586,691.6545939875417
587,691.6775450798947
588,691.7005455718358
589,691.723522201082
590,691.7464042664706
591,691.7691242790796
592,691.7916185820476
593,691.8138279292527
594,691.8356980117613
595,691.8571799191253
596,691.8782305207205
597,691.8988127505877
598,691.9188957780498
599,691.9384550469255
600,691.9574721692571
601,691.9759346645517
602,691.9938355418777
603,692.011172729742
604,692.0279483667836
605,692.0441679732612
606,692.059839528154
607,692.0749724800862
608,692.0895767231464
609,692.103661570679
610,692.1172347598405
611,692.1303015161931
612,692.1428637016315
613,692.1549190622172
614,692.1664605864116
615,692.177475979587
616,692.1879472579758
617,692.1978504642377
618,692.2071555070385
619,692.2158261279263
620,692.2238199995551
621,692.2310889587455
622,692.2375793754878
623,692.2432326557814
624,692.2479858735521
625,692.251772525082
626,692.2545233979238
627,692.2561675443407
628,692.2566333460804
629,692.2558496529839
630,692.2537469741529
631,692.250258698312
632,692.2453223190665
633,692.2388806402721
634,692.230882936985
635,692.2212860489914
636,692.2100553864155
637,692.1971658297599
638,692.182602509782
639,692.166361455697
640,692.1484501022833
641,692.1288876470471
642,692.1077052490888
643,692.0849460634569
644,692.0606651082824
645,692.0349289651825
646,692.0078153160682
647,691.9794123232621
648,691.9498178659778
649,691.9191386535995
650,691.8874892418398
651,691.8549909789167
652,691.8217709051673
653,691.7879606241671
654,691.753695160057
655,691.719111815235
656,691.6843490430792
657,691.6495453503178
658,691.6148382428881
659,691.5803632278325
660,691.5462528812909
661,691.5126359882325
662,691.4796367536937
663,691.4473740795801
664,691.4159608971044
665,691.3855035429691
666,691.3561011665669
667,691.3278451555074
668,691.3008185690035
669,691.2750955741512
670,691.2507408879462
671,691.2278092355812
672,691.2063448410164
673,691.1863809681905
674,691.1679395311885
675,691.1510307905791
676,691.135653152061
677,691.1217930826929
678,691.1094251585422
679,691.0985122545127
680,691.089005882312
681,691.0808466771475
682,691.0739650285022
683,691.0682818445821
684,691.0637094334995
685,691.0601524785553
686,691.0575090820629
687,691.0556718525935
688,691.0545290135327
689,691.0539655152835
690,691.0538641386494
691,691.0541065824625
692,691.0545745329453
693,691.0551507133467
694,691.0557199097358
695,691.0561699651018
696,691.056392731766
697,691.0562849711977
698,691.0557491884084
699,691.0546943843299
700,691.0530367060868
701,691.0506999749192
702,691.0476160754695
703,691.0437251960964
704,691.0389759155686
705,691.0333251368853
706,691.0267378752843
707,691.0191869147355
708,691.01065235342
709,691.0011210617863
710,690.990586076877
711,690.9790459556061
712,690.9665041085954
713,690.9529681345391
714,690.9384491728155
715,690.9229612902719
716,690.9065209172654
717,690.8891463471859
718,690.8708573116462
719,690.8516746398357
720,690.8316200056587
721,690.8107157610588
722,690.788984848781
723,690.7664507827495
724,690.7431376797509
725,690.7190703235318
726,690.6942742430869
727,690.6687757910662
728,690.6426022146267
729,690.6157817175472
730,690.5883435170343
731,690.5603179001318
732,690.5317362830049
733,690.5026312728759
734,690.473036728792
735,690.4429878147838
736,690.4125210374683
737,690.3816742593519
738,690.3504866789362
739,690.3189987701332
740,690.2872521776915
741,690.2552895719516
742,690.2231544725535
743,690.190891053428
744,690.1585439395423
745,690.1261580013096
746,690.0937781480071
747,690.0614491183744
748,690.0292152651065
749,689.9971203303714
750,689.9652072117366
751,689.9335177210565
752,689.9020923415028
753,689.8709699889612
754,689.8401877833579
755,689.8097808337387
756,689.7797820393887
757,689.7502219093698
758,689.7211284051283
759,689.6925268143311
760,689.6644396671161
761,689.6368867072218
762,689.6098849296274
763,689.5834486939244
764,689.5575899196153
765,689.5323183661026
766,689.5076419953735
767,689.4835674086705
768,689.4601003411734
769,689.4372461934139
770,689.415010575717
771,689.3933998415187
772,689.3724215863206
773,689.3520850915388
774,689.3324016960726
775,689.3133850818583
776,689.295051463044
777,689.2774196732385
778,689.2605111521048
779,689.2443498397658
780,689.2289619929645
781,689.2143759398834
782,689.200621791609
783,689.1877311286203
784,689.1757366808516
785,689.1646720188082
786,689.1545712696724
787,689.1454688668953
788,689.1373993366697
789,689.1303971213202
790,689.1244964371416
791,689.1197311614213
792,689.1161347408466
793,689.1137401117568
794,689.1125796209074
795,689.1126849334481
796,689.1140869146078
797,689.1168154746742
798,689.1208993724434
799,689.1263659781506
800,689.1332410010925
801,689.1415481894073
802,689.1513090111313
803,689.1625423279371
804,689.1752640754562
805,689.1894869650982
806,689.2052202204317
807,689.2224693569153
808,689.2412360095867
809,689.261517811387
810,689.2833083242283
811,689.3065970227775
812,689.3313693262685
813,689.3576066685912
814,689.3852865939964
815,689.4143828660071
816,689.4448655799864
817,689.4767012734933
818,689.50985303118
819,689.5442805826444
820,689.5799403941401
821,689.6167857587185
822,689.6547668920902
823,689.693831041513
824,689.7339226133004
825,689.7749833232949
826,689.8169523747883
827,689.859766669032
828,689.9033610531333
829,689.947668607684
830,689.9926209723361
831,690.0381487034273
832,690.0841816549216
833,690.130649372427
834,690.1774814898996
835,690.2246081204357
836,690.2719602362332
837,690.3194700368284
838,690.3670713069258
839,690.4146997642574
840,690.4622933944115
841,690.5097927651741
842,690.5571413093286
843,690.6042855628829
844,690.6511753453022
845,690.6977638690847
846,690.7440077675153
847,690.7898670317425
848,690.8353048520966
849,690.8802873644335
850,690.9247833096491
851,690.9687636215001
852,691.0122009623168
853,691.0550692272407
854,691.0973430366452
855,691.1389972359598
856,691.1800064231911
857,691.2203445255649
858,691.2599844462303
859,691.2988977999283
860,691.337054754005
861,691.3744239885508
862,691.4109727859379
863,691.4466672546797
864,691.4814726857281
865,691.5153540325571
866,691.5482765007795
867,691.5802062285069
868,691.6111110348764
869,691.6409612115993
870,691.6697303314984
871,691.6973960482686
872,691.7239408620658
873,691.7493528254666
874,691.7736261642059
875,691.7967617879686
876,691.8187676696639
877,691.8396590771649
878,691.859458648083
879,691.878196304313
880,691.8959090085498
881,691.9126403698989
882,691.9284401101522
883,691.9433634066284
884,691.9574701318918
885,691.9708240140085
886,691.9834917411174
887,691.9955420302056
888,692.0070446740939
889,692.0180695763471
890,692.0286857833316
891,692.0389605251603
892,692.048958280289
893,692.0587398804182
894,692.0683616727688
895,692.0778747556864
896,692.0873243009751
897,692.0967489732395
898,692.1061804542928
899,692.1156430802009
900,692.1251535990473
901,692.1347210568932
902,692.1443468158791
903,692.154024702722
904,692.1637412810644
905,692.1734762391479
906,692.1832028840033
907,692.1928887323714
908,692.2024961859818
909,692.2119832755307
910,692.2213044552487
911,692.2304114292923
912,692.2392539922953
913,692.2477808687306
914,692.255940538898
915,692.2636820429194
916,692.2709557571421
