frame_number,force
0,690.0285030032117
1,689.9929479714
2,689.9575142957794
3,689.9223227675637
4,689.8874930664894
5,689.8531432491287
6,689.8193892845682
7,689.7863446451578
8,689.7541199550905
9,689.7228226959948
10,689.6925569670587
11,689.6634232963909
12,689.635518499349
13,689.6089355788425
14,689.5837636631944
15,689.5600879790866
16,689.5379898588805
17,689.5175467811335
18,689.4988324395703
19,689.4819168301475
20,689.4668663400753
21,689.4537438184097
22,689.4426086062072
23,689.4335165052003
24,689.4265196667515
25,689.4216663872536
26,689.4190008025868
27,689.4185624824022
28,689.4203859337744
29,689.4245000318676
30,689.430927401248
31,689.4396837740242
32,689.450777350119
33,689.4642081823359
34,689.479967606672
35,689.4980377374978
36,689.5183910467896
37,689.540990044718
38,689.5657870748913
39,689.5927242320787
40,689.6217334039397
41,689.6527364315357
42,689.6856453776404
43,689.7203628890433
44,689.7567826393803
45,689.794789840963
46,689.8342618161407
47,689.875068620569
48,689.9170737127216
49,689.9601346664142
50,690.0041039252187
51,690.0488295975753
52,690.0941562883537
53,690.1399259582278
54,690.1859787990084
55,690.2321541122673
56,690.2782911799186
57,690.3242301181574
58,690.3698127097263
59,690.4148832130653
60,690.4592891489631
61,690.5028820647747
62,690.5455182739022
63,690.5870595658196
64,690.6273738804116
65,690.6663359399552
66,690.7038278332
67,690.7397395490794
68,690.7739694616698
69,690.8064247710756
70,690.8370219052991
71,690.8656868859678
72,690.8923556579541
73,690.9169743811285
74,690.9394996814445
75,690.9598988573173
76,690.9781500362773
77,690.9942422770522
78,691.0081756128099
79,691.0199610306039
80,691.029620379449
81,691.0371861958904
82,691.0427014333354
83,691.0462190815749
84,691.0478016665363
85,691.0475206268092
86,691.0454555713387
87,691.0416934300571
88,691.0363275148112
89,691.0294565112862
90,691.0211834233329
91,691.0116144888352
92,691.0008580821941
93,690.9890236155837
94,690.9762204512468
95,690.9625568392817
96,690.9481388973998
97,690.9330696498599
98,690.9174481426062
99,690.9013686515806
100,690.8849200017816
101,690.8681850149547
102,690.8512401018689
103,690.8341550100811
104,690.8169927311774
105,690.7998095643156
106,690.7826553262548
107,690.7655736925448
108,690.748602650791
109,690.7317750446219
110,690.7151191851204
111,690.6986595050702
112,690.6824172320893
113,690.6664110608167
114,690.6506578103881
115,690.6351730584553
116,690.619971745184
117,690.605068740474
118,690.5904793665569
119,690.5762198675986
120,690.5623078188921
121,690.5487624706429
122,690.5356050244661
123,690.5228588436524
124,690.5105496000255
125,690.49870535963
126,690.4873566065569
127,690.4765362012278
128,690.466279269504
129,690.4566230227521
130,690.447606513954
131,690.4392703378907
132,690.4316562833872
133,690.4248069438927
134,690.41876529084
135,690.4135742129213
136,690.4092760234463
137,690.4059119371852
138,690.4035215181486
139,690.4021421018731
140,690.4018082006361
141,690.4025509066217
142,690.404397313792
143,690.407369981232
144,690.4114864580938
145,690.416758884974
146,690.4231936816986
147,690.4307913277657
148,690.4395462375426
149,690.4494467273595
150,690.4604750681275
151,690.4726076166675
152,690.4858150203133
153,690.5000624905936
154,690.5153101423399
155,690.5315133942715
156,690.548623425624
157,690.5665876811377
158,690.5853504148399
159,690.6048532625421
160,690.6250358337765
161,690.6458363144941
162,690.6671920708384
163,690.689040242597
164,690.7113183149202
165,690.7339646598073
166,690.7569190433024
167,690.7801230975193
168,690.8035207570169
169,690.8270586576799
170,690.8506864948586
171,690.8743573366188
172,690.8980278874341
173,690.9216586978729
174,690.9452143170276
175,690.9686633860447
176,690.9919786722882
177,691.0151370437659
178,691.0381193822408
179,691.0609104315065
180,691.0834985757754
181,691.1058755427968
182,691.1280360274505
183,691.1499772345908
184,691.171698345209
185,691.1931999164896
186,691.2144832315505
187,691.2355496169156
188,691.2563997460569
189,691.277032947828
190,691.2974465392963
191,691.3176352014777
192,691.3375904131784
193,691.3572999542539
194,691.3767474865688
195,691.3959122182974
196,691.4147686539992
197,691.433286429188
198,691.4514302247051
199,691.4691597537268
200,691.4864298128226
201,691.503190388039
202,691.5193868077422
203,691.5349599361787
204,691.5498464051179
205,691.5639788846739
206,691.5772863973797
207,691.5896946809315
208,691.6011266048886
209,691.6115026463495
210,691.6207414298935
211,691.6287603362152
212,691.635476179608
213,691.6408059470909
214,691.644667585069
215,691.6469808164862
216,691.647667972831
217,691.6466548286244
218,691.6438714288847
219,691.6392529021799
220,691.6327402540658
221,691.6242811380368
222,691.6138306021213
223,691.6013518069223
224,691.586816704987
225,691.5702066643897
226,691.5515130148402
227,691.5307374940634
228,691.5078925746656
229,691.4830016557077
230,691.4560991083919
231,691.4272301716604
232,691.3964507002463
233,691.3638267736629
234,691.329434179563
235,691.2933577894056
236,691.2556908483886
237,691.2165342036919
238,691.1759954937722
239,691.1341883173532
240,691.0912313959933
241,691.0472477397083
242,691.0023638206507
243,690.9567087555967
244,690.9104134954284
245,690.863610019548
246,690.8164305340736
247,690.7690066735838
248,690.7214687071901
249,690.673944751804
250,690.6265599991833
251,690.5794359678599
252,690.5326897943679
253,690.4864335784417
254,690.4407737939266
255,690.3958107730342
256,690.3516382686565
257,690.3083430978472
258,690.2660048673298
259,690.2246957785085
260,690.184480507419
261,690.1454161563653
262,690.1075522770724
263,690.0709309670871
264,690.0355870409771
265,690.0015482764618
266,689.9688357330215
267,689.9374641358281
268,689.9074423114099
269,689.8787736564152
270,689.8514566204279
271,689.8254851878529
272,689.8008493491675
273,689.7775355553024
274,689.7555271499813
275,689.73480477475
276,689.715346741525
277,689.6971293685001
278,689.6801272771384
279,689.6643136499837
280,689.6496604504276
281,689.636138606661
282,689.6237181636302
283,689.6123684083066
284,689.6020579733809
285,689.5927549226022
286,689.5844268193703
287,689.5770407802352
288,689.5705635160166
289,689.5649613639442
290,689.5602003143208
291,689.5562460355972
292,689.553063903133
293,689.5506190386823
294,689.5488763678952
295,689.5478007004812
296,689.547356833353
297,689.5475096737689
298,689.5482243781539
299,689.5494665015473
300,689.5512021512473
301,689.5533981368043
302,689.556022108723
303,689.5590426806663
304,689.5624295333909
305,689.5661535013348
306,689.5701866439077
307,689.574502303427
308,689.5790751508656
309,689.5838812193647
310,689.5888979243441
311,689.5941040690705
312,689.5994798362412
313,689.6050067689409
314,689.610667747303
315,689.616446969304
316,689.6223299439885
317,689.6283035026019
318,689.6343558288457
319,689.6404765054971
320,689.6466565716148
321,689.6528885825941
322,689.6591666651093
323,689.6654865609025
324,689.6718456559755
325,689.678242992665
326,689.6846792606019
327,689.691156760376
328,689.6976793330424
329,689.704252249502
330,689.7108820544576
331,689.7175763593859
332,689.7243435793722
333,689.7311926114586
334,689.7381324572851
335,689.7451717984595
336,689.7523185370469
337,689.7595793146945
338,689.7669590231299
339,689.7744603179214
340,689.7820831475558
341,689.7898243112917
342,689.7976770616659
343,689.8056307698694
344,689.8136706724435
345,689.8217777144094
346,689.829928497535
347,689.8380953351299
348,689.8462464090115
349,689.854346021837
350,689.8623549387829
351,689.8702308147385
352,689.8779287047545
353,689.8854016554159
354,689.8926013726623
355,689.8994789571456
356,689.9059856922247
357,689.9120738641051
358,689.9176975901958
359,689.9228136304548
360,689.9273821561727
361,689.9313674509999
362,689.9347385209994
363,689.937469594617
364,689.9395404984784
365,689.9409368989601
366,689.9416504018926
367,689.9416785045053
368,689.9410243965211
369,689.9396966124996
370,689.93770854482
371,689.9350778340691
372,689.9318256589844
373,689.9279759508124
374,689.9235545572449
375,689.9185883796284
376,689.9131045049015
377,689.9071293517079
378,689.9006878490078
379,689.8938026653487
380,689.886493507524
381,689.8787765078331
382,689.8706637182904
383,689.8621627274297
384,689.8532764118404
385,689.8440028313142
386,689.8343352730616
387,689.8242624455208
388,689.8137688151147
389,689.8028350712682
390,689.7914386989349
391,689.7795546355677
392,689.7671559904168
393,689.7542148068189
394,689.7407028517891
395,689.7265924211783
396,689.7118571525623
397,689.6964728414475
398,689.6804182581143
399,689.6636759610751
400,689.6462330995273
401,689.6280821944466
402,689.6092218879554
403,689.5896576517193
404,689.5694024450784
405,689.5484773121198
406,689.5269119047562
407,689.504744916627
408,689.4820244111621
409,689.4588080273095
410,689.4351630475098
411,689.4111663128199
412,689.3869039697715
413,689.3624710349197
414,689.3379707679302
415,689.3135138519788
416,689.2892173892847
417,689.2652037282236
418,689.2415991457206
419,689.218532413612
420,689.1961332800131
421,689.1745308970766
422,689.1538522257426
423,689.1342204464928
424,689.1157534031365
425,689.0985621050135
426,689.0827493117118
427,689.0684082223577
428,689.0556212879793
429,689.0444591614136
430,689.0349797966256
431,689.0272277089659
432,689.0212334084163
433,689.0170130170267
434,689.0145680786986
435,689.0138855651091
436,689.0149380766891
437,689.0176842324374
438,689.0220692376238
439,689.0280256150993
440,689.0354740841792
441,689.0443245697543
442,689.0544773219538
443,689.0658241232221
444,689.0782495570571
445,689.0916323130214
446,689.1058465058178
447,689.1207629899195
448,689.1362506539577
449,689.152177681676
450,689.1684127702497
451,689.1848263017527
452,689.2012914672952
453,689.2176853440044
454,689.2338899226386
455,689.2497930799369
456,689.2652894870492
457,689.2802814452997
458,689.2946796434817
459,689.3084038355832
460,689.3213834424073
461,689.3335580838335
462,689.3448780501072
463,689.3553047201792
464,689.3648109323659
465,689.3733813076525
466,689.3810125199503
467,689.3877135021103
468,689.3935055725369
469,689.3984224652655
470,689.4025102465994
471,689.4058271037824
472,689.408442994736
473,689.4104391512043
474,689.4119074302845
475,689.412949512309
476,689.4136759475141
477,689.4142050597707
478,689.4146617219961
479,689.4151760243619
480,689.4158818630916
481,689.416915483713
482,689.4184140159152
483,689.4205140356172
484,689.4233501836413
485,689.4270538621726
486,689.4317520228078
487,689.4375660543444
488,689.4446107738268
489,689.4529935201908
490,689.4628133461299
491,689.4741603009251
492,689.4871147954335
493,689.5017470402832
494,689.518116549281
495,689.5362717023453
496,689.5562493662665
497,689.5780745763585
498,689.6017602858567
499,689.6273071918068
500,689.654703646179
501,689.6839256591797
502,689.7149369987503
503,689.7476893870567
504,689.7821227923205
505,689.8181658129039
506,689.8557361500847
507,689.8947411659927
508,689.9350785226485
509,689.9766368961788
510,690.0192967579112
511,690.0629312129772
512,690.1074068881754
513,690.1525848631348
514,690.1983216400033
515,690.2444701455009
516,690.2908807562021
517,690.3374023360608
518,690.3838832761147
519,690.4301725288685
520,690.476120631647
521,690.5215807132505
522,690.5664094774878
523,690.610468156677
524,690.6536234282236
525,690.6957482878886
526,690.736722874726
527,690.7764352450611
528,690.8147820953715
529,690.8516694349223
530,690.8870132082814
531,690.9207398670576
532,690.9527868904768
533,690.9831032540317
534,691.0116498417187
535,691.038399790535
536,691.0633387500368
537,691.0864650389459
538,691.1077896852329
539,691.1273363425948
540,691.145141081478
541,691.1612520556283
542,691.1757290466584
543,691.1886428910406
544,691.2000747970735
545,691.2101155630259
546,691.2188647102417
547,691.226429545296
548,691.23292416373
549,691.2384684060902
550,691.2431867762001
551,691.2472073318513
552,691.2506605584774
553,691.2536782359942
554,691.256392307922
555,691.2589337608108
556,691.2614315208295
557,691.2640113722815
558,691.2667948999642
559,691.2698984562761
560,691.273432157466
561,691.2774989209806
562,691.2821935641351
563,691.2876019898144
564,691.2938004854051
565,691.3008551558843
566,691.3088215022608
567,691.3177441460356
568,691.3276566932323
569,691.338581729571
570,691.3505309398608
571,691.3635053467767
572,691.3774956650612
573,691.3924827663367
574,691.4084382471707
575,691.4253250891074
576,691.4430983948047
577,691.4617061804387
578,691.4810902025006
579,691.5011867978357
580,691.5219277192463
581,691.5432409542238
582,691.5650515199645
583,691.5872822329808
584,691.6098544563863
585,691.6326888316732
586,691.6557060027463
587,691.6788273372648
588,691.7019756454798
589,691.7250758921658
590,691.7480558942124
591,691.7708469948988
592,691.7933847051974
593,691.8156093018015
594,691.8374663702446
595,691.8589072795355
596,691.8798895727324
597,691.9003772560385
598,691.9203409677449
599,691.9397580089043
600,691.9586122208835
601,691.9768937002906
602,691.9945983484553
603,692.0117272606357
604,692.0282859686756
605,692.0442835581523
606,692.0597316861566
607,692.0746435294272
608,692.0890326955714
609,692.1029121322242
610,692.1162930686966
611,692.1291840209508
612,692.141589884441
613,692.1535111322684
614,692.1649431296881
615,692.1758755711463
616,692.1862920431648
617,692.1961697153666
618,692.2054791621676
619,692.2141843186133
620,692.2222425746537
621,692.2296050115726
622,692.2362167817765
623,692.2420176297755
624,692.2469425493974
625,692.2509225703782
626,692.2538856659392
627,692.2557577709294
628,692.2564638967111
629,692.255929324421
630,692.2540808542662
631,692.250848086305
632,692.2461647071854
633,692.2399697567953
634,692.2322088490491
635,692.2228353226388
636,692.2118113002189
637,692.1991086374907
638,692.1847097468702
639,692.1686082836618
640,692.1508096848555
641,692.1313315512656
642,692.1102038642244
643,692.087469030298
644,692.0631817511692
645,692.0374087191971
646,692.0102281419337
647,691.9817291028432
648,691.9520107719376
649,691.9211814878194
650,691.8893577385621
651,691.8566630699577
652,691.8232269457263
653,691.7891835786239
654,691.7546707478198
655,691.7198286173317
656,691.6847985708349
657,691.6497220780988
658,691.614739607484
659,691.5799895975622
660,691.5456074982928
661,691.5117248875302
662,691.4784686624358
663,691.4459602993486
664,691.414315171467
665,691.383641911627
666,691.3540418065903
667,691.3256082093008
668,691.298425957923
669,691.2725707962962
670,691.2481087986847
671,691.2250958098472
672,691.2035769172087
673,691.183585974441
674,691.1651451957214
675,691.1482648387885
676,691.1329429938027
677,691.1191654941201
678,691.1069059635911
679,691.0961260117625
680,691.0867755833222
681,691.0787934624674
682,691.0721079273721
683,691.0666375438634
684,691.0622920805474
685,691.0589735216199
686,691.056577150529
687,691.0549926781284
688,691.0541053921429
689,691.053797309468
690,691.0539483183123
691,691.0544373030349
692,691.0551432491965
693,691.0559463274582
694,691.0567289521525
695,691.0573768064157
696,691.0577798234976
697,691.0578331129042
698,691.0574378179925
699,691.0565018876598
700,691.0549407410666
701,691.0526778041653
702,691.0496449009687
703,691.0457824887599
704,691.0410397324355
705,691.0353744188529
706,691.0287527187014
707,691.0211488110391
708,691.0125443921709
709,691.0029280937885
710,690.9922948353901
711,690.9806451349164
712,690.9679844003942
713,690.9543222236454
714,690.939671694723
715,690.9240487538478
716,690.9074715967073
717,690.8899601480756
718,690.8715356165491
719,690.8522201392916
720,690.8320365205363
721,690.8110080620788
722,690.7891584785574
723,690.7665118849608
724,690.743092839065
725,690.7189264187775
726,690.6940383150682
727,690.6684549255485
728,690.6422034405085
729,690.6153119200736
730,690.5878093660066
731,690.5597257932493
732,690.5310923045697
733,690.5019411679951
734,690.4723058929212
735,690.4422212980267
736,690.4117235625353
737,690.3808502515332
738,690.3496403058891
739,690.3181339888148
740,690.2863727855308
741,690.2543992594908
742,690.222256875271
743,690.1899898011027
744,690.1576427020568
745,690.1252605300926
746,690.0928883123651
747,690.0605709358482
748,690.0283529247978
749,689.9962782080194
750,689.9643898752938
751,689.9327299256618
752,689.9013390130422
753,689.8702561957718
754,689.8395186959549
755,689.809161672685
756,689.7792180115856
757,689.7497181332108
758,689.7206898252583
759,689.6921581072451
760,689.6641451394944
761,689.6366701896386
762,689.6097496689601
763,689.5833972483581
764,689.5576240605321
765,689.5324389913601
766,689.5078490584242
767,689.4838598675556
768,689.4604761306067
769,689.437702222056
770,689.4155427494954
771,689.3940031125754
772,689.3730900259435
773,689.3528119843403
774,689.3331796517843
775,689.3142061603971
776,689.2959073079716
777,689.2783016484705
778,689.2614104768235
779,689.2452577169822
780,689.229869727964
781,689.2152750457343
782,689.2015040799115
783,689.1885887846898
784,689.1765623235491
785,689.1654587461834
786,689.1553126923416
787,689.1461591315237
788,689.1380331420912
789,689.1309697298017
790,689.125003683128
791,689.1201694597736
792,689.1165010961101
793,689.1140321294308
794,689.1127955210109
795,689.1128235658962
796,689.1141477751171
797,689.1167987192854
798,689.1208058284271
799,689.1261971490642
800,689.1329990639812
801,689.1412359824986
802,689.1509300108155
803,689.1621006143996
804,689.1747642870378
805,689.1889342422288
806,689.2046201406513
807,689.2218278629334
808,689.2405593325394
809,689.2608123915593
810,689.2825807315866
811,689.3058538796226
812,689.3306172340349
813,689.3568521402533
814,689.3845359928289
815,689.4136423507455
816,689.4441410558981
817,689.4759983485408
818,689.5091769762778
819,689.5436362949256
820,689.5793323622073
821,689.6162180291175
822,689.654243036662
823,689.6933541257035
824,689.7334951658358
825,689.7746073079029
826,689.8166291649168
827,689.8594970268396
828,689.9031451143225
829,689.9475058739166
830,689.9925103129153
831,690.0380883676459
832,690.08416929604
833,690.1306820837269
834,690.1775558527308
835,690.2247202637484
836,690.2721059068607
837,690.3196446797853
838,690.3672701551012
839,690.4149179369557
840,690.4625260040643
841,690.5100350311823
842,690.5573886774243
843,690.6045338277271
844,690.651420773331
845,690.6980033179584
846,690.7442387979471
847,690.7900880070273
848,690.8355150204169
849,690.8804869190909
850,690.9249734228509
851,690.9689464481901
852,691.0123796116459
853,691.0552477004355
854,691.0975261311382
855,691.1391904167272
856,691.1802156633843
857,691.2205761197224
858,691.2602448005293
859,691.2991932049946
860,691.3373911467194
861,691.3748067100661
862,691.4114063436976
863,691.4471550965162
864,691.482016994022
865,691.5159555459736
866,691.5489343703161
867,691.5809179135559
868,691.6118722437603
869,691.6417658896485
870,691.6705706982978
871,691.6982626842686
872,691.724822843335
873,691.7502379039412
874,691.7745009893506
875,691.7976121643717
876,691.8195788438588
877,691.8404160460476
878,691.860146480722
879,691.8788004687171
880,691.8964156950159
881,691.9130368028909
882,691.9287148412305
883,691.9435065817505
884,691.9574737274477
885,691.9706820371778
886,691.9832003913652
887,691.9950998197473
888,692.0064525058484
889,692.0173307783539
890,692.0278060990374
891,692.0379480595496
892,692.0478234025757
893,692.057495084864
894,692.067021400073
895,692.0764551782146
896,692.0858430757822
897,692.0952249673699
898,692.1046334472495
899,692.1140934488706
900,692.1236219907969
901,692.133228056962
902,692.1429126154092
903,692.152668773692
904,692.1624820640506
905,692.1723308494034
906,692.1821868409012
907,692.1920157167692
908,692.2017778294407
909,692.2114289845273
910,692.2209212725892
911,692.2302039339845
912,692.2392242382418
913,692.2479283618436
914,692.2562622516555
915,692.264172464995
916,692.2716069805199
917,692.2785159763757
