frame_number,force
0,497.96235728752384
1,497.93047263123907
2,497.897780872074
3,497.86433160991663
4,497.8301799194573
5,497.7953863026847
6,497.7600165957154
7,497.7241418258586
8,497.68783801725783
9,497.651185945092
10,497.6142708385704
11,497.57718203256803
12,497.5400125677889
13,497.5028587400979
14,497.4658196007081
15,497.4289964101015
16,497.3924920503201
17,497.35641040268166
18,497.32085570009156
19,497.28593186383915
20,497.25174183414083
21,497.2183869026998
22,497.18596605470793
23,497.15457532663856
24,497.1243071846191
25,497.09524992650285
26,497.06748710960477
27,497.0410970058669
28,497.01615208708597
29,496.99271854441736
30,496.97085584792455
31,496.9506163527071
32,496.9320449576951
33,496.9151788218963
34,496.9000471417198
35,496.88667099259385
36,496.8750632379751
37,496.86522850820893
38,496.8571632504781
39,496.8508558497578
40,496.84628681957435
41,496.8434290604696
42,496.842248183322
43,496.8427028938468
44,496.84474543349484
45,496.84832207070025
46,496.85337363546364
47,496.8598360901589
48,496.86764113033126
49,496.8767168104432
50,496.88698819010995
51,496.8983779959779
52,496.91080729329076
53,496.92419615972256
54,496.9384643526297
55,496.9535319599
56,496.9693200243221
57,496.98575113191174
58,497.0027499560024
59,497.02024375111927
60,497.0381627933543
61,497.05644076661645
62,497.0750150961795
63,497.09382723183984
64,497.1128228826679
65,497.1319522044359
66,497.15116993989
67,497.17043551100824
68,497.1897130612026
69,497.2089714447007
70,497.22818416063177
71,497.24732923037885
72,497.26638901804375
73,497.2853499954149
74,497.30420245499994
75,497.3229401773578
76,497.34156006142615
77,497.36006172804275
78,497.37844710716735
79,497.3967200187443
80,497.41488575612186
81,497.432950679652
82,497.45092182671306
83,497.4688065431729
84,497.4866121402286
85,497.5043455794841
86,497.52201318829844
87,497.53962040742346
88,497.55717157375824
89,497.5746697418053
90,497.59211654711896
91,497.6095121134432
92,497.6268550028806
93,497.64414220615276
94,497.6613691684847
95,497.6785298459838
96,497.69561678727166
97,497.7126212354125
98,497.72953324590225
99,497.74634181742084
100,497.76303503285936
101,497.7796002088267
102,497.7960240525901
103,497.81229282579403
104,497.82839251349804
105,497.84430899493276
106,497.86002820977984
107,497.8755363120141
108,497.89081980337977
109,497.9058656406031
110,497.92066131366005
111,497.93519489554
112,497.9494550660936
113,497.96343111351433
114,497.9771129170857
115,497.99049091455214
116,498.0035560572333
117,498.0162997557459
118,498.0287138187255
119,498.04079038652577
120,498.0525218620683
121,498.06390084195635
122,498.0749200520856
123,498.08557229246037
124,498.0958503950484
125,498.10574719628113
126,498.1152555231423
127,498.12436818997895
128,498.13307800294666
129,498.14137777003793
130,498.149260315899
131,498.1567185015128
132,498.16374524946855
133,498.17033357608926
134,498.17647663179207
135,498.18216775047176
136,498.1874005077882
137,498.19216878758976
138,498.1964668554093
139,498.20028943769705
140,498.203631805283
141,498.20648986007427
142,498.20886022534046
143,498.21074034136467
144,498.21212856887865
145,498.21302430239433
146,498.2134280946324
147,498.21334179180326
148,498.2127686774067
149,498.21171361989303
150,498.21018321797624
151,498.20818593732844
152,498.2057322335896
153,498.2028346581327
154,498.19950794394606
155,498.1957690690421
156,498.19163729435655
157,498.18713417277866
158,498.1822835262746
159,498.1771113891311
160,498.171645916871
161,498.1659172619198
162,498.1599574182822
163,498.1538000382948
164,498.14748022518
165,498.1410343057714
166,498.13449958824316
167,498.1279141098586
168,498.12131637973033
169,498.11474512141325
170,498.1082390196401
171,498.1018364742759
172,498.095575362502
173,498.0894928079496
174,498.0836249538317
175,498.0780067362103
176,498.0726716529613
177,498.0676515238777
178,498.06297623839197
179,498.0586734898187
180,498.0547684981161
181,498.0512837259881
182,498.04823859506695
183,498.045649209726
184,498.04352809613766
185,498.0418839641396
186,498.0407214994103
187,498.040041192732
188,498.039839211295
189,498.04010731468315
190,498.0408328162701
191,498.04199858955604
192,498.04358311832243
193,498.0455605892106
194,498.0479010253565
195,498.0505704600801
196,498.0535311503905
197,498.05674183089064
198,498.06015800900565
199,498.06373230214706
200,498.0674148165744
201,498.0711535663469
202,498.0748949287861
203,498.0785841304731
204,498.08216575573175
205,498.08558426875635
206,498.0887845414055
207,498.0917123806395
208,498.09431505150525
209,498.09654179250754
210,498.0983443197958
211,498.09967731528803
212,498.10049889269703
213,498.1007710353881
214,498.1004600010744
215,498.09953668962333
216,498.0979769712328
217,498.0957619734921
218,498.09287832772503
219,498.0893183766434
220,498.0850803457008
221,498.08016847991644
222,498.07459314723457
223,498.0683709089486
224,498.0615245570571
225,498.05408311774687
226,498.0460818200656
227,498.03756202933215
228,498.02857114536994
229,498.0191624657677
230,498.0093950141199
231,497.9993333328702
232,497.9890472401984
233,497.97861155021894
234,497.9681057552155
235,497.9576136676739
236,497.9472230192527
237,497.93702501439265
238,497.92711383788605
239,497.91758611752175
240,497.9085403442992
241,497.9000762535466
242,497.89229417062916
243,497.8852943250867
244,497.8791761373957
245,497.8740374832179
246,497.869973940885
247,497.8670780288988
248,497.86543844119734
249,497.86513928846296
250,497.8662593536655
251,497.86887136987224
252,497.8730413287481
253,497.8788278289832
254,497.88628147419365
255,497.89544432906905
256,497.90634944116897
257,497.91902043466183
258,497.93347118149984
259,497.9497055542883
260,497.9677172629548
261,497.9874897746689
262,498.0089963142114
263,498.0321999406788
264,498.0570536959487
265,498.0835008204171
266,498.11147503200067
267,498.1409008652811
268,498.1716940688644
269,498.20376205999537
270,498.23700443535665
271,498.27131353542984
272,498.3065750574562
273,498.3426687099974
274,498.37946890096015
275,498.4168454505688
276,498.4546643208635
277,498.49278835376487
278,498.53107801053403
279,498.5693921064975
280,498.6075885360664
281,498.64552498418317
282,498.68305962120735
283,498.72005177885967
284,498.7563626052045
285,498.79185569671597
286,498.82639770525134
287,498.859858917562
288,498.89211380521436
289,498.9230415434022
290,498.95252649780946
291,498.9804586794437
292,499.0067341682845
293,499.0312555071911
294,499.0539320670368
295,499.0746803824749
296,499.0934244560366
297,499.11009602724795
298,499.12463480312425
299,499.1369886464936
300,499.14711371926273
301,499.1549745790975
302,499.1605442294893
303,499.1638041239128
304,499.164744124574
305,499.1633624159393
306,499.1596653736403
307,499.15366739047676
308,499.1453906626652
309,499.1348649406655
310,499.12212724929725
311,499.1072215812939
312,499.0901985675715
313,499.0711151270364
314,499.0500340987115
315,499.0270238586847
316,499.00215792364725
317,498.97551454211566
318,498.9471762743894
319,498.9172295627671
320,498.88576429414553
321,498.85287335778276
322,498.818652201764
323,498.7831983924398
324,498.74661118171827
325,498.7089910875518
326,498.67043949319157
327,498.6310582706247
328,498.59094943275653
329,498.5502148170624
330,498.5089558007251
331,498.4672730443141
332,498.4252662586232
333,498.3830339879017
334,498.34067340249317
335,498.2982800946426
336,498.2559478726248
337,498.2137685501103
338,498.1718317297402
339,498.1302245822037
340,498.08903162442493
341,498.0483345023345
342,498.0082117848879
343,497.9687387762931
344,497.929987352645
345,497.89202582747896
346,497.85491884876325
347,497.8187273280036
348,497.78350840037456
349,497.7493154130852
350,497.71619793795566
351,497.6842018038149
352,497.65336914471806
353,497.6237384607317
354,497.5953446886908
355,497.56821928050607
356,497.5423902864629
357,497.5178824413394
358,497.4947172528065
359,497.4729130940415
360,497.45248530445804
361,497.4334463027289
362,497.4158057149516
363,497.399570519159
364,497.38474520662663
365,497.37133196056635
366,497.35933085275
367,497.3487400575183
368,497.33955608063906
369,497.331773998502
370,497.32538770192883
371,497.32039013859423
372,497.31677354844703
373,497.3145296873431
374,497.3136500351012
375,497.3141259850096
376,497.31594901221484
377,497.3191108185202
378,497.3236034511002
379,497.3294193924288
380,497.33655161837254
381,497.3449936214323
382,497.3547393968281
383,497.36578339010646
384,497.3781204057725
385,497.39174547731005
386,497.4066537002445
387,497.4228400314742
388,497.4402990593409
389,497.45902474946706
390,497.47901017158824
391,497.5002472129501
392,497.5227262842781
393,497.5464360241674
394,497.5713630065163
395,497.5974914538722
396,497.6248029584179
397,497.6532762122201
398,497.6828867487033
399,497.71360669779386
400,497.7454045582842
401,497.7782449928446
402,497.81208865266615
403,497.84689203882573
404,497.8826074062534
405,497.9191827146433
406,497.95656162936336
407,497.994683574209
408,498.03348383635034
409,498.07289372200427
410,498.1128407595772
411,498.1532489457916
412,498.1940390299394
413,498.23512883178586
414,498.2764335891383
415,498.31786633104684
416,498.35933827202086
417,498.40075922216585
418,498.44203800808185
419,498.4830828995445
420,498.52380203731843
421,498.5641038579637
422,498.60389751188876
423,498.643093270776
424,498.6816029198976
425,498.7193401303215
426,498.7562208061488
427,498.7921634028347
428,498.82708921386325
429,498.86092262411773
430,498.89359132914706
431,498.92502652043305
432,498.9551630378857
433,498.98393949194127
434,499.01129835836196
435,499.03718604874405
436,499.06155295890926
437,499.08435349634186
438,499.10554608729336
439,499.1250931642463
440,499.1429611347351
441,499.1591203327937
442,499.1735449547711
443,499.1862129821611
444,499.1971060950729
445,499.20620958028525
446,499.2135122374007
447,499.2190062860669
448,499.22268727690005
449,499.2245540082543
450,499.22460845005907
451,499.22285567503656
452,499.2193037971341
453,499.21396391688967
454,499.20685007335834
455,499.1979792019372
456,499.18737109688954
457,499.17504837681895
458,499.1610364512665
459,499.1453634873696
460,499.12806037688256
461,499.10916070520796
462,499.088700724955
463,499.06671933664535
464,499.04325807825046
465,499.0183611235465
466,498.9920752878829
467,498.96445003980875
468,498.9355375178721
469,498.9053925527655
470,498.8740726951004
471,498.84163824827624
472,498.8081523042718
473,498.77368077791266
474,498.7382924326424
475,498.7020588887444
476,498.6650546042866
477,498.6273568204501
478,498.5890454658427
479,498.550203017475
480,498.5109143182057
481,498.471266351648
482,498.4313479761941
483,498.39124962026
484,498.35106294135414
485,498.31088045226323
486,498.2707951182784
487,498.23089992973905
488,498.1912874543143
489,498.15204937344413
490,498.11327600729834
491,498.0750558327245
492,498.0374749991107
493,498.00061684767525
494,497.9645614401092
495,497.9293851027037
496,497.8951599921588
497,497.8619536891784
498,497.8298288256319
499,497.7988427506237
500,497.76904724033216
501,497.7404882558183
502,497.71320575191345
503,497.6872335389583
504,497.66259919816594
505,497.63932405107187
506,497.61742318356204
507,497.5969055247465
508,497.57777398040673
509,497.5600256201828
510,497.5436519172361
511,497.52863903862703
512,497.51496818373766
513,497.5026159665259
514,497.4915548352491
515,497.48175352089766
516,497.4731775037258
517,497.4657894866893
518,497.45954986528886
519,497.4544171844954
520,497.45034857435746
521,497.44730015656245
522,497.4452274152653
523,497.44408552730084
524,497.44382964934977
525,497.4444151625544
526,497.4457978780852
527,497.4479342093286
528,497.45078131699495
529,497.4542972328964
530,497.45844096727575
531,497.4631726038441
532,497.46845338602867
533,497.47424579716284
534,497.48051363634437
535,497.48722209043405
536,497.4943378013075
537,497.501828926278
538,497.50966518875686
539,497.5178179159753
540,497.52626006120545
541,497.53496620916366
542,497.5439125644736
543,497.5530769238948
544,497.56243863378984
545,497.57197853522706
546,497.58167889996923
547,497.59152336113414
548,497.6014968424337
549,497.61158548957434
550,497.62177660681874
551,497.632058601288
552,497.6424209375589
553,497.6528541053598
554,497.6633496034331
555,497.6738999425618
556,497.6844986700544
557,497.69514041669674
558,497.70582096562623
559,497.7165373410466
560,497.7272879131772
561,497.7380725144283
562,497.74889256090364
563,497.75975117325936
564,497.77065329123377
565,497.78160577593655
566,497.7926174929929
567,497.80369936839486
568,497.8148644081831
569,497.8261276735092
570,497.8375062044513
571,497.8490188888357
572,497.8606862755745
573,497.8725303349375
574,497.88457417014587
575,497.8968416857573
576,497.90935721925473
577,497.9221451435555
578,497.9352294494712
579,497.94863331791345
580,497.96237869173734
581,497.9764858565776
582,497.9909730388297
583,498.00585602730655
584,498.02114782373343
585,498.0368583268033
586,498.05299405509095
587,498.0695579150305
588,498.08654902040104
589,498.103962568653
590,498.12178977710283
591,498.1400178795275
592,498.1586301819489
593,498.17760617530314
594,498.1969217012853
595,498.2165491654771
596,498.2364577894981
597,498.2566138924868
598,498.27698119248754
599,498.29752112028314
600,498.3181931407432
601,498.33895507825883
602,498.3597634426807
603,498.380573751132
604,498.40134084022094
605,498.422019163077
606,498.4425630663526
607,498.4629270434816
608,498.48306596143846
609,498.5029352587167
610,498.52249111277484
611,498.5416905765928
612,498.56049168628516
613,498.57885354393545
614,498.59673638094023
615,498.6141016070754
616,498.6309118498333
617,498.6471309878011
618,498.6627241810046
619,498.6776579002835
620,498.6918999573631
621,498.70541953789905
622,498.71818724123597
623,498.7301751317503
624,498.7413568061667
625,498.7517074790714
626,498.7612040862979
627,498.7698254042243
628,498.7775521824402
629,498.784367286971
630,498.7902558506365
631,498.7952054262582
632,498.79920613788977
633,498.80225082531325
634,498.8043351775489
635,498.8054578519395
636,498.8056205763632
637,498.804828232905
638,498.8030889214715
639,498.8004140015342
640,498.7968181100388
641,498.79231915410844
642,498.786938278542
643,498.78069980965097
644,498.7736311778492
645,498.7657628212593
646,498.7571280716313
647,498.74776302243987
648,498.7377063775426
649,498.72699927784515
650,498.7156851034241
651,498.70380924929844
652,498.69141887401753
653,498.67856262134245
654,498.6652903167542
655,498.65165264218314
656,498.63770079377485
657,498.62348612842976
658,498.6090598054046
659,498.5944724294455
660,498.5797737014913
661,498.5650120819607
662,498.55023447057926
663,498.53548590618203
664,498.52080928990176
665,498.5062451350796
666,498.49183134666214
667,498.47760303170577
668,498.4635923411224
669,498.44982834144446
670,498.43633691474577
671,498.4231406852203
672,498.4102589719422
673,498.3977077682813
674,498.3854997488389
675,498.3736443047526
676,498.3621476083073
677,498.35101270834025
678,498.3402396587277
679,498.3298256826255
680,498.31976537444547
681,498.31005093974255
682,498.3006724709887
683,498.29161825549954
684,498.28287511096306
685,498.2744287437909
686,498.2662641252744
687,498.25836587994775
688,498.2507186799347
689,498.2433076389296
690,498.2361187000652
691,498.22913901298045
692,498.2223572963852
693,498.21576418283144
694,498.20935254203766
695,498.203117778327
696,498.1970580973635
697,498.1911747380325
698,498.18547216666593
699,498.17995823189375
700,498.17464427871874
701,498.1695452204429
702,498.16467956748994
703,498.1600694130802
704,498.15574037661514
705,498.1517215060116
706,498.1480451400509
707,498.14474673150124
708,498.1418646317379
709,498.1394398378058
710,498.1375157029808
711,498.13613761169694
712,498.1353526193241
713,498.1352090571043
714,498.13575610302
715,498.137043320646
716,498.1391201698181
717,498.1420354948561
718,498.1458369979859
719,498.15057070731984
720,498.1562804497215
721,498.16300733880024
722,498.1707892874696
723,498.1796605533943
724,498.189651324326
725,498.20078734883305
726,498.2130896163985
727,498.22657408923567
728,498.241251486354
729,498.25712711865316
730,498.27420077266396
731,498.2924666404422
732,498.3119132939822
733,498.33252370357934
734,498.3542752999454
735,498.377140079419
736,498.4010847511565
737,498.4260709257094
738,498.45205534582834
739,498.4789901614208
740,498.506823250088
741,498.53549858252035
742,498.564956629317
743,498.59513480375006
744,498.6259679340791
745,498.65738875881146
746,498.6893284380692
747,498.72171707353107
748,498.7544842283339
749,498.7875594372896
750,498.8208726974122
751,498.85435492961386
752,498.8879384047517
753,498.9215571304578
754,498.9551471979925
755,498.98864708948935
756,499.0219979454554
757,499.05514379155875
758,499.08803172396324
759,499.12061205412266
760,499.1528384161151
761,499.18466784086394
762,499.216060801278
763,499.24698123110477
764,499.2773965194003
765,499.30727748268816
766,499.33659831754704
767,499.3653365363166
768,499.3934728873469
769,499.42099125945015
770,499.44787856890053
771,499.4741246268242
772,499.4997219851453
773,499.524665760381
774,499.54895343625265
775,499.5725846477987
776,499.59556095101857
777,499.61788558290374
778,499.6395632172405
779,499.66059972198497
780,499.6810019240501
781,499.70077738646484
782,499.71993420087205
783,499.73848079564755
784,499.7564257575726
785,499.7737776642638
786,499.790544925866
787,499.8067356367733
788,499.8223574398689
789,499.83741740636276
790,499.8519219340643
791,499.8658766661409
792,499.87928643088753
793,499.8921552006894
794,499.90448606603525
795,499.9162812194184
796,499.9275419445837
797,499.93826860795286
798,499.9484606500476
799,499.9581165750618
800,499.9672339371084
801,499.9758093227418
802,499.9838383306487
803,499.9913155499184
804,499.9982345379293
805,500.00458779847
806,500.01036676077854
807,500.015561760434
808,500.0201620231077
809,500.024155652157
810,500.0275296210632
811,500.0302697715926
812,500.0323608181322
813,500.03378635804984
814,500.0345288876726
815,500.03456982411393
816,500.03388953454214
817,500.03246737552524
818,500.0302817450162
819,500.0273101486283
820,500.02352928073407
821,500.0189151199272
822,500.0134430378504
823,500.0070879206539
824,499.99982430302606
825,499.9916265150529
826,499.9824688420606
827,499.9723256975725
828,499.96117180961687
829,499.94898242035777
830,499.935733498117
831,499.9214019596536
832,499.9059658996606
833,499.8894048242178
834,499.87169988539404
835,499.8528341149899
836,499.83279265620826
837,499.81156299270185
838,499.7891351749559
839,499.7655020441562
840,499.740659453519
841,499.71460648663515
842,499.68734567181593
843,499.65888319074196
844,499.62922907897536
845,499.59839741522694
846,499.56640649580623
847,499.53327899041034
848,499.4990420750472
849,499.46372753698796
850,499.42737184504153
851,499.39001617677826
852,499.35170639380374
853,499.3124929575612
854,499.27243078091755
855,499.23157901369797
856,499.1900007625864
857,499.1477627476056
858,499.1049348990829
859,499.06158990022004
860,499.01780268054034
861,498.97364986519966
862,498.92920918583496
863,498.884558860561
864,498.8397769527847
865,498.7949407199169
866,498.7501259641921
867,498.70540639888276
868,498.6608530436093
869,498.6165336617379
870,498.5725122513211
871,498.52884859908943
872,498.4855979047949
873,498.44281048092597
874,498.4005315308035
875,498.35880100634836
876,498.31765354499333
877,498.27711848291636
878,498.2372199389964
879,498.1979769610902
880,498.159403724102
881,498.1215097683497
882,498.08430026689575
883,498.0477763115431
884,498.01193520901506
885,497.97677078159325
886,497.9422736701483
887,497.90843164118326
888,497.8752299017351
889,497.8426514259736
890,497.81067729584663
891,497.7792870565639
892,497.74845908663417
893,497.7181709812189
894,497.6883999464586
895,497.6591232014
896,497.63031838348144
897,497.6019639533222
898,497.5740395947471
