acceleration,velocity,displacement
-0.001735652519868662,0.0,0.0
-0.0023636781773995878,-1.0248326743170625e-06,-2.5620816857926565e-10
-0.003007601177959651,-2.367652513156872e-06,-1.1043294654477492e-09
-0.0036664445625520133,-4.036163948284788e-06,-2.7052835808081644e-09
-0.004339123536105788,-6.037555972949239e-06,-5.223713561116671e-09
-0.0050244464031447,-8.378448457761862e-06,-8.827714668794446e-09
-0.005721116402947934,-1.106483915928502e-05,-1.3688536573056165e-08
-0.0064277345249153,-1.4102051891250828e-05,-1.9980259335690126e-08
-0.007142803336806498,-1.7494686356681277e-05,-2.7879443897673153e-08
-0.007864731826184782,-2.1246570147429095e-05,-3.7564758023700744e-08
-0.008591841250474505,-2.5360713416593915e-05,-4.92165789147065e-08
-0.009322371998626478,-2.9839266728869162e-05,-6.301657395107227e-08
-0.010054491466610218,-3.468348259517834e-05,-7.914726128208415e-08
-0.010786302934143965,-3.9893681195366884e-05,-9.779155222972045e-08
-0.011515855409405966,-4.546922078125437e-05,-1.1913227772387577e-07
-0.012241154385044483,-5.140847322986698e-05,-1.4335170122665612e-07
-0.012960173414170351,-5.770880517967069e-05,-1.7063102082904055e-07
-0.013670866367368766,-6.436656512505548e-05,-2.011498634052221e-07
-0.014371180190073002,-7.137707676441591e-05,-2.3508577387758994e-07
-0.0150590679655499,-7.873463880332164e-05,-2.7261370276952434e-07
-0.01573250210106741,-8.643253131997596e-05,-3.139054953003487e-07
-0.016389487474318523,-9.446302871382245e-05,-3.591293853087983e-07
-0.01702807439389423,-0.00010281741918087564,-4.0844949728247285e-07
-0.0176463712486966,-0.00011148603059152334,-4.620253597255726e-07
-0.018242556752007606,-0.00012045826259169939,-5.200114330213783e-07
-0.018814891718770488,-0.00012972262470939392,-5.825566548466516e-07
-0.019361730337358884,-0.00013926678022342626,-6.498040060798566e-07
-0.019881530901071337,-0.0001490775955330338,-7.218901000189716e-07
-0.02037286594750323,-0.00015914119474517746,-7.989447975885245e-07
-0.02083443172278089,-0.0001694430191627485,-8.81090851065506e-07
-0.021265056857026312,-0.00017996789130770031,-9.684435786831181e-07
-0.02166371012237299,-0.00019070008305255013,-1.0611105722731807e-06
-0.022029507153623527,-0.00020162338737154926,-1.1591914398792056e-06
-0.022361716037271377,-0.00021272119316927297,-1.2627775850144111e-06
-0.02265976169751124,-0.00022397656260296863,-1.3719520239574715e-06
-0.02292322901586459,-0.0002353723102813126,-1.4867892421785419e-06
-0.02315186462340596,-0.00024689108369113026,-1.6073550906716526e-06
-0.023345577317152328,-0.00025851544417626984,-1.7337067226385026e-06
-0.0235044370762245,-0.00027022794777461405,-1.8658925706262235e-06
-0.02362867267942175,-0.0002820112252135256,-2.0039523638732582e-06
-0.02371866794789905,-0.0002938480603703558,-2.1479171852692288e-06
-0.023774956654237706,-0.00030572146652088996,-2.2978095669920403e-06
-0.02379821615404684,-0.0003176147597229611,-2.4536436235530033e-06
-0.02378925981254036,-0.00032951162871460793,-2.6154252206623954e-06
-0.023749028320250682,-0.0003413962007478057,-2.783152178027999e-06
-0.02367858001702041,-0.00035325310283212345,-2.9568145039229813e-06
-0.023579080362423656,-0.00036506751792698446,-3.1363946591127582e-06
-0.023451790692705397,-0.0003768252356907667,-3.321867847517196e-06
-0.02329805638697209,-0.0003885126974606861,-3.5132023308050594e-06
-0.023119294541998688,-0.0004001170351929288,-3.710359763968463e-06
-0.02291698124347384,-0.0004116261041392969,-3.913295548801519e-06
-0.022692638529100778,-0.0004230285090824406,-4.121959202106954e-06
-0.022447821160904786,-0.000434313624004942,-4.3362947353787994e-06
-0.022184103352876284,-0.00044547160513338726,-4.556241042663382e-06
-0.02190306562823945,-0.0004564933973786662,-4.781732293291395e-06
-0.02160628199980002,-0.00046737073428567604,-5.01269832620748e-06
-0.02129530767187541,-0.0004780961317035949,-5.249065042704798e-06
-0.0209716674521508,-0.0004886628754846014,-5.490754794501847e-06
-0.020636845034826042,-0.0004990650036063456,-5.7376867642745835e-06
-0.02029227327288145,-0.0005092972831832725,-5.989777335971988e-06
-0.019939325504106657,-0.0005193551828775195,-6.246940452487186e-06
-0.019579307943213064,-0.0005292348412393495,-6.509087958516404e-06
-0.019213453112004297,-0.0005389330315031538,-6.776129926702029e-06
-0.018842914262066926,-0.0005484471233466716,-7.047974965414485e-06
-0.018468760750914134,-0.0005577750420999169,-7.324530506776132e-06
-0.018091974350276777,-0.0005669152258752147,-7.605703073769915e-06
-0.017713446483188573,-0.000575866581083581,-7.891398525509615e-06
-0.017333976406787514,-0.0005846284368060749,-8.18152227998203e-06
-0.016954270381073194,-0.0005932004985030402,-8.475979513809307e-06
-0.01657494187805207,-0.0006015828015678215,-8.774675338827022e-06
-0.01619651288004754,-0.0006097756652573464,-9.077514955533313e-06
-0.01581941629545005,-0.0006177796475512208,-9.384403783735455e-06
-0.015443999494997388,-0.0006255955014988326,-9.695247570997968e-06
-0.015070528941151953,-0.0006332241336078699,-1.0009952479774643e-05
-0.0146991958404344,-0.0006406665648032666,-1.0328425154377427e-05
-0.014330122695920162,-0.0006479238944373552,-1.0650572769187583e-05
-0.013963370588602716,-0.000654997267758486,-1.0976303059736543e-05
-0.01359894698675134,-0.0006618878471523245,-1.1305524338464246e-05
-0.013236813876320384,-0.0006685967873680924,-1.163814549709435e-05
-0.012876896016611922,-0.0006751252148413254,-1.1974075997646706e-05
-0.012519089145581768,-0.0006814742111318739,-1.2313225854140005e-05
-0.012163267984637082,-0.0006876448004144286,-1.2655505607026581e-05
-0.011809293919927093,-0.0006936379408905697,-1.3000826292352831e-05
-0.01145702226134618,-0.0006994545199358879,-1.3349099407559445e-05
-0.011106309001684475,-0.0007050953527516456,-1.3700236875731328e-05
-0.010757017019599453,-0.0007105611842569665,-1.405415100998348e-05
-0.010409021686343565,-0.0007158526939334523,-1.4410754479531084e-05
-0.010062215836503158,-0.0007209705033141639,-1.4769960278842989e-05
-0.009716514047031253,-0.0007259151857850475,-1.5131681701117791e-05
-0.009371856153992485,-0.0007306872783353035,-1.5495832317147878e-05
-0.009028209942192328,-0.0007352872948593498,-1.586232596044654e-05
-0.008685572974254966,-0.0007397157405884616,-1.6231076719308492e-05
-0.008343973572139823,-0.0007439731272250603,-1.6601998936261874e-05
-0.008003471008995223,-0.0007480599883703441,-1.6975007215160726e-05
-0.00766415499931318,-0.0007519768948724213,-1.7350016435971418e-05
-0.0073261445884333365,-0.0007557244697693579,-1.7726941777131862e-05
-0.006989586544665456,-0.0007593034025526326,-1.810569874521236e-05
-0.006654653351625539,-0.0007627144625267054,-1.8486203211482193e-05
-0.006321540884227371,-0.0007659585110856685,-1.8868371454885286e-05
-0.005990465833282771,-0.0007690365127650461,-1.9252120210847964e-05
-0.005661662927709096,-0.0007719495449552941,-1.963736672527805e-05
-0.0053353819897254875,-0.0007746988061846528,-2.0024028813063036e-05
-0.005011884843627962,-0.0007772856228929912,-2.0412024920332447e-05
-0.004691442091044852,-0.0007797114546266593,-2.080127418971236e-05
-0.00437432978142815,-0.0007819778975947776,-2.1191696527767718e-05
-0.004060826048729696,-0.0007840866865523171,-2.158321267380449e-05
-0.00375120783621041,-0.0007860396950235522,-2.197574426919846e-05
-0.0034457478662365216,-0.0007878389339491639,-2.2369213926441637e-05
-0.0031447120112337115,-0.0007894865489185314,-2.276354529715856e-05
-0.002848357181942109,-0.0007909848162168254,-2.31586631384424e-05
-0.0025569297857930893,-0.0007923361379587591,-2.3554493376986295e-05
-0.0022706647467183906,-0.000793543036591887,-2.3950963170623956e-05
-0.001989785035425841,-0.0007946081490374231,-2.4348000967031283e-05
-0.0017145016402161165,-0.0007955342207063335,-2.474553655946722e-05
-0.0014450139068071454,-0.0007963240995930894,-2.5143501139542075e-05
-0.0011815101810215862,-0.0007969807306150465,-2.554182734709411e-05
-0.0009241686928952501,-0.0007975071503335257,-2.594044931733125e-05
-0.0006731586257859088,-0.000797906482163196,-2.633930272545543e-05
-0.00042864132334703746,-0.0007981819321504792,-2.673832482903385e-05
-0.000190771595455877,-0.0007983367853801799,-2.7137454508416514e-05
4.03009197603934e-05,-0.0007983744030491038,-2.7536632305523833e-05
0.000264430399082386,-0.0007982982202193931,-2.7935800461340958e-05
0.0004814735659360296,-0.0007981117442281385,-2.8334902952452843e-05
0.0006912886034446436,-0.0007978185536857933,-2.8733885526931324e-05
0.0008937343243092363,-0.0007974222979538548,-2.9132695739841236e-05
0.0010886696291455488,-0.0007969266969654912,-2.9531282988571072e-05
0.0012759532324795359,-0.0007963355412500849,-2.9929598548124968e-05
0.0014554435999314555,-0.0007956526920419822,-3.0327595606447984e-05
0.0016269990357823945,-0.0007948820813830537,-3.072522929980424e-05
0.0017904778804899144,-0.0007940277121539856,-3.1122456748188504e-05
0.0019457388025384066,-0.0007930936579832286,-3.151923709072281e-05
0.0020926411861199876,-0.000792084062986064,-3.191553152096513e-05
0.002231045628878717,-0.0007910031412823144,-3.231130332203222e-05
0.002360814574719547,-0.0007898551762314148,-3.2706517901410656e-05
0.0024818131087715367,-0.000788644519310542,-3.3101142825296146e-05
0.002593909930087269,-0.0007873755885508273,-3.349514785226149e-05
0.002696978499720517,-0.0007860528664433754,-3.3888504966010045e-05
0.002790898349053682,-0.0007846808972311818,-3.428118840692868e-05
0.002875556527438971,-0.0007832642835120587,-3.4673174702114495e-05
0.002950849162831858,-0.0007818076820894909,-3.5064442693514884e-05
0.0030166831057286247,-0.0007803157990223508,-3.5454973563792846e-05
0.0030729776368267196,-0.000778793383836712,-3.584475085950761e-05
0.003119666245347415,-0.0007772452228661685,-3.623376051118333e-05
0.003156698513064175,-0.0007756761316765656,-3.662199084981901e-05
0.0031840421516323423,-0.0007740909465103915,-3.700943261936575e-05
0.0032016852348727533,-0.0007724945146637653,-3.7396078984659287e-05
0.0032096386496189796,-0.0007708916836926423,-3.7781925534248386e-05
0.0032079387603093056,-0.0007692872893401602,-3.816697027750659e-05
0.003196650241374799,-0.0007676861420897392,-3.855121363536406e-05
0.0031758689856986352,-0.0007660930122829709,-3.893465842395724e-05
0.0031457249668200037,-0.0007645126137948412,-3.9317309830476694e-05
0.003106384931376965,-0.000762949586320292,-3.9699175380505475e-05
0.00305805482199757,-0.0007614084763819483,-4.0080264896181036e-05
0.0030009818605535496,-0.0007598937172113105,-4.0460590444579353e-05
0.0029354562397449777,-0.0007584096076862359,-4.084016627580374e-05
0.002861812372059145,-0.0007569602905332848,-4.1219008750358625e-05
0.002780429636269324,-0.0007555497300312027,-4.159713625549975e-05
0.002691732555297489,-0.000754181689483311,-4.197456911037838e-05
0.0025961903456200985,-0.0007528597087580816,-4.235132945993873e-05
0.0024943157993511126,-0.0007515870822218388,-4.272744115768371e-05
0.0023866634901672113,-0.0007503668373994592,-4.310292963758903e-05
0.002273827324326977,-0.0007492017146958356,-4.3477821775612854e-05
0.002156437481309627,-0.0007480941484944264,-4.385214574141042e-05
0.0020351568044248832,-0.0007470462499229928,-4.422593084101478e-05
0.0019106767148016337,-0.0007460597915431861,-4.459920735138132e-05
0.0017837127347868883,-0.0007451361941807889,-4.497200634781231e-05
0.001654999716000003,-0.0007442765160680922,-4.534435952537453e-05
0.0015252868707826429,-0.0007434814444213965,-4.57162990154969e-05
0.0013953327053874772,-0.000742751289527354,-4.608785719898409e-05
0.0012658999498841121,-0.0007420859813635361,-4.645906651670681e-05
0.0011377505696750995,-0.0007414850687336463,-4.682995927923111e-05
0.0010116409191796337,-0.0007409477208614327,-4.720056747662988e-05
0.0008883170576222485,-0.0007404727313672322,-4.757092258968704e-05
0.0007685102017022928,-0.0007400585245524011,-4.794105540366695e-05
0.0006529322570228973,-0.0007397031639377198,-4.831099582578948e-05
0.0005422713521813096,-0.0007394043630354188,-4.868077270753277e-05
0.0004371872881130591,-0.0007391594983753452,-4.9050413672885456e-05
0.0003383068128942344,-0.0007389656248500934,-4.9419944953691815e-05
0.00024621865267977246,-0.0007388194934836999,-4.978939123327526e-05
0.00016146827714308366,-0.0007387175717512442,-5.0158775499584e-05
8.455243875197326e-05,-0.0007386560665722705,-5.052811890916488e-05
1.5913580886229226e-05,-0.0007386309500673609,-5.0897440663324784e-05
-4.406575245602974e-05,-0.0007386379881102533,-5.1266757897869186e-05
-9.506835665018182e-05,-0.0007386727716375299,-5.1636085587806134e-05
-0.00013684750617588823,-0.0007387307506032364,-5.2005436468366326e-05
-0.0001692316451050613,-0.0007388072703910566,-5.23748209736149e-05
-0.00019212848055764708,-0.0007388976104224723,-5.274424719381828e-05
-0.00020552834568731597,-0.0007389970246290335,-5.3113720852581156e-05
-0.00020950673455607347,-0.0007391007833990944,-5.348324530458819e-05
-0.0002042259569635961,-0.0007392042165719744,-5.3852821554580956e-05
-0.00018993589882273127,-0.000739302757035921,-5.422244829798293e-05
-0.00016697389734164788,-0.0007393919844849621,-5.459212198336315e-05
-0.0001357637531421924,-0.0007394676688975831,-5.4961836896708785e-05
-9.681390675666393e-05,-0.0007395258133125578,-5.533158526726132e-05
-5.0714806444746596e-05,-0.0007395626954908582,-5.570135739446218e-05
1.8645129302640953e-06,-0.0007395749080642368,-5.607114179535095e-05
6.018063527243795e-05,-0.0007395593967771861,-5.644092537156131e-05
0.00012342076435211045,-0.0007395134964272799,-5.6810693594862425e-05
0.00019070853886033829,-0.0007394349641014768,-5.718043070999461e-05
0.0002611106734706439,-0.000739322009298394,-5.7550119953344576e-05
0.0003336444211966313,-0.0007391733205247272,-5.791974378580036e-05
0.0004072858253990367,-0.0007389880879630782,-5.828928413792231e-05
0.0004809786909456158,-0.000738766021833992,-5.8658722665371575e-05
0.0005536441568044963,-0.0007385073661220546,-5.9028041012360586e-05
0.000624190711528668,-0.0007382129074049713,-5.9397221080742344e-05
0.0006915244775051074,-0.0007378839786077128,-5.976624530224551e-05
0.0007545596068067188,-0.0007375224575866348,-6.01350969112941e-05
0.0008122286700129781,-0.0007371307605174299,-6.050376021582012e-05
0.0008634929573408887,-0.0007367118301105914,-6.087222086347712e-05
0.0009073526298088856,-0.000736269118713804,-6.124046610068321e-05
0.0009428566501016727,-0.0007358065663938264,-6.160848502196012e-05
0.0009691123970602563,-0.0007353285741320359,-6.197626880709158e-05
0.000985294844889869,-0.0007348399723215484,-6.234381094370498e-05
0.00099065518756716,-0.0007343459848134341,-6.271110743298872e-05
0.0009845288100342351,-0.0007338521888140338,-6.30781569763956e-05
0.0009663425328088533,-0.000733364470978323,-6.344496114134369e-05
0.0009356210760130995,-0.0007328889800761175,-6.38115245041073e-05
0.0008919927135521981,-0.0007324320766287261,-6.417785476828352e-05
0.0008351941252898569,-0.0007320002799190156,-6.454396285742046e-05
0.0007650744871451501,-0.0007316002127659069,-6.490986298059169e-05
0.0006815988462239919,-0.0007312385444325646,-6.527557266989131e-05
0.0005848508158057988,-0.0007309219320170572,-6.564111278900371e-05
0.0004750346111907846,-0.000730656960660308,-6.600650751217305e-05
0.0003524764368327913,-0.0007304500828983022,-6.63717842730627e-05
0.0002176252221399561,-0.000730307557483559,-6.673697368315817e-05
7.105269008360571e-05,-0.0007302353880055031,-6.710210941953044e-05
-8.654725985745253e-05,-0.0007302392616479466,-6.74672280819438e-05
-0.00025435986331049065,-0.0007303244884287386,-6.783236901946297e-05
-0.00043145149548178756,-0.0007304959412684367,-6.819757412688726e-05
-0.0006167723644739185,-0.0007307579972334257,-6.856288761151273e-05
-0.0008091598944147698,-0.0007311144802981479,-6.892835573089563e-05
-0.0010073428057654672,-0.0007315686059731929,-6.929402650246346e-05
-0.001209945903868074,-0.0007321229281506013,-6.965994938599441e-05
-0.001415495590138265,-0.0007327792885241029,-7.002617494016309e-05
-0.0016224261210421023,-0.000733538768951898,-7.039275445453209e-05
-0.0018290866588932134,-0.0007344016471468818,-7.075973955855679e-05
-0.002033749170847275,-0.0007353673561043169,-7.112718180936959e-05
-0.0022346172213661723,-0.0007364344477023703,-7.149513226032126e-05
-0.002429835671534816,-0.0007376005609255955,-7.186364101247825e-05
-0.0026175012632343,-0.0007388623951592877,-7.223275675149947e-05
-0.002795674039064277,-0.0007402156889848623,-7.260252627253551e-05
-0.0029623895323278994,-0.0007416552048777104,-7.297299399600116e-05
-0.0031156716544845425,-0.0007431747201744136,-7.334420147726419e-05
-0.003253546204446907,-0.0007447670246391464,-7.371618691346758e-05
-0.0033740549170913183,-0.000746423924919531,-7.408898465085725e-05
-0.003475269955199947,-0.0007481362561376038,-7.446262469612154e-05
-0.0035553087315997114,-0.0007498939008093037,-7.483713223535827e-05
-0.003612348927979334,-0.0007516858152241985,-7.521252716436664e-05
-0.003644643557681123,-0.0007535000633456135,-7.55888236340091e-05
-0.003650535909524986,-0.000755323858212415,-7.59660296143986e-05
-0.0036284742112135484,-0.0007571436107425997,-7.634414648163735e-05
-0.003577025854166795,-0.0007589449857589447,-7.672316863076273e-05
-0.0034948910138420212,-0.000760712964975947,-7.710308311844645e-05
-0.003380915483640085,-0.0007624319166003175,-7.748386933884051e-05
-0.003234102534324194,-0.0007640856711048086,-7.78654987357668e-05
-0.003053623626169396,-0.000765657602644932,-7.824793455420423e-05
-0.0028388278280519555,-0.0007671307155084873,-7.863113163374259e-05
-0.002589249819483696,-0.0007684877349203712,-7.901503624634981e-05
-0.002304616367420166,-0.0007697112014670972,-7.939958598044668e-05
-0.0019848511939406714,-0.0007707835683574374,-7.978470967290281e-05
-0.0016300781933401326,-0.0007716873007042577,-8.017032739016823e-05
-0.0012406230094574025,-0.0007724049760049571,-8.055635045934552e-05
-0.0008170130284010051,-0.0007729193850144217,-8.094268154960037e-05
-0.00035997586771137254,-0.0007732136322384498,-8.132921480391358e-05
0.0001295635479256165,-0.0007732712353183962,-8.17158360208028e-05
0.0006504872360153763,-0.000773076222622411,-8.210242288528799e-05
0.0012014896517041228,-0.0007726132284004812,-8.248884524804372e-05
0.0017810843678363287,-0.000771867584895596,-8.287496545136774e-05
0.0023876119016634357,-0.0007708254108282211,-8.32606387002987e-05
0.003019248669294333,-0.0007694736956854817,-8.364571347692713e-05
0.0036740170467981902,-0.0007678003792564585,-8.403003199566262e-05
0.004349796486312076,-0.0007657944258731809,-8.441343069694503e-05
0.005044335589401526,-0.0007634458928542525,-8.479574077662689e-05
0.005755264999820332,-0.0007607459927069471,-8.517678874801719e-05
0.006480110955401851,-0.0007576871487181416,-8.555639703337346e-05
0.007216309331317109,-0.0007542630436464618,-8.593438458146461e-05
0.007961220008857349,-0.0007504686613114182,-8.631056750770408e-05
0.008712141412941972,-0.0007463003209559684,-8.668475975327093e-05
0.009466325077122433,-0.0007417557043334523,-8.705677375959328e-05
0.010220990115302765,-0.000736833875535346,-8.742642115456047e-05
0.010973337502302857,-0.0007315352936309446,-8.779351344685204e-05
0.011720564087076783,-0.0007258618182335996,-8.815786272481818e-05
0.012459876279738278,-0.0007198167081418959,-8.851928235641205e-05
0.013188503365496361,-0.0007134046132305872,-8.887758768675517e-05
0.01390371040571049,-0.0007066315597877856,-8.923259673000977e-05
0.014602810687577824,-0.0006995049295144634,-8.958413085233533e-05
0.015283177679559445,-0.0006920334324226791,-8.993201544281961e-05
0.015942256445896037,-0.0006842270738913153,-9.02760805693981e-05
0.016577574478282706,-0.0006760971161602706,-9.0616161616911e-05
0.01718675191481774,-0.0006676560345619955,-9.095209990459156e-05
0.017767511129644604,-0.0006589174688008799,-9.128374328043228e-05
0.01831768569170406,-0.0006498961695955428,-9.161094669003138e-05
0.01883522870925205,-0.0006406079409953038,-9.19335727176791e-05
