frame_number,force
0,498.0919314585041
1,498.0776692381887
2,498.06133413370264
3,498.0426515516966
4,498.02136011254925
5,497.99722104153193
6,497.9700272332777
7,497.939611468395
8,497.9058535689716
9,497.8686864598957
10,497.8281010635959
11,497.78414981572723
12,497.7369485146456
13,497.68667625354846
14,497.63357326781306
15,497.57793663801573
16,497.5201139897726
17,497.4604956390699
18,497.3995058985948
19,497.3375943168193
20,497.27522747699675
21,497.21288179072695
22,497.1510375599418
23,497.0901743955049
24,497.03076782880316
25,496.97328669583044
26,496.9181907071426
27,496.86592760987867
28,496.81692951803336
29,496.77160827839424
30,496.73035003716
31,496.69350935615944
32,496.66140323266177
33,496.63430525687016
34,496.6124400500798
35,496.5959781590391
36,496.58503166410026
37,496.57965076415945
38,496.57982151843044
39,496.5854648279639
40,496.59643667361354
41,496.61252959435546
42,496.63347537597383
43,496.6589488899863
44,496.68857294428705
45,496.721923895493
46,496.7585377004761
47,496.7979161379345
48,496.83953312539643
49,496.8828412887846
50,496.92727906776844
51,496.97227860322937
52,497.0172744906351
53,497.06171325356814
54,497.10506315440466
55,497.14682378067386
56,497.1865347660843
57,497.2237830342249
58,497.25820810415024
59,497.2895052687919
60,497.31742679607
61,497.34178162720076
62,497.3624342700283
63,497.3793036236408
64,497.39236231551325
65,497.40163688630184
66,497.40720890889776
67,497.4092168622963
68,497.4078582929425
69,497.4033915841545
70,497.39613660353336
71,497.38647357137614
72,497.37483961104255
73,497.3617226105982
74,497.34765229976335
75,497.3331888101417
76,497.3189093289509
77,497.305393661431
78,497.2932095488621
79,497.2828984971556
80,497.27496271973797
81,497.26985361782437
82,497.2679620379744
83,497.2696103979545
84,497.2750466560122
85,497.2844399912398
86,497.2978780019003
87,497.31536529994025
88,497.33682358382055
89,497.36209347073486
90,497.39093840655016
91,497.4230508072581
92,497.458060300784
93,497.4955436624734
94,497.53503587476473
95,497.5760417073689
96,497.61804725965226
97,497.66053100671667
98,497.7029740494279
99,497.7448694529186
100,497.7857307127035
101,497.8250995147982
102,497.8625530832283
103,497.89771146965785
104,497.93024500684425
105,497.9598817982875
106,497.9864146894142
107,498.00970685908226
108,498.02969513822063
109,498.0463904358478
110,498.0598751057852
111,498.0702975236113
112,498.07786442573627
113,498.0828316603011
114,498.08549396080673
115,498.0861742609642
116,498.08521298470464
117,498.0829576612755
118,498.07975310197503
119,498.07593227453384
120,498.07180801202475
121,498.0676658134878
122,498.0637581490717
123,498.0603007428645
124,498.0574711632457
125,498.05540970260324
126,498.0542221185486
127,498.05398353633166
128,498.05474279191895
129,498.05652667455706
130,498.0593437459544
131,498.0631875743728
132,498.06803935108485
133,498.0738699734145
134,498.0806417282113
135,498.08830965355014
136,498.0968225504126
137,498.10612355111334
138,498.1161501409658
139,498.12683352221484
140,498.1380972161454
141,498.1498549111778
142,498.16200780382115
143,498.17444192843345
144,498.187026095167
145,498.19961102933325
146,498.21203018086806
147,498.22410246142573
148,498.23563685104034
149,498.24643846036616
150,498.25631539337445
151,498.26508574205866
152,498.27258422321387
153,498.27866818891476
154,498.28322286777285
155,498.28616568129894
156,498.2874493846297
157,498.2870637030847
158,498.28503515472124
159,498.2814248810475
160,498.2763245092577
161,498.2698502697327
162,498.2621357379213
163,498.25332365580647
164,498.2435573521333
165,498.23297234147304
166,498.22168871659227
167,498.20980493918603
168,498.19739359477967
169,498.18449961679045
170,498.171141372279
171,498.1573147795726
172,498.1430002786246
173,498.12817209254774
174,498.1128089357018
175,498.096905161189
176,498.08048123372936
177,498.063592380632
178,498.0463344246982
179,498.0288461721642
180,498.0113082074821
181,497.9939383877317
182,497.9769846338138
183,497.9607157530477
184,497.945411054047
185,497.9313495286338
186,497.91879939285957
187,497.9080086979106
188,497.8991974757138
189,497.89255156473894
190,497.8882180105978
191,497.8863017988099
192,497.88686362751747
193,497.8899184411005
194,497.8954345063064
195,497.9033329273372
196,497.913487673302
197,497.9257263768853
198,497.93983227303215
199,497.95554765246794
200,497.97257912466415
201,497.9906048211476
202,498.00928340804734
203,498.02826444449846
204,498.04719933685703
205,498.06575204561403
206,498.08360886058574
207,498.1004868827191
208,498.1161411639935
209,498.13037060936557
210,498.1430226836509
211,498.1539967598479
212,498.1632457576095
213,498.17077570313415
214,498.1766429922262
215,498.1809493157305
216,498.1838343362116
217,498.1854663739606
218,498.18603162506275
219,498.18572265680814
220,498.18472695047376
221,498.18321613091797
222,498.18133637815197
223,498.17920039642695
224,498.1768811757314
225,498.17440763727944
226,498.17176219346646
227,498.1688802865624
228,498.16565201017676
229,498.1619258905707
230,498.15751481801516
231,498.15220401824973
232,498.1457608735662
233,498.13794632280235
234,498.1285274293616
235,498.11729049982915
236,498.10405397993117
237,498.08868038260454
238,498.0710866950836
239,498.0512529314825
240,498.0292286532676
241,498.0051373544156
242,497.97917860949923
243,497.95162785759675
244,497.92283370536853
245,497.89321269795636
246,497.8632416123871
247,497.8334474638634
248,497.80439555099576
249,497.77667594019823
250,497.7508887803823
251,497.72762882623596
252,497.7074696325262
253,497.6909480413089
254,497.67854967538574
255,497.670696083396
256,497.66773403085637
257,497.6699273288528
258,497.6774515447525
259,497.6903918312223
260,497.708743863509
261,497.7324175548035
262,497.7612429648196
263,497.7949777088545
264,497.8333151991601
265,497.8758931589023
266,497.9223020157298
267,497.97209300780634
268,498.02478610445644
269,498.0798780711257
270,498.13685106167105
271,498.19518194306227
272,498.25435224834575
273,498.31385838412814
274,498.3732215790932
275,498.4319970299918
276,498.489781736281
277,498.54622059740205
278,498.60101047212936
279,498.65390205581394
280,498.70469959929153
281,498.75325864515116
282,498.79948206799764
283,498.84331476872364
284,498.88473739298786
285,498.92375941457357
286,498.96041184624664
287,498.9947397652953
288,499.02679483053333
289,499.056628013307
290,499.0842828200493
291,499.1097893518668
292,499.1331596401636
293,499.15438474034625
294,499.1734339418558
295,499.19025616167625
296,499.2047832759493
297,499.21693494051766
298,499.22662435520294
299,499.2337643977091
300,499.23827361399793
301,499.24008172319816
302,499.23913448980846
303,499.23539789347456
304,499.22886146073483
305,499.2195405433312
306,499.2074773605006
307,499.1927407718035
308,499.1754249442504
309,499.1556472405826
310,499.1335456969152
311,499.10927635568925
312,499.08301057271234
313,499.0549323398011
314,499.0252356524305
315,498.99412190876126
316,498.96179721422124
317,498.9284693671199
318,498.8943443034343
319,498.8596218643805
320,498.82449085845576
321,498.78912350961895
322,498.7536695201164
323,498.718250111599
324,498.6829525258783
325,498.6478255615474
326,498.61287678288454
327,498.57807203697746
328,498.54333780585824
329,498.50856665738587
330,498.47362565914744
331,498.43836717895636
332,498.4026411342448
333,498.3663075532546
334,498.3292482901487
335,498.2913768629637
336,498.25264560838343
337,498.21304962797115
338,498.1726273245095
339,498.13145769125697
340,498.08965487767364
341,498.0473608468249
342,498.00473712349583
343,497.9619566795594
344,497.91919688369364
345,497.87663418150987
346,497.8344408641994
347,497.79278399935924
348,497.7518263285727
349,497.71172867729007
350,497.67265323876967
351,497.6347670467926
352,497.59824502433173
353,497.56327212594
354,497.5300442099738
355,497.49876732275055
356,497.46965507532974
357,497.44292387720253
358,497.4187860686557
359,497.39744140422425
360,497.37906767214645
361,497.3638113055574
362,497.35177866305867
363,497.3430284277851
364,497.33756548459127
365,497.33533668172987
366,497.33622890024105
367,497.34006970488764
368,497.3466305589128
369,497.3556322899005
370,497.3667523145481
371,497.3796330888789
372,497.3938913086625
373,497.4091275033183
374,497.4249358060531
375,497.44091378799
376,497.45667227753495
377,497.4718450659429
378,497.4860983552869
379,497.4991397253167
380,497.5107262897906
381,497.52067166077603
382,497.5288513899687
383,497.53520664626234
384,497.5397459518204
385,497.5425448680603
386,497.54374365926674
387,497.5435431429329
388,497.5421990694272
389,497.54001540508057
390,497.5373368725724
391,497.53454111167775
392,497.5320308533958
393,497.53022644595404
394,497.52955885930373
395,497.5304630096155
396,497.53337106464755
397,497.53870538000876
398,497.5468707857601
399,497.5582460419479
400,497.5731744880573
401,497.59195424501274
402,497.61482862132993
403,497.6419774490482
404,497.6735099507358
405,497.7094595687403
406,497.74978106089543
407,497.7943500549705
408,497.84296509902566
409,497.89535203961043
410,497.9511703593671
411,498.01002098764775
412,498.0714551113018
413,498.13498363727456
414,498.2000870955846
415,498.2662258162079
416,498.33285016894473
417,498.3994106175911
418,498.4653673587419
419,498.5301993624674
420,498.5934126932997
421,498.6545480700307
422,498.71318767556596
423,498.7689611906215
424,498.82155090553465
425,498.87069564985154
426,498.9161932617612
427,498.9579014137909
428,498.995736749396
429,499.02967239540857
430,499.0597339895058
431,499.0859944411639
432,499.10856775641736
433,499.1276023728283
434,499.1432745014413
435,499.15578189910616
436,499.165338307743
437,499.1721685865866
438,499.17650443029584
439,499.1785805323907
440,499.1786310624041
441,499.17688633506987
442,499.17356959587335
443,499.16889396883
444,499.16305975053734
445,499.1562522775406
446,499.1486405272728
447,499.1403765337948
448,499.1315956607579
449,499.12241771547895
450,499.11294876966576
451,499.10328343901233
452,499.09350733413487
453,499.08369941508454
454,499.0739340088651
455,499.06428224865084
456,499.0548126570328
457,499.04559055810887
458,499.03667604100707
459,499.02812036555156
460,499.01996096214657
461,499.01221543512685
462,499.0048751602253
463,498.9978991261487
464,498.9912085647889
465,498.98468268619257
466,498.9781556495182
467,498.97141490312083
468,498.96420118046
469,498.9562105849716
470,498.9470992182729
471,498.9364906765401
472,498.9239864741096
473,498.90917908081224
474,498.8916668395315
475,498.87106967134525
476,498.8470443282301
477,498.8192981179599
478,498.78760042661025
479,498.75179177921524
480,498.711790442742
481,498.66759668856923
482,498.61929486189194
483,498.5670533997749
484,498.5111229434412
485,498.4518327249425
486,498.38958543695225
487,498.324850784566
488,498.25815788100783
489,498.19008659768605
490,498.12125792509204
491,498.05232338427237
492,497.9839535746565
493,497.9168260210314
494,497.8516125446193
495,497.7889664231598
496,497.7295096354888
497,497.67382050240127
498,497.6224220277909
499,497.5757712270197
500,497.53424971722796
501,497.49815581037984
502,497.46769825761623
503,497.44299166799993
504,497.4240535561808
505,497.4108030153985
506,497.4030611068605
507,497.40055311281645
508,497.40291280468085
509,497.40968887481426
510,497.42035369304847
511,497.43431454463143
512,497.4509274294831
513,497.46951331868604
514,497.4893764756235
515,497.50982411187687
516,497.5301863834597
517,497.54983565602635
518,497.5682040755628
519,497.5847986542096
520,497.59921320357006
521,497.61113652165494
522,497.6203563615736
523,497.6267589422628
524,497.6303240884478
525,497.63111648131013
526,497.6292739038656
527,497.6249936347018
528,497.6185181731087
529,497.61012132331047
530,497.6000954631272
531,497.5887406441462
532,497.5763560063483
533,497.56323381247455
534,497.54965619874065
535,497.5358944963285
536,497.5222107273111
537,497.5088606589898
538,497.49609764309577
539,497.48417641003823
540,497.4733560732813
541,497.463901790006
542,497.4560847148107
543,497.4501800239869
544,497.4464629269236
545,497.44520275103895
546,497.4466553517495
547,497.45105422017133
548,497.45860072311126
549,497.46945390603463
550,497.4837202490475
551,497.5014437525165
552,497.5225967774233
553,497.54707215695345
554,497.5746771873653
555,497.6051301432673
556,497.63805989749187
557,497.67300906354984
558,497.7094408709624
559,497.74674976872444
560,497.7842755326047
561,497.82132044149853
562,497.85716894822025
563,497.8911092472592
564,497.9224561651717
565,497.9505747333541
566,497.9749036082904
567,497.9949772628956
568,498.01044570308585
569,498.02109046779987
570,498.0268358871391
571,498.02775495037554
572,498.0240695702958
573,498.0161454106079
574,498.0044816798517
575,497.9896963979158
576,497.97250772771986
577,497.9537121149427
578,497.9341601388212
579,497.91473106187215
580,497.89630705843774
581,497.87974800696463
582,497.8658675444833
583,497.85541084217647
584,497.84903437247897
585,497.8472879055532
586,497.85059910828767
587,497.85926131547
588,497.8734251430918
589,497.89309451065685
590,497.91812735572046
591,497.94824101289595
592,497.98302203748256
593,498.02194016105193
594,498.0643659236173
595,498.10959125745666
596,498.1568519952292
597,498.2053511090612
598,498.2542815786095
599,498.3028481307196
600,498.35028751634064
601,498.3958872428859
602,498.439002664955
603,498.47907217255727
604,498.5156300724808
605,498.5483167230321
606,498.5768855644771
607,498.6012068306759
608,498.6212678339646
609,498.6371697429385
610,498.64912080568655
611,498.65742613774864
612,498.662474501134
613,498.6647227964912
614,498.66467911855176
615,498.66288517088924
616,498.65989869508854
617,498.65627641675474
618,498.6525578542788
619,498.64925018466374
620,498.6468142873539
621,498.64565217879755
622,498.6460962809779
623,498.6484011533193
624,498.6527382585554
625,498.6591940183347
626,498.6677710443066
627,498.6783922057476
628,498.69090713704617
629,498.7051007800253
630,498.72070349496323
631,498.73740217368
632,498.7548517360863
633,498.7726864307317
634,498.79053046416885
635,498.80800763119055
636,498.8247497890861
637,498.84040414983593
638,498.85463939372096
639,498.86715055985337
640,498.87766263929547
641,498.88593287458605
642,498.8917519642707
643,498.8949445857051
644,498.8953697549944
645,498.8929214848296
646,498.8875300115396
647,498.87916359807684
648,498.8678306444854
649,498.85358164391266
650,498.8365104752569
651,498.8167545898598
652,498.7944937528989
653,498.76994712644967
654,498.74336866201253
655,498.71504098734476
656,498.6852681545644
657,498.65436772645756
658,498.6226627344583
659,498.59047404651676
660,498.55811359841783
661,498.52587877146965
662,498.4940480300525
663,498.46287785325046
664,498.4326009987689
665,498.4034261404515
666,498.375538852914
667,498.34910376598424
668,498.3242675133659
669,498.3011619275118
670,498.2799068763845
671,498.26061224232825
672,498.24337875436424
673,498.22829758785304
674,498.21544876504396
675,498.2048984476967
676,498.1966952892785
677,498.19086616267236
678,498.18741176726036
679,498.1863027415772
680,498.1874768620384
681,498.1908376873524
682,498.1962547226764
683,498.203564965775
684,498.2125756189503
685,498.223067759772
686,498.2348007650765
687,498.2475172254152
688,498.26094801565824
689,498.2748171870334
690,498.2888464510801
691,498.30275919462434
692,498.3162841140876
693,498.32915860952573
694,498.34113200273475
695,498.3519684939251
696,498.3614496781287
697,498.36937650277264
698,498.3755707096356
699,498.37987591639245
700,498.38215848130034
701,498.3823082323119
702,498.3802391363866
703,498.37589005163187
704,498.3692257677671
705,498.3602385206461
706,498.3489500591754
707,498.3354142147037
708,498.31971983865174
709,498.30199393022343
710,498.28240471946464
711,498.2611643697371
712,498.2385308388189
713,498.21480834975347
714,498.1903459412947
715,498.16553371976136
716,498.14079667312734
717,498.1165861747242
718,498.0933695802444
719,498.0716185773582
720,498.05179709771966
721,498.0343495975579
722,498.01969040668854
723,498.0081947028675
724,498.00019150121506
725,497.99595886398544
726,497.9957213541251
727,497.99964956708766
728,498.00786136366503
729,498.02042422966144
730,498.03735808887575
731,498.0586379629654
732,498.08419609201707
733,498.11392338300806
734,498.14767019934925
735,498.18524652017294
736,498.22642151165553
737,498.2709227147982
738,498.31843535373594
739,498.3686025092133
740,498.4210268887882
741,498.4752746492062
742,498.53088135451014
743,498.58735987661515
744,498.64420993479155
745,498.7009289603126
746,498.7570239488334
747,498.8120238583997
748,498.8654919359061
749,498.91703717926873
750,498.966324061111
751,499.01307974075854
752,499.0570983118595
753,499.09824208990005
754,499.1364403267491
755,499.17168585600365
756,499.2040300316848
757,499.2335761281605
758,499.2604713374025
759,499.2848976884877
760,499.3070624837899
761,499.32718897653154
762,499.3455079017437
763,499.3622502185659
764,499.37764122633223
765,499.3918961896598
766,499.4052176631389
767,499.4177946554198
768,499.42980353845263
769,499.4414103012409
770,499.4527735174875
771,499.4640472986538
772,499.47538354036175
773,499.48693293748977
774,499.49884450133055
775,499.5112635831565
776,499.52432862589717
777,499.53816700843265
778,499.55289044699055
779,499.5685905058972
780,499.58533480227015
781,499.60316438169735
782,499.6220924644776
783,499.64210437846106
784,499.6631581649097
785,499.68518526663325
786,499.7080909460757
787,499.73175446822347
788,499.75602938571905
789,499.78074438807374
790,499.8057051695981
791,499.8306976764731
792,499.855492880938
793,499.87985288691254
794,499.90353782781796
795,499.92631287151914
796,499.94795475298633
797,499.96825747329285
798,499.98703695794205
799,500.00413451491653
800,500.0194189842873
801,500.03278762691724
802,500.044165986902
803,500.0535070257373
804,500.0607897491589
805,500.06601746142513
806,500.06921576988236
807,500.0704304787891
808,500.0697254993758
809,500.0671808774128
810,500.0628910199971
811,500.0569631646941
812,500.04951604923036
813,500.0406786305372
814,500.030588649239
815,500.0193909252396
816,500.00723547516407
817,499.9942757021774
818,499.98066689944875
819,499.9665651719905
820,499.95212671847634
821,499.9375072742537
822,499.92286145192395
823,499.90834177937165
824,499.8940973669036
825,499.8802722146629
826,499.86700318911767
827,499.85441773073586
828,499.8426314106129
829,499.8317454540856
830,499.8218442518014
831,499.8129927355338
832,499.8052333992615
833,499.79858275481075
834,499.79302712423095
835,499.7885178354695
836,499.7849660479586
837,499.7822375719568
838,499.7801481527118
839,499.7784597441866
840,499.7768782871336
841,499.7750534508896
842,499.77258071317533
843,499.7690060403109
844,499.7638333007019
845,499.7565344178391
846,499.7465621647995
847,499.7333654185701
848,499.71640658620026
849,499.69518071553756
850,499.6692354874859
851,499.63819095319604
852,499.6017577172987
853,499.55975239635677
854,499.51210952389306
855,499.45888943361615
856,499.4002819103429
857,499.33660558563946
858,499.26830323026456
859,499.19593319953043
860,499.12015723430034
861,499.04172470631516
862,498.9614534428042
863,498.880207517344
864,498.7988726758148
865,498.7183302606216
866,498.6394306603479
867,498.56296748068115
868,498.4896537121384
869,498.42010108827316
870,498.35480362955866
871,498.2941261186139
872,498.23829797208214
873,498.18741269263825
874,498.1414328524833
875,498.1002003794901
876,498.0634517258842
877,498.03083723704907
878,498.0019437029103
879,497.9763187344197
880,497.9534953716171
881,497.9330152710325
882,497.9144489332234
883,497.8974116746019
884,497.8815744070414
885,497.86666878799656
886,497.8524869362366
887,497.8388765376134
888,497.82573256050347
889,497.8129868405059
890,497.8005965970104
891,497.7885327277221
892,497.7767685789622
893,497.76526975262425
894,497.7539853428232
895,497.74284083180515
