frame_number,force
0,498.09193145835445
1,498.0776692380344
2,498.0613341335422
3,498.04265155152876
4,498.02136011237315
5,497.9972210413466
6,497.970027233082
7,497.9396114681878
8,497.9058535687517
9,497.86868645966194
10,497.8281010633472
11,497.7841498154623
12,497.73694851436295
13,497.68667625324696
14,497.63357326749207
15,497.57793663767535
16,497.52011398941346
17,497.4604956386931
18,497.3995058982017
19,497.3375943164124
20,497.27522747657895
21,497.21288179030154
22,497.15103755951213
23,497.09017439507437
24,497.0307678283751
25,496.9732866954076
26,496.9181907067277
27,496.865927609474
28,496.8169295176409
29,496.7716082780155
30,496.7303500367962
31,496.69350935581156
32,496.66140323233077
33,496.6343052565569
34,496.61244004978516
35,496.59597815876356
36,496.58503166384355
37,496.57965076392077
38,496.57982151820875
39,496.5854648277581
40,496.5964366734224
41,496.6125295941776
42,496.6334753758075
43,496.6589488898295
44,496.6885729441377
45,496.7219238953487
46,496.7585377003342
47,496.79791613779173
48,496.83953312524903
49,496.8828412886285
50,496.92727906759944
51,496.9722786030433
52,497.0172744904283
53,497.06171325333753
54,497.10506315414796
55,497.1468237803893
56,497.1865347657708
57,497.2237830338815
58,497.2582081037768
59,497.2895052683884
60,497.31742679563683
61,497.3417816267389
62,497.3624342695396
63,497.37930362312795
64,497.39236231497983
65,497.4016368857522
66,497.40720890833705
67,497.4092168617295
68,497.4078582923745
69,497.4033915835904
70,497.39613660297806
71,497.3864735708341
72,497.3748396105177
73,497.3617226100941
74,497.3476522992827
75,497.3331888096864
76,497.3189093285221
77,497.3053936610288
78,497.29320954848566
79,497.28289849680334
80,497.27496271940765
81,497.26985361751343
82,497.2679620376805
83,497.2696103976756
84,497.2750466557466
85,497.2844399909863
86,497.29787800165786
87,497.3153652997085
88,497.33682358359937
89,497.36209347052454
90,497.39093840635087
91,497.42305080706956
92,497.4580603006055
93,497.4955436623041
94,497.5350358746038
95,497.5760417072156
96,497.61804725950606
97,497.66053100657746
98,497.70297404929585
99,497.7448694527938
100,497.7857307125861
101,497.8250995146879
102,497.8625530831252
103,497.8977114695617
104,497.9302450067549
105,497.95988179820426
106,497.98641468933613
107,498.00970685900865
108,498.0296951381507
109,498.04639043578084
110,498.0598751057203
111,498.0702975235478
112,498.07786442567345
113,498.0828316602382
114,498.08549396074324
115,498.08617426089995
116,498.08521298463967
117,498.0829576612096
118,498.07975310190824
119,498.07593227446654
120,498.07180801195744
121,498.0676658134211
122,498.0637581490064
123,498.0603007428009
124,498.0574711631836
125,498.05540970254225
126,498.05422211848787
127,498.05398353627044
128,498.0547427918564
129,498.05652667449243
130,498.0593437458867
131,498.063187574301
132,498.06803935100805
133,498.073869973332
134,498.0806417281226
135,498.0883096534551
136,498.09682255031083
137,498.1061235510042
138,498.1161501408483
139,498.1268335220878
140,498.1380972160075
141,498.14985491102794
142,498.16200780365887
143,498.17444192825855
144,498.1870260949798
145,498.1996110291346
146,498.2120301806591
147,498.2241024612081
148,498.2356368508155
149,498.24643846013566
150,498.25631539313974
151,498.2650857418212
152,498.2725842229748
153,498.2786681886747
154,498.2832228675323
155,498.28616568105826
156,498.2874493843893
157,498.28706370284505
158,498.2850351544831
159,498.28142488081147
160,498.2763245090242
161,498.2698502695022
162,498.26213573769377
163,498.2533236555818
164,498.24355735191125
165,498.2329723412534
166,498.22168871637496
167,498.20980493897105
168,498.1973935945669
169,498.18449961657967
170,498.17114137207017
171,498.157314779366
172,498.1430002784206
173,498.1281720923464
174,498.11280893550287
175,498.0969051609918
176,498.08048123353336
177,498.0635923804363
178,498.046334424502
179,498.02884617196673
180,498.01130820728275
181,497.99393838752997
182,497.9769846336094
183,497.9607157528405
184,497.94541105383695
185,497.93134952842075
186,497.9187993926432
187,497.9080086976905
188,497.8991974754897
189,497.8925515645108
190,497.88821801036585
191,497.8863017985745
192,497.8868636272793
193,497.8899184408605
194,497.8954345060659
195,497.90333292709784
196,497.91348767306545
197,497.92572637665273
198,497.9398322728041
199,497.95554765224426
200,497.97257912444456
201,497.9906048209314
202,498.00928340783355
203,498.02826444428604
204,498.0471993366451
205,498.0657520454022
206,498.0836088603737
207,498.10048688250686
208,498.1161411637812
209,498.13037060915326
210,498.1430226834387
211,498.15399675963596
212,498.16324575739793
213,498.17077570292304
214,498.1766429920157
215,498.1809493155205
216,498.18383433600195
217,498.18546637375107
218,498.18603162485306
219,498.18572265659793
220,498.18472695026276
221,498.18321613070583
222,498.1813363779386
223,498.17920039621254
224,498.1768811755167
225,498.17440763706537
226,498.1717621932544
227,498.168880286354
228,498.1656520099739
229,498.16192589037485
230,498.1575148178273
231,498.15220401807056
232,498.1457608733964
233,498.13794632264245
234,498.128527429212
235,498.11729049969006
236,498.10405397980264
237,498.08868038248613
238,498.0710866949742
239,498.0512529313809
240,498.0292286531721
241,498.00513735432435
242,497.9791786094104
243,497.9516278575086
244,497.92283370527963
245,497.89321269786564
246,497.86324161229345
247,497.8334474637656
248,497.8043955508924
249,497.7766759400879
250,497.75088878026344
251,497.7276288261071
252,497.70746963238605
253,497.69094804115616
254,497.6785496752194
255,497.6706960832153
256,497.6677340306606
257,497.6699273286412
258,497.67745154452456
259,497.6903918309777
260,497.70874386324795
261,497.7324175545267
262,497.7612429645283
263,497.7949777085506
264,497.8333151988458
265,497.87589315858014
266,497.9223020154025
267,497.972093007477
268,498.0247861041282
269,498.07987807080195
270,498.13685106135495
271,498.1951819427562
272,498.2543522480515
273,498.31385838384637
274,498.3732215788236
275,498.4319970297329
276,498.4897817360305
277,498.5462205971572
278,498.6010104718869
279,498.65390205557077
280,498.7046995990447
281,498.7532586448981
282,498.79948206773565
283,498.84331476844994
284,498.8847373926995
285,498.92375941426803
286,498.96041184592207
287,498.99473976495034
288,499.02679483016715
289,499.056628012919
290,499.0842828196396
291,499.1097893514361
292,499.1331596397132
293,499.15438473987774
294,499.1734339413716
295,499.19025616117926
296,499.2047832754426
297,499.2169349400043
298,499.22662435468595
299,499.2337643971912
300,499.2382736134818
301,499.24008172268674
302,499.2391344893047
303,499.23539789298144
304,499.2288614602548
305,499.2195405428662
306,499.2074773600521
307,499.1927407713725
308,499.175424943837
309,499.15564724018674
310,499.1335456965362
311,499.1092763553261
312,499.08301057236366
313,499.0549323394656
314,499.02523565210697
315,498.9941219084492
316,498.96179721392116
317,498.92846936683253
318,498.89434430316044
319,498.8596218641207
320,498.8244908582106
321,498.7891235093886
322,498.7536695199004
323,498.71825011139657
324,498.68295252568817
325,498.64782556136805
326,498.61287678271435
327,498.5780720368148
328,498.54333780570187
329,498.50856665723484
330,498.4736256590008
331,498.4383671788132
332,498.4026411341043
333,498.3663075531162
334,498.3292482900122
335,498.2913768628289
336,498.2526456082505
337,498.2130496278403
338,498.1726273243812
339,498.1314576911317
340,498.08965487755177
341,498.04736084670617
342,498.0047371233792
343,497.96195667944323
344,497.91919688357586
345,497.8766341813885
346,497.83444086407263
347,497.7927839992253
348,497.7518263284301
349,497.7117286771376
350,497.6726532386067
351,497.63476704661906
352,497.59824502414807
353,497.56327212574695
354,497.53004420977226
355,497.4987673225412
356,497.46965507511317
357,497.4429238769793
358,497.4187860684259
359,497.39744140398767
360,497.3790676719027
361,497.3638113053061
362,497.3517786627995
363,497.3430284275181
364,497.3375654843167
365,497.33533668144855
366,497.3362288999545
367,497.34006970459797
368,497.34663055862245
369,497.3556322896116
370,497.3667523142627
371,497.3796330885987
372,497.3938913083888
373,497.40912750305193
374,497.42493580579406
375,497.44091378773766
376,497.45667227728813
377,497.4718450657002
378,497.486098355047
379,497.4991397250784
380,497.51072628955296
381,497.52067166053837
382,497.52885138973045
383,497.5352066460229
384,497.5397459515793
385,497.54254486781724
386,497.5437436590215
387,497.5435431426851
388,497.5421990691762
389,497.54001540482545
390,497.5373368723121
391,497.5345411114114
392,497.53203085312265
393,497.53022644567415
394,497.5295588590181
395,497.53046300932607
396,497.5333710643566
397,497.5387053797185
398,497.54687078547295
399,497.55824604166645
400,497.57317448778434
401,497.59195424475104
402,497.61482862108204
403,497.6419774488165
404,497.6735099505223
405,497.70945956854644
406,497.7497810607219
407,497.79435005481696
408,497.84296509889106
409,497.895352039493
410,497.95117035926467
411,498.01002098755816
412,498.07145511122263
413,498.13498363720316
414,498.20008709551826
415,498.26622581614345
416,498.33285016887845
417,498.399410617519
418,498.4653673586597
419,498.53019936237104
420,498.5934126931854
421,498.6545480698956
422,498.7131876754077
423,498.7689611904384
424,498.8215509053254
425,498.87069564961575
426,498.91619326149896
427,498.9579014135029
428,498.99573674908345
429,499.0296723950732
430,499.05973398914944
431,499.08599444078857
432,499.10856775602525
433,499.12760237242196
434,499.1432745010235
435,499.1557818986799
436,499.1653383073115
437,499.17216858615336
438,499.1765044298643
439,499.1785805319645
440,499.17863106198695
441,499.1768863346654
442,499.1735695954851
443,499.1688939684611
444,499.16305975019077
445,499.15625227721864
446,499.14864052697715
447,499.14037653352676
448,499.1315956605183
449,499.1224177152681
450,499.1129487694833
451,499.10328343885743
452,499.0935073340065
453,499.08369941498086
454,499.0739340087836
455,499.0642822485888
456,499.0548126569869
457,499.04559055807545
458,499.03667604098246
459,499.02812036553195
460,499.01996096212815
461,499.0122154351056
462,499.00487516019746
463,498.99789912611084
464,498.99120856473803
465,498.98468268612606
466,498.9781556494341
467,498.9714149030176
468,498.964201180337
469,498.956210584829
470,498.94709921811176
471,498.9364906763618
472,498.92398647391616
473,498.9091790806061
474,498.89166683931535
475,498.8710696711213
476,498.8470443280003
477,498.8192981177258
478,498.787600426373
479,498.751791778976
480,498.7117904425019
481,498.6675966883298
482,498.61929486165434
483,498.56705339954
484,498.51112294320944
485,498.4518327247145
486,498.3895854367286
487,498.3248507843477
488,498.2581578807959
489,498.1900865974817
490,498.12125792489604
491,498.05232338408524
492,497.9839535744786
493,497.9168260208626
494,497.85161254445876
495,497.78896642300623
496,497.72950963534043
497,497.6738205022565
498,497.62242202764816
499,497.57577122687763
500,497.5342497170856
501,497.49815581023654
502,497.46769825747185
503,497.44299166785464
504,497.42405355603506
505,497.4108030152528
506,497.40306110671526
507,497.4005531126721
508,497.40291280453755
509,497.40968887467216
510,497.4203536929078
511,497.43431454449234
512,497.4509274293459
513,497.4695133185509
514,497.48937647549036
515,497.50982411174544
516,497.53018638332907
517,497.5498356558954
518,497.5682040754303
519,497.5847986540741
520,497.59921320343005
521,497.6111365215088
522,497.6203563614199
523,497.62675894210054
524,497.6303240882768
525,497.631116481131
526,497.62927390367975
527,497.62499363451093
528,497.6185181729151
529,497.6101213231167
530,497.600095462936
531,497.5887406439603
532,497.5763560061703
533,497.5632338123066
534,497.5496561985845
535,497.5358944961856
536,497.5222107271824
537,497.5088606588761
538,497.4960976429976
539,497.4841764099562
540,497.47335607321526
541,497.46390178995523
542,497.456084714774
543,497.4501800239629
544,497.44646292691067
545,497.4452027510353
546,497.44665535175295
547,497.45105422017957
548,497.45860072312206
549,497.469453906046
550,497.4837202490577
551,497.5014437525237
552,497.52259677742563
553,497.5470721569488
554,497.5746771873512
555,497.60513014324107
556,497.6380598974508
557,497.6730090634914
558,497.7094408708842
559,497.7467497686241
560,497.7842755324801
561,497.8213204413478
562,497.85716894804153
563,497.89110924705096
564,497.92245616493284
565,497.95057473308395
566,497.97490360798923
567,497.9949772625644
568,498.01044570272677
569,498.02109046741543
570,498.0268358867324
571,498.0277549499499
572,498.0240695698544
573,498.01614541015385
574,498.00448167938794
575,497.9896963974454
576,497.97250772724595
577,497.9537121144686
578,497.93416013835014
579,497.9147310614069
580,497.8963070579805
581,497.87974800651733
582,497.8658675440479
583,497.8554108417547
584,497.8490343720721
585,497.84728790516203
586,497.8505991079128
587,497.85926131511144
588,497.87342514274934
589,497.8930945103304
590,497.91812735541015
591,497.948241012602
592,497.9830220372053
593,498.02194016079204
594,498.06436592337593
595,498.10959125723525
596,498.1568519950292
597,498.20535110888386
598,498.25428157845556
599,498.3028481305894
600,498.3502875162333
601,498.3958872427999
602,498.43900266488794
603,498.4790721725065
604,498.5156300724433
605,498.54831672300475
606,498.57688556445686
607,498.60120683065986
608,498.6212678339502
609,498.63716974292333
610,498.6491208056689
611,498.6574261377271
612,498.6624745011077
613,498.6647227964596
614,498.66467911851475
615,498.66288517084695
616,498.6598986950415
617,498.6562764167036
618,498.65255785422397
619,498.64925018460536
620,498.64681428729176
621,498.6456521787307
622,498.6460962809053
623,498.6484011532401
624,498.6527382584692
625,498.6591940182411
626,498.66777104420544
627,498.6783922056387
628,498.6909071369295
629,498.70510077990093
630,498.7207034948309
631,498.7374021735395
632,498.75485173593745
633,498.77268643057437
634,498.7905304640037
635,498.80800763101854
636,498.82474978890843
637,498.84040414965403
638,498.85463939353616
639,498.86715055966664
640,498.8776626391076
641,498.8859328743975
642,498.8917519640817
643,498.8949445855157
644,498.8953697548051
645,498.89292148464125
646,498.8875300113534
647,498.8791635978943
648,498.86783064430784
649,498.853581643741
650,498.8365104750917
651,498.8167545897017
652,498.7944937527485
653,498.76994712630744
654,498.7433686618789
655,498.71504098721977
656,498.6852681544476
657,498.6543677263482
658,498.62266273435534
659,498.5904740464189
660,498.55811359832387
661,498.5258787713785
662,498.4940480299625
663,498.46287785315957
664,498.4326009986748
665,498.4034261403515
666,498.37553885280573
667,498.34910376586555
668,498.3242675132348
669,498.30116192736665
670,498.2799068762239
671,498.26061224215164
672,498.2433787541715
673,498.2282975876448
674,498.21544876482204
675,498.2048984474636
676,498.1966952890372
677,498.190866162426
678,498.1874117670124
679,498.1863027413314
680,498.1874768617982
681,498.19083768712073
682,498.1962547224558
683,498.2035649655678
684,498.21257561875797
685,498.2230677595953
686,498.23480076491586
687,498.2475172252704
688,498.2609480155286
689,498.27481718691746
690,498.28884645097594
691,498.3027591945299
692,498.316284114001
693,498.32915860944536
694,498.3411320026587
695,498.35196849385125
696,498.3614496780547
697,498.36937650269607
698,498.3755707095544
699,498.3798759163049
700,498.3821584812053
701,498.38230823220835
702,498.38023913627364
703,498.37589005150875
704,498.3692257676327
705,498.3602385204995
706,498.34895005901564
707,498.33541421452964
708,498.3197198384623
709,498.3019939300175
710,498.2824047192415
711,498.2611643694962
712,498.23853083855994
713,498.21480834947664
714,498.1903459410007
715,498.1655337194515
716,498.1407966728034
717,498.1165861743882
718,498.09336957989893
719,498.0716185770063
720,498.0517970973647
721,498.03434959720346
722,498.01969040633804
723,498.00819470252407
724,498.0001915008814
725,497.99595886366404
726,497.99572135381794
727,497.99964956679577
728,498.0078613633885
729,498.0204242293997
730,498.0373580886278
731,498.0586379627305
732,498.08419609179435
733,498.11392338279666
734,498.147670199148
735,498.1852465199804
736,498.2264215114701
737,498.2709227146181
738,498.31843535355944
739,498.3686025090384
740,498.42102688861274
741,498.475274649028
742,498.53088135432756
743,498.5873598764271
744,498.6442099345979
745,498.7009289601143
746,498.7570239486326
747,498.8120238581991
748,498.865491935709
749,498.91703717907797
750,498.9663240609289
751,499.013079740587
752,499.0570983116996
753,499.09824208975226
754,499.1364403266134
755,499.1716858558799
756,499.20403003157276
757,499.23357612806024
758,499.26047133731447
759,499.28489768841246
760,499.3070624837277
761,499.32718897648203
762,499.34550790170607
763,499.3622502185389
764,499.3776412263144
765,499.39189618964963
766,499.40521766313515
767,499.4177946554213
768,499.4298035384582
769,499.4414103012495
770,499.4527735174984
771,499.464047298666
772,499.475383540374
773,499.48693293750074
774,499.4988445013391
775,499.5112635831619
776,499.52432862589933
777,499.53816700843186
778,499.552890446987
779,499.56859050589094
780,499.5853348022609
781,499.6031643816846
782,499.622092464461
783,499.64210437844014
784,499.66315816488407
785,499.6851852666027
786,499.70809094604
787,499.73175446818243
788,499.75602938567295
789,499.7807443880227
790,499.80570516954214
791,499.83069767641234
792,499.8554928808729
793,499.879852886844
794,499.90353782774736
795,499.92631287144815
796,499.9479547529169
797,499.96825747322697
798,499.9870369578812
799,500.00413451486185
800,500.0194189842393
801,500.03278762687574
802,500.04416598686646
803,500.05350702570666
804,500.06078974913146
805,500.06601746139887
806,500.06921576985513
807,500.07043047875896
808,500.06972549934096
809,500.0671808773715
810,500.062891019948
811,500.0569631646355
812,500.0495160491606
813,500.0406786304542
814,500.0305886491403
815,500.01939092512276
816,500.0072354750269
817,499.99427570201823
818,499.98066689926634
819,499.96656517178434
820,499.95212671824635
821,499.93750727400044
822,499.9228614516486
823,499.9083417790762
824,499.8940973665911
825,499.8802722143373
826,499.86700318878337
827,499.85441773039736
828,499.8426314102745
829,499.83174545375135
830,499.82184425147454
831,499.8129927352169
832,499.8052333989565
833,499.798582754519
834,499.7930271239532
835,499.78851783520594
836,499.78496604770913
837,499.78223757172105
838,499.780148152489
839,499.7784597439754
840,499.77687828693234
841,499.77505345069636
842,499.7725807129884
843,499.76900604012855
844,499.763833300523
845,499.75653441766303
846,499.74656216462614
847,499.73336541839967
848,499.7164065860332
849,499.695180715374
850,499.6692354873256
851,499.638190953038
852,499.60175771714154
853,499.559752396199
854,499.5121095237337
855,499.4588894334552
856,499.40028191018115
857,499.3366055854776
858,499.2683032301033
859,499.1959331993702
860,499.1201572341414
861,499.0417247061579
862,498.9614534426488
863,498.8802075171906
864,498.79887267566374
865,498.7183302604729
866,498.63943066020073
867,498.5629674805338
868,498.4896537119888
869,498.4201010881188
870,498.354803629397
871,498.2941261184424
872,498.2382979718989
873,498.1874126924415
874,498.1414328522718
875,498.10020037926284
876,498.06345172564045
877,498.03083723678924
878,498.0019437026355
879,497.97631873413144
880,497.95349537131744
881,497.93301527072407
882,497.91444893290924
883,497.8974116742853
884,497.88157440672563
885,497.86666878768506
886,497.852486935933
887,497.83887653732126
888,497.8257325602259
889,497.8129868402454
890,497.8005965967686
891,497.7885327275003
892,497.7767685787616
893,497.7652697524458
894,497.7539853426675
895,497.742840831672
896,497.73173275985573
