frame_number,force
0,497.9670042544365
1,497.9350476067854
2,497.90224890998866
3,497.86865755739205
4,497.8343287239367
5,497.79932333342225
6,497.7637079767059
7,497.7275547761835
8,497.69094119459936
9,497.6539497880443
10,497.6166679032687
11,497.5791873190001
12,497.54160383099173
13,497.5040167813555
14,497.4665285338915
15,497.42924389844126
16,497.3922695092437
17,497.35571316495475
18,497.3196831403402
19,497.2842874804486
20,497.2496332873737
21,497.2158260086198
22,497.182968735142
23,497.15116151595043
24,497.1205006944318
25,497.09107826969927
26,497.06298128500504
27,497.03629124503885
28,497.0110835649081
29,496.98742705536273
30,496.96538345057013
31,496.9450069856037
32,496.9263440303292
33,496.9094327849407
34,496.8943030411213
35,496.880976012368
36,496.8694642369019
37,496.859771555891
38,496.8518931683722
39,496.8458157628049
40,496.8415177239624
41,496.83896941288765
42,496.8381335168166
43,496.8389654650677
44,496.84141390568317
45,496.8454212362093
46,496.85092418094405
47,496.8578544068808
48,496.8661391715626
49,496.875701997391
50,496.8864633675861
51,496.89834143857524
52,496.91125276235346
53,496.92511301073824
54,496.9398376918544
55,496.9553428481051
56,496.9715457245993
57,496.98836539757406
58,497.0057233538699
59,497.0235440149687
60,497.0417552020955
61,497.0602885418299
62,497.0790798139399
63,497.09806924413067
64,497.11720174402564
65,497.1364270996869
66,497.15570010895516
67,497.17498066673767
68,497.19423379604495
69,497.2134296217651
70,497.23254328447143
71,497.25155479270154
72,497.27044881355755
73,497.28921440318265
74,497.30784468106935
75,497.32633645511095
76,497.34468980703406
77,497.36290764950536
78,497.3809952665409
79,497.3989598482064
80,497.41681002945194
81,497.4345554414789
82,497.45220628250127
83,497.4697729133908
84,497.4872654824928
85,497.5046935826978
86,497.52206594293426
87,497.53939015622626
88,497.55667244735974
89,497.5739174840379
90,497.5911282350807
91,497.60830587745585
92,497.6254497513094
93,497.64255735963496
94,497.6596244075264
95,497.67664487522444
96,497.69361111904766
97,497.71051399461965
98,497.7273429976099
99,497.7440864182524
100,497.7607315068099
101,497.77726464792806
102,497.79367154266
103,497.8099373973862
104,497.8260471179616
105,497.8419855050537
106,497.85773744375973
107,497.8732880786344
108,497.88862296530095
109,497.90372819208346
110,497.9185904686736
111,497.93319718232334
112,497.94753642444346
113,497.96159699156107
114,497.9753683646885
115,497.988840670855
116,498.002004630294
117,498.014851492501
118,498.02737296385664
119,498.0395611290506
120,498.0514083687698
121,498.06290727715464
122,498.07405058378066
123,498.08483108545266
124,498.095241592128
125,498.1052748888149
126,498.114923712338
127,498.1241807398517
128,498.13303858573994
129,498.1414898046925
130,498.1495269001464
131,498.1571423382476
132,498.1643285682058
133,498.17107805052405
134,498.177383294699
135,498.1832369073397
136,498.18863165063897
137,498.19356051040916
138,498.1980167725629
139,498.20199410661616
140,498.20548665459376
141,498.20848912428596
142,498.21099688729595
143,498.21300608389794
144,498.2145137374303
145,498.2155178806043
146,498.21601769508885
147,498.2160136641218
148,498.2155077355701
149,498.2145034902743
150,498.213006308782
151,498.2110235294981
152,498.2085645926119
153,498.205641165827
154,498.2022672489326
155,498.19845925430815
156,498.19423605994047
157,498.1896190311743
158,498.1846320077622
159,498.1793012539583
160,498.17365537108486
161,498.1677251736929
162,498.16154353174005
163,498.15514518210165
164,498.1485665134566
165,498.1418453293003
166,498.13502059435086
167,498.1281321698086
168,498.1212205429015
169,498.11432655596195
170,498.1074911397051
171,498.10075505401005
172,498.0941586372129
173,498.0877415623735
174,498.0815425971257
175,498.07559936271207
176,498.0699480871677
177,498.06462334748574
178,498.0596577967631
179,498.05508187501454
180,498.05092350579463
181,498.04720778391095
182,498.0439566616504
183,498.04118864185125
184,498.03891848623385
185,498.03715694735666
186,498.0359105325125
187,498.03518130707863
188,498.0349667428296
189,498.03525961415806
190,498.0360479430409
191,498.03731499227206
192,498.03903930576564
193,498.04119479444904
194,498.0437508663049
195,498.0466725995421
196,498.04992095873394
197,498.05345305468717
198,498.05722244919616
199,498.0611795054998
200,498.06527178432077
201,498.06944448385934
202,498.0736409199289
203,498.07780303976364
204,498.0818719607344
205,498.08578852433084
206,498.0894938567326
207,498.0929299294638
208,498.09604011576863
209,498.09876973938054
210,498.10106661190514
211,498.1028815535771
212,498.10416889086224
213,498.10488692433415
214,498.1049983614385
215,498.1044707101615
216,498.10327663070126
217,498.101394243625
218,498.09880739507616
219,498.09550588139103
220,498.09148563587553
221,498.08674887978486
222,498.081304238754
223,498.07516682531315
224,498.0683582873701
225,498.06090682177495
226,498.0528471519223
227,498.04422046886356
228,498.0350743359808
229,498.02546255738986
230,498.01544500993856
231,498.00508743828635
232,497.99446121232853
233,497.98364304602194
234,497.97271467604696
235,497.96176249765887
236,497.950877154373
237,497.9401530787395
238,497.9296879832503
239,497.9195823024049
240,497.90993858848094
241,497.90086086448144
242,497.892453938114
243,497.88482268082447
244,497.878071276295
245,497.872302443558
246,497.86761664086424
247,497.8641112575832
248,497.86187980250315
249,497.8610110974788
250,497.8615884852958
251,497.8636890604442
252,497.86738293194134
253,497.8727325282569
254,497.87979195475214
255,497.888606413197
256,497.8992116914233
257,497.9116337299556
258,497.9258882715904
259,497.94198059854176
260,497.95990535939814
261,497.9796464852035
262,498.0011771914995
263,498.0244600617245
264,498.0494472068732
265,498.076080496442
266,498.1042918562371
267,498.1340036296252
268,498.1651290001576
269,498.19757247459177
270,498.2312304252291
271,498.2659916887848
272,498.3017382164218
273,498.3383457673379
274,498.3756846370424
275,498.4136204110549
276,498.45201473487515
277,498.49072609159947
278,498.52961057944447
279,498.56852268260155
280,498.60731603014403
281,498.6458441389387
282,498.6839611374925
283,498.7215224683455
284,498.75838556701933
285,498.7944105156049
286,498.829460668822
287,498.8634032501656
288,498.89610991601853
289,498.92745728627875
290,498.9573274407938
291,498.98560838173
292,499.0121944630236
293,499.03698678871285
294,499.0598935814063
295,499.0808305203965
296,499.09972104701717
297,499.116496633704
298,499.13109701283446
299,499.1434703615126
300,499.1535734391817
301,499.16137167643893
302,499.16683921507683
303,499.16995890017006
304,499.170722224784
305,499.16912922752107
306,499.1651883435486
307,499.15891621099433
308,499.15033743615874
309,499.13948432229483
310,499.1263965671133
311,499.1111209335318
312,499.093710897201
313,499.07422627383266
314,499.0527328292871
315,499.0293018750656
316,499.0040098510224
317,498.97693789635497
318,498.9481714098799
319,498.91779960111654
320,498.885915034363
321,498.85261316867746
322,498.81799189751433
323,498.78215109257565
324,498.74519215711933
325,498.707217594473
326,498.6683305977644
327,498.62863466670734
328,498.5882332563371
329,498.54722946055205
330,498.5057257303171
331,498.463823623102
332,498.4216235774237
333,498.3792247048386
334,498.33672459148903
335,498.2942191021528
336,498.2518021812952
337,498.2095656475949
338,498.16759898070706
339,498.1259891016199
340,498.08482015053835
341,498.044173268319
342,498.0041263888055
343,497.9647540497634
344,497.9261272292721
345,497.88831321256964
346,497.85137549214835
347,497.8153737018536
348,497.7803635837966
349,497.74639698500886
350,497.71352187940323
351,497.68178241021184
352,497.6512189485079
353,497.6218681642624
354,497.59376310712025
355,497.5669332942821
356,497.54140480272855
357,497.51720036346245
358,497.494339457259
359,497.4728384141677
360,497.4527105211938
361,497.43396614289804
362,497.4166128581814
363,497.4006556146874
364,497.3860969014248
365,497.37293694036026
366,497.3611738976831
367,497.35080411422757
368,497.3418223523258
369,497.33422205416224
370,497.3279956053537
371,497.32313459715954
372,497.3196300811575
373,497.3174728111281
374,497.3166534679918
375,497.3171628645469
376,497.31899212719316
377,497.3221328519262
378,497.326577231857
379,497.33231815327025
380,497.33934925684275
381,497.34766496066976
382,497.3572604425302
383,497.36813157990844
384,497.38027484719464
385,497.3936871704373
386,497.4083657414483
387,497.42430779480003
388,497.44151035263036
389,497.4599699427876
390,497.47968229606084
391,497.50064202862256
392,497.52284231628977
393,497.5462745670291
394,497.5709280967712
395,497.59678981165007
396,497.62384389851576
397,497.65207152544735
398,497.68145055437856
399,497.7119552684818
400,497.74355611819016
401,497.77621949182094
402,497.8099075185
403,497.84457791120883
404,497.8801838564364
405,497.91667395521443
406,497.9539922188901
407,497.9920781216543
408,498.03086671018826
409,498.0702887687761
410,498.11027103625776
411,498.1507364698314
412,498.1916045503132
413,498.23279162388855
414,498.2742112759446
415,498.31577473252383
416,498.35739128430157
417,498.398968727461
418,498.44041381577676
419,498.48163271842145
420,498.5225314783823
421,498.5630164669448
422,498.6029948301434
423,498.6423749229386
424,498.68106672621275
425,498.7189822410976
426,498.7560358553128
427,498.7921446772031
428,498.8272288345185
429,498.86121173617454
430,498.894020296182
431,498.9255851199415
432,498.9558406543424
433,498.98472530438283
434,499.0121815198278
435,499.03815585532146
436,499.0625990064417
437,499.08546582305763
438,499.10671530075155
439,499.1263105511374
440,499.14421875224724
441,499.1604110804575
442,499.17486262594406
443,499.1875522946629
444,499.1984627009302
445,499.2075800550323
446,499.21489404981423
447,499.2203977495803
448,499.22408748427256
449,499.2259627513388
450,499.2260261266782
451,499.224283185034
452,499.2207424296711
453,499.21541523104486
454,499.2083157740605
455,499.1994610131943
456,499.1888706341536
457,499.176567020132
458,499.1625752206303
459,499.14692292165597
460,499.12964041762615
461,499.1107605867903
462,499.0903188729499
463,499.0683532763635
464,499.0449043556811
465,499.02001524086074
466,498.9937316554713
467,498.9661019466181
468,498.93717712167995
469,498.9070108920059
470,498.87565972382964
471,498.8431828957526
472,498.80964256031916
473,498.7751038046806
474,498.7396347025303
475,498.7033063471784
476,498.66619285488457
477,498.6283713290995
478,498.58992177953473
479,498.55092699339093
480,498.511472358436
481,498.47164563894074
482,498.43153670621626
483,498.3912372259876
484,498.350840305395
485,498.31044010318027
486,498.270131407313
487,498.2300091847068
488,498.19016810783285
489,498.15070206304307
490,498.1117036453453
491,498.07326364450137
492,498.03547052782636
493,497.99840992572155
494,497.9621641264404
495,497.9268115868165
496,497.8924264657642
497,497.8590781872615
498,497.82683103917554
499,497.7957438138054
500,497.7658694954978
501,497.7372549999561
502,497.70994096866735
503,497.68396162038914
504,497.65934466053903
505,497.63611124899455
506,497.61427602684836
507,497.5938472024273
508,497.57482669629275
509,497.5572103443205
510,497.5409881574935
511,497.52614463649513
512,497.512659138189
513,497.50050628936367
514,497.4896564407413
515,497.4800761515943
516,497.47172869325834
517,497.4645745591981
518,497.4585719700493
519,497.45367736337454
520,497.4498458589012
521,497.4470316907579
522,497.4451885993862
523,497.4442701778081
524,497.44423016965925
525,497.445022719646
526,497.44660258042404
527,497.44892528230463
528,497.4519472728956
529,497.45562603316574
530,497.4599201754593
531,497.46478952817944
532,497.47019521112946
533,497.4760997046361
534,497.48246691446695
535,497.4892622331486
536,497.49645259678397
537,497.50400653512935
538,497.51189421174405
539,497.5200874507511
540,497.52855974741954
541,497.53728626116236
542,497.54624379086073
543,497.55541073334035
544,497.564767026671
545,497.57429408098244
546,497.58397470043
547,497.59379300053155
548,497.60373432522755
549,497.6137851676474
550,497.62393309791264
551,497.6341667008351
552,497.64447552633214
553,497.65485005565483
554,497.6652816868123
555,497.67576274248836
556,497.6862865029651
557,497.696847265128
558,497.7074404269041
559,497.7180625947662
560,497.7287117102401
561,497.7393871897902
562,497.7500900714663
563,497.7608231616061
564,497.7715911752061
565,497.7824008633162
566,497.7932611197073
567,497.804183057678
568,497.8151800470533
569,497.82626770190126
570,497.83746381151667
571,497.84878821041605
572,497.8602625867098
573,497.8719102314441
574,497.88375573369495
575,497.8958246273986
576,497.90814299695006
577,497.9207370500537
578,497.93363266777027
579,497.94685494255816
580,497.9604277152145
581,497.9743731210336
582,497.98871115416404
583,498.00345925735246
584,498.01863194274546
585,498.03424044893876
586,498.05029244010836
587,498.0667917540713
588,498.08373820639815
589,498.1011274564699
590,498.1189509388185
591,498.13719586032585
592,498.1558452619281
593,498.1748781422647
594,498.19426963915896
595,498.21399126239703
596,498.2340111686534
597,498.25429446782294
598,498.27480355032844
599,498.2954984271584
600,498.3163370772081
601,498.3372757981709
602,498.35826955706005
603,498.37927233528853
604,498.4002374622932
605,498.42111793159023
606,498.4418666939422
607,498.46243692360173
608,498.48278225465725
609,498.50285698503615
610,498.5226162463098
611,498.5420161389964
612,498.561013835617
613,498.5795676562245
614,498.59763712237196
615,498.6151829954039
616,498.6321673042147
617,498.64855336674924
618,498.6643058085825
619,498.6793905809556
620,498.6937749801974
621,498.70742767113956
622,498.72031871874924
623,498.73241963346055
624,498.74370343514096
625,498.7541447382202
626,498.7637198576722
627,498.7724069337165
628,498.7801860724574
629,498.78703949936727
630,498.7929517218381
631,498.79790969605926
632,498.8019029928738
633,498.8049239573321
634,498.8069678572188
635,498.80803301672074
636,498.8081209325033
637,498.80723637031605
638,498.8053874404132
639,498.80258564973525
640,498.7988459286272
641,498.7941866305158
642,498.7886295044932
643,498.78219964245585
644,498.77492540341336
645,498.7668383174087
646,498.7579729704099
647,498.7483668699421
648,498.73806028958086
649,498.72709608937737
650,498.71551950929546
651,498.703377933559
652,498.69072062488965
653,498.67759842885283
654,498.66406345014184
655,498.65016870448034
656,498.63596775140115
657,498.6215143141877
658,498.6068618938797
659,498.5920633844495
660,498.5771706957816
661,498.5622343899535
662,498.5473033351493
663,498.5324243809653
664,498.5176420588446
665,498.5029983113014
666,498.48853225297256
667,498.474279965269
668,498.46027432475614
669,498.4465448638959
670,498.4331176620794
671,498.42001526529265
672,498.40725663390407
673,498.39485711912334
674,498.3828284691277
675,498.37117886583843
676,498.35991299344084
677,498.3490321403562
678,498.33853433727296
679,498.32841453427613
680,498.3186648193526
681,498.30927467855196
682,498.30023129563807
683,498.29151988717734
684,498.2831240681009
685,498.27502624252725
686,498.2672080143691
687,498.2596506116028
688,498.25233531738473
689,498.245243901055
690,498.2383590427379
691,498.23166474642005
692,498.22514673747963
693,498.2187928410897
694,498.2125933375118
695,498.20654128941356
696,498.20063283592117
697,498.194867448843
698,498.1892481479998
699,498.18378167378205
700,498.1784786154035
701,498.173353493339
702,498.1684247948893
703,498.163714962819
704,498.1592503380034
705,498.15506105743424
706,498.15118090873176
707,498.14764714195826
708,498.144500239484
709,498.1417836448879
710,498.13954345199653
711,498.1378280549413
712,498.1366877596847
713,498.1361743572657
714,498.1363406595232
715,498.13723999947194
716,498.138925700481
717,498.1414505205203
718,498.14486607985475
719,498.14922228246985
720,498.1545667425894
721,498.16094422755486
722,498.16839612743837
723,498.17695996053374
724,498.186668922402
725,498.1975514844936
726,498.2096310466735
727,498.2229256461803
728,498.23744772353774
729,498.2532039439986
730,498.27019507181996
731,498.2884158945567
732,498.3078551955235
733,498.3284957737675
734,498.3503145113207
735,498.3732824869987
736,498.39736513551645
737,498.4225224512806
738,498.4487092378195
739,498.4758754050334
740,498.5039663158986
741,498.5329231818822
742,498.562683503322
743,498.5931815487618
744,498.6243488662227
745,498.65611481916585
746,498.6884071396462
747,498.72115249039274
748,498.7542770263515
749,498.7877069450902
750,498.8213690150626
751,498.8551910716906
752,498.8891024738067
753,498.9230345166076
754,498.9569208003882
755,498.9906975555756
756,499.02430392401925
757,499.0576821955657
758,499.0907779991962
759,499.12354044983203
760,499.1559222543191
761,499.18787978149896
762,499.219373100921
763,499.2503659933625
764,499.2808259353299
765,499.3107240598924
766,499.3400350969301
767,499.3687372958148
768,499.3968123321304
769,499.42424519806417
770,499.4510240746353
771,499.47714018335955
772,499.50258761529517
773,499.5273631366629
774,499.5514659720819
775,499.5748975683654
776,499.59766134330334
777,499.6197624247742
778,499.6412073861016
779,499.6620039840345
780,499.6821609057644
781,499.70168753040986
782,499.72059370818164
783,499.73888955745633
784,499.75658527736977
785,499.7736909727349
786,499.79021648952795
787,499.806171261699
788,499.8215641719783
789,499.83640343000354
790,499.85069647082435
791,499.86444987597054
792,499.87766931757693
793,499.8903595234552
794,499.90252425842834
795,499.9141663161111
796,499.92528751601515
797,499.93588870238756
798,499.94596974229603
799,499.95552952084245
800,499.96456593181637
801,499.97307586329373
802,499.9810551791327
803,499.98849869789626
804,499.9954001703296
805,500.0017522560556
806,500.0075465002353
807,500.012773311228
808,500.0174219403677
809,500.0214804649614
810,500.0249357756365
811,500.02777356903977
812,500.0299783464223
813,500.0315334179816
814,500.0324209125554
815,500.0326217929774
816,500.03211587892355
817,500.0308818802395
818,500.0288974436692
819,500.02613921489257
820,500.0225829165464
821,500.0182034418028
822,500.0129749624848
823,500.0068710509948
824,499.9998648160864
825,499.9919290528595
826,499.9830364072475
827,499.97315955524175
828,499.9622713972137
829,499.9503452674
830,499.9373551576122
831,499.9232759528939
832,499.908083675838
833,499.89175573602915
834,499.87427118157524
835,499.85561095057517
836,499.8357581212455
837,499.8146981601614
838,499.79241916862395
839,499.7689121273694
840,499.7441711396407
841,499.7181936721565
842,499.6909807928792
843,499.66253740371474
844,499.63287246543763
845,499.6019992113883
846,499.5699353459626
847,499.5367032236027
848,499.5023300035869
849,499.4668477749068
850,499.43029364372995
851,499.39270977408916
852,499.3541433718442
853,499.3146466034847
854,499.27427644441883
855,499.23309445461757
856,499.19116648198053
857,499.1485622957777
858,499.1053551543999
859,499.0616213129895
860,499.0174394766927
861,498.97289020495504
862,498.92805527304336
863,498.88301699913114
864,498.8378575475684
865,498.792658220528
866,498.74749875148035
867,498.70245661514554
868,498.6576063690397
869,498.61301904095035
870,498.5687615749738
871,498.52489634659463
872,498.4814807548427
873,498.4385668970395
874,498.3962013294213
875,498.35442491503
876,498.31327275825214
877,498.27277422284766
878,498.2329530272406
879,498.19382740773955
880,498.1554103380058
881,498.1177097920242
882,498.08072903802343
883,498.0444669519546
884,498.00891834116106
885,497.974074271951
886,497.9399223988534
887,497.9064472974435
888,497.873630805105
889,497.84145237409297
890,497.80988943961717
891,497.7789178039378
892,497.74851203627435
893,497.71864588727334
894,497.6892927155554
895,497.66042592271924
896,497.63201939243544
897,497.60404792902636
