acceleration,velocity,displacement
-0.001643718166359193,0.0,0.0
-0.002273161851089468,-9.792200043621655e-07,-2.448050010905414e-10
-0.0029191912092568035,-2.277308269448733e-06,-1.058937069543266e-09
-0.0035808333500233847,-3.9023144092687805e-06,-2.6038427392226444e-09
-0.004257001503626552,-5.861773122681265e-06,-5.044864622210156e-09
-0.004946495666180168,-8.162647415132945e-06,-8.550969756663709e-09
-0.005648004210897665,-1.0811272384402404e-05,-1.3294449706547546e-08
-0.006360106557379864,-1.3813300076471787e-05,-1.9450592821766092e-08
-0.0070812769374538785,-1.7173645950180223e-05,-2.7197329328429095e-08
-0.00780988926032632,-2.0896437499625274e-05,-3.671485019088047e-08
-0.008544223074543984,-2.498496558334285e-05,-4.8185200961622504e-08
-0.0092824706328875,-2.9441639010200722e-05,-6.17918521100084e-08
-0.010022745065585637,-3.426794293481901e-05,-7.771924759626333e-08
-0.010763089650950639,-3.946440161395308e-05,-9.615233373345635e-08
-0.011501488149713444,-4.50305460641191e-05,-1.172760706529744e-07
-0.012235876143421554,-5.0964887137402854e-05,-1.4127492895335488e-07
-0.012964153278836415,-5.7264894492967346e-05,-1.6833237436094743e-07
-0.013684196267428391,-6.392698187953354e-05,-1.9863034345407266e-07
-0.014393872442822022,-7.094649905709614e-05,-2.3234871368823007e-07
-0.015091053663342523,-7.831773058363728e-05,-2.696647710984134e-07
-0.015773630360504283,-8.603390158959898e-05,-3.1075267914172246e-07
-0.016439525555943586,-9.408719056871095e-05,-3.557829521812999e-07
-0.017086708687776318,-0.00010246874912964092,-4.049219371058879e-07
-0.01771320911070007,-0.00011116872857926002,-4.5833130653311314e-07
-0.018317129168329106,-0.00012017631314901732,-5.161675669651825e-07
-0.0188966567725715,-0.00012947975963424247,-5.785815851609974e-07
-0.019450077449930932,-0.00013906644318986808,-6.457181358670251e-07
-0.019975785818867827,-0.00014892290900706776,-7.177154739162591e-07
-0.020472296443128354,-0.0001590349295725668,-7.947049335611677e-07
-0.020938253971162675,-0.00016938756717613956,-8.768105577483443e-07
-0.02137244243745389,-0.0001799652412782937,-9.641487598619525e-07
-0.021773793584630177,-0.0001907518002838147,-1.0568280202524795e-06
-0.02214139407473258,-0.0002017305971986554,-1.1549486196230972e-06
-0.02247449148619336,-0.00021288456858888687,-1.2586024110699828e-06
-0.022772499018202,-0.00022419631621498572,-1.367872632270951e-06
-0.02303499883276509,-0.0002356481906777275,-1.4828337589941292e-06
-0.023261743967062626,-0.0002472223763776844,-1.6035514007579821e-06
-0.023452658762380674,-0.00025890097706004523,-1.7300822391174145e-06
-0.023607837782340605,-0.0002706661011962256,-1.8624740086814822e-06
-0.02372754322170457,-0.0002824999464472369,-2.0007655205923478e-06
-0.023812200831271464,-0.0002943848824604809,-2.1449867278192774e-06
-0.023862394403649814,-0.0003063035312692112,-2.2951588312517004e-06
-0.023878858880882845,-0.00031823884459034437,-2.4512944252165894e-06
-0.023862472162759107,-0.00033017417735125486,-2.613397680701989e-06
-0.023814245718511498,-0.0003420933568215725,-2.781464564245196e-06
-0.02373531413213153,-0.0003539807467842333,-2.9554830901466474e-06
-0.023626923732445945,-0.00036582130625037766,-3.1354336034053003e-06
-0.023490420460995046,-0.0003776006422987379,-3.321289090542579e-06
-0.02332723711137346,-0.00038930505669183005,-3.513015515290221e-06
-0.023138880047510274,-0.000400921585981551,-3.7105721759585665e-06
-0.022926915495488667,-0.0004124380348673007,-3.91391208117078e-06
-0.02269295551176235,-0.00042384300261911345,-4.122982340542383e-06
-0.022438643754967024,-0.0004351259024357958,-4.337724566806111e-06
-0.022165641220408885,-0.0004462769736796398,-4.558075285834969e-06
-0.021875612127617065,-0.0004572872870166463,-4.783966351009041e-06
-0.021570210172538306,-0.00046814874259168513,-5.015325358411124e-06
-0.021251065361665586,-0.0004788540614752361,-5.252076059427855e-06
-0.02091977163413563,-0.0004893967707241864,-5.494138767477711e-06
-0.020577875447908074,-0.0004997711824946974,-5.741430755782432e-06
-0.02022686545789511,-0.0005099723677211482,-5.993866643336393e-06
-0.019868163354946115,-0.0005199961249243585,-6.25135876649777e-06
-0.01950311587660813,-0.0005298389447322471,-6.513817533911921e-06
-0.01913298795591428,-0.0005394979706903777,-6.781151762767577e-06
-0.01875895695516857,-0.0005489709569181484,-7.053268994669708e-06
-0.01838210793907638,-0.0005582562231417097,-7.3300757896846725e-06
-0.01800342996150483,-0.000567352607616855,-7.611477997374314e-06
-0.017623813360326358,-0.0005762594184473128,-7.897381003890356e-06
-0.01724404807752186,-0.0005849763838067748,-8.187689954453879e-06
-0.016864823047850752,-0.000593503601588118,-8.482309950802601e-06
-0.01648672671541066,-0.0006018414890289333,-8.781146223456863e-06
-0.01611024873135212,-0.000609990732890624,-9.084104278936753e-06
-0.01573578286350694,-0.0006179522407893387,-9.391090022356743e-06
-0.015363631120899406,-0.0006257270942854403,-9.702009856125439e-06
-0.014994009062488206,-0.0006333165043312872,-1.0016770755779621e-05
-0.014627052212257293,-0.0006407217696499735,-1.0335280324274937e-05
-0.014262823444498248,-0.0006479442385641625,-1.065744682632847e-05
-0.013901321149465948,-0.0006549852747126535,-1.0983179204647674e-05
-0.013542487956954275,-0.0006618462269892586,-1.1312387080073151e-05
-0.01318621978876752,-0.0006685284039256891,-1.1644980737801889e-05
-0.012832375023628717,-0.0006750330526287882,-1.1980871101940508e-05
-0.012480783580667136,-0.0006813613422798621,-1.231996970066767e-05
-0.012131255756044493,-0.00068751435211404,-1.2662188624266146e-05
-0.011783590677583538,-0.000693493063722447,-1.3007440478225267e-05
-0.011437584269268117,-0.0006992983574591599,-1.3355638333520668e-05
-0.011093036641179865,-0.0007049310126867719,-1.3706695676057151e-05
-0.010749758844075363,-0.0007103917115580857,-1.4060526357118365e-05
-0.010407578946001769,-0.0007156810460056049,-1.4417044546509288e-05
-0.010066347388683594,-0.0007207995275892762,-1.4776164689908008e-05
-0.009725941563760113,-0.0007257475998273872,-1.5137801471762173e-05
-0.00938626953241587,-0.0007305256526014312,-1.550186978486938e-05
-0.00904727281839583,-0.0007351340381891342,-1.586828470756702e-05
-0.008708928239197212,-0.0007395730884535325,-1.6236961489227684e-05
-0.008371248791826035,-0.0007438431327112882,-1.660781554451889e-05
-0.008034283659316762,-0.0007479445158240739,-1.698076245665273e-05
-0.00769811743757278,-0.0007518776160982964,-1.7355717989633323e-05
-0.007362868696581467,-0.0007556428626318349,-1.7732598109315854e-05
-0.007028687992409871,-0.0007592407518040827,-1.8111319012924834e-05
-0.00669575544001186,-0.0007626718626621881,-1.8491797166541402e-05
-0.006364277941086286,-0.0007659368710074627,-1.8873949349958814e-05
-0.006034486140549447,-0.0007690365620278717,-1.925769270821765e-05
-0.005706631167417649,-0.0007719718413548635,-1.964294480906333e-05
-0.005380981200604857,-0.0007747437444468691,-2.0029623705513764e-05
-0.005057817883604534,-0.0007773534442179215,-2.0417648002679962e-05
-0.004737432603383462,-0.0007798022568396685,-2.080693692794436e-05
-0.004420122666300637,-0.0007820916456570895,-2.119741040356855e-05
-0.004106187450583285,-0.0007842232231863105,-2.1588989120779403e-05
-0.003795924671458135,-0.0007861987512168208,-2.1981594614380186e-05
-0.0034896269336635107,-0.0007880201391181012,-2.2375149336963916e-05
-0.0031875787451955077,-0.000789689440537816,-2.2769576731877894e-05
-0.0028900541215432594,-0.0007912088487545007,-2.316480130420097e-05
-0.0025973148392343277,-0.000792580690994695,-2.356074868913827e-05
-0.002309609329012121,-0.0007938074220367567,-2.3957345717396135e-05
-0.002027172151947099,-0.0007948916174069964,-2.4354520477257072e-05
-0.0017502239805787816,-0.000795835966440128,-2.4752202373218853e-05
-0.0014789720052867073,-0.0007966432654365943,-2.5150322181188034e-05
-0.0012136106919956359,-0.0007973164111109149,-2.554881210032491e-05
-0.0009543228224012156,-0.0007978583944895141,-2.594760580172502e-05
-0.000701280753428833,-0.0007982722953834716,-2.6346638474193266e-05
-0.00045464784282479143,-0.0007985612775325351,-2.6745846867422267e-05
-0.00021457999685135022,-0.0007987285844924541,-2.7145169332928513e-05
1.877270841801128e-05,-0.0007987775363145624,-2.7544545863130266e-05
0.0002452644012609776,-0.0007987115270371427,-2.7943918128968194e-05
0.00046475187759719984,-0.0007985340229674281,-2.8343229516469337e-05
0.0006770932575513407,-0.000798248561683641,-2.8742425162632104e-05
0.000882146920308846,-0.000797858751639176,-2.914145199096281e-05
0.0010797707536323742,-0.0007973682722206907,-2.9540258746927775e-05
0.0012698216962172314,-0.0007967808741082283,-2.9938796033510007e-05
0.0014521555114369673,-0.0007961003798063148,-3.0337016346988644e-05
0.0016266267262886444,-0.0007953306842468833,-3.0734874113001946e-05
0.001793088691989639,-0.0007944757553923138,-3.113232572291174e-05
0.0019513937502331283,-0.0007935396347817581,-3.152932957045526e-05
0.0021013935081969316,-0.0007925264379671506,-3.1925846088642483e-05
0.0022429392394730458,-0.0007914403547802331,-3.232183778682933e-05
0.00237588244009216,-0.0007902856493603418,-3.2717269287864474e-05
0.002500075571102614,-0.0007890666598575431,-3.3112107365168945e-05
0.0026153730063524123,-0.0007877877977131793,-3.350632097956162e-05
0.002721632184191193,-0.0007864535464155435,-3.38998813155938e-05
0.0028187149475572383,-0.0007850684596326064,-3.429276181710584e-05
0.002906489050409548,-0.0007836371586331147,-3.468493822167227e-05
0.0029848298024637452,-0.0007821643289198963,-3.507638859356052e-05
0.003053621820342426,-0.0007806547160141947,-3.546709335479405e-05
0.0031127608644401644,-0.0007791131203429991,-3.585703531388335e-05
0.0031621557701389086,-0.0007775443911843544,-3.6246199691765183e-05
0.0032017305131834496,-0.0007759534196135237,-3.663457414446465e-05
0.0032314264628608446,-0.0007743451303695127,-3.702214878196041e-05
0.0032512048698762792,-0.0007727244725363283,-3.740891618268687e-05
0.003261049615722678,-0.0007710964089149286,-3.7794871403049685e-05
0.003260970218638942,-0.0007694659039563382,-3.8180011981267504e-05
0.0032510050453657758,-0.000767837910140337,-3.8564337934791673e-05
0.003231224627003901,-0.0007662173527222446,-3.894785175050732e-05
0.0032017349431183568,-0.000764609112829714,-3.9330558366895314e-05
0.0031626805368027747,-0.0007630180089597336,-3.9712465147342676e-05
0.003114247349573309,-0.0007614487769881396,-4.0093581843829645e-05
0.003056665197847751,-0.0007599060488512843,-4.04739205502895e-05
0.002990209832671326,-0.0007583943300936546,-4.085349564502574e-05
0.002915204525395303,-0.0007569179765041379,-4.1232323721675186e-05
0.002832021111950131,-0.0007554811700948015,-4.161042350832492e-05
0.0027410804212485433,-0.0007540878947115019,-4.19878157745265e-05
0.0026428520201185034,-0.0007527419116011601,-4.2364523226104665e-05
0.0025378532303154417,-0.0007514467352885516,-4.274057038782709e-05
0.002426647406361452,-0.0007502056101293824,-4.311598347418158e-05
0.0023098414962962315,-0.0007490214879037181,-4.3490790248689856e-05
0.002188082933098836,-0.0007478970067963693,-4.386501987236488e-05
0.002062055922050408,-0.000746834472082582,-4.4238702742084616e-05
0.00193247720367852,-0.0007458358388011498,-4.4611870319805546e-05
0.0018000913858744138,-0.0007449026966537616,-4.4984554953669276e-05
0.0016656659488970143,-0.0007440362573200687,-4.535678969216273e-05
0.0015299860308201892,-0.0007432373443251394,-4.5728608092574036e-05
0.0013938491004669247,-0.0007425063855423176,-4.61000440250409e-05
0.0012580596210818942,-0.0007418434083619304,-4.647113147351696e-05
0.001123423796768449,-0.0007412480375074677,-4.6841904334984306e-05
0.000990744466713864,-0.0007407194954415972,-4.721239621822157e-05
0.000860816167049456,-0.0007402566052831564,-4.758264024340276e-05
0.0007344203300874897,-0.0007398577961588721,-4.795266884376327e-05
0.0006123205541565649,-0.0007395211109378112,-4.832251357053744e-05
0.0004952578573512318,-0.0007392442163349342,-4.869220490235562e-05
0.00038394581603102125,-0.0007390244154165887,-4.90617720602935e-05
0.0002790654863165994,-0.0007388586625910018,-4.94312428297954e-05
0.00018126002972167156,-0.0007387435812119922,-4.980064339074615e-05
9.112901712315786e-05,-0.0007386754839502809,-5.0169998157036714e-05
9.222453179055213e-06,-0.0007386503960827054,-5.053932962704496e-05
-6.396537472265142e-05,-0.0007386640818130912,-5.0908658246518905e-05
-0.00012800207679573145,-0.0007387120736759708,-5.127800228539117e-05
-0.00018252320634887747,-0.0007387897049967569,-5.164737773005935e-05
-0.0002272380047491084,-0.0007388921452995314,-5.201679819263342e-05
-0.0002619346810162557,-0.0007390144384709727,-5.238627483857605e-05
-0.0002864850623245364,-0.0007391515434068079,-5.275581633404549e-05
-0.0003008484673688019,-0.0007392983767892312,-5.31254288140945e-05
-0.0003050746941130614,-0.0007394498575796017,-5.3495115872686705e-05
-0.0002993060639164292,-0.0007396009527691091,-5.3864878575273885e-05
-0.0002837785055129466,-0.0007397467239114665,-5.423471549444403e-05
-0.0002588216883106594,-0.0007398823739599224,-5.460462276891188e-05
-0.00022485822854576557,-0.0007400032939391364,-5.497459418588664e-05
-0.0001824019974661202,-0.0007401051089956394,-5.534462128662034e-05
-0.00013205555991561039,-0.0007401837233849848,-5.571469349471549e-05
-7.450676343025432e-05,-0.0007402353639658212,-5.6084798266553195e-05
-1.0524481005631196e-05,-0.0007402566217769302,-5.645492126298888e-05
5.904650749319841e-05,-0.0007402444912703083,-5.682504654125069e-05
0.00013329151801903607,-0.0007401964067639303,-5.719515676575925e-05
0.00021123286521404635,-0.000740110275668122,-5.7565233436367264e-05
0.00029183766312090246,-0.0007399845080360382,-5.79352571322933e-05
0.00037402649165383967,-0.0007398180419973446,-5.8305207769801646e-05
0.00045668285372908474,-0.0007396103646609988,-5.8675064871466234e-05
0.0005386632956347789,-0.0007393615281236579,-5.90448078446624e-05
0.0006188080180085943,-0.000739072160295247,-5.941441626676713e-05
0.0006959517875231385,-0.000738743470343864,-5.9783870174426906e-05
0.0007689349783368725,-0.000738377248652399,-6.015315035417597e-05
0.0008366146151942497,-0.0007379758612540162,-6.052223863165258e-05
0.0008978753322364905,-0.0007375422387671585,-6.0891118156657876e-05
0.0009516401820054052,-0.000737079859888598,-6.125977368132181e-05
0.0009968812201566492,-0.0007365927295380575,-6.162819182867847e-05
0.0010326297627093115,-0.000736085351792341,-6.199636134901106e-05
0.0010579861872184236,-0.000735562697804859,-6.236427336141036e-05
0.0010721291484474826,-0.0007350301689709425,-6.273192157810431e-05
0.0010743241024434062,-0.0007344935556582198,-6.30993025092616e-05
0.00106393106054105,-0.0007339589918674736,-6.346641564614302e-05
0.0010404115161623934,-0.0007334329062232978,-6.383326362066571e-05
0.0010033345145240222,-0.0007329219697156261,-6.419985233965044e-05
0.0009523818763708629,-0.0007324330406179024,-6.456619109223382e-05
0.0008873526221998392,-0.0007319731069932596,-6.493229262913661e-05
0.0008081666511592311,-0.0007315492271749199,-6.529817321267865e-05
0.0007148677148812734,-0.0007311684685834097,-6.566385263661824e-05
0.0006076257107825233,-0.0007308378452269938,-6.602935421507084e-05
0.0004867383073595731,-0.0007305642542224583,-6.63947047399332e-05
0.0003526318991266421,-0.0007303544116708368,-6.675993440640653e-05
0.00020586187381385472,-0.0007302147882276017,-6.712507670638113e-05
4.711217119472129e-05,-0.0007301515447163495,-6.749016828961712e-05
-0.00012280587682386373,-0.0007301704681427567,-6.78552487928319e-05
-0.00030295542381792524,-0.0007302769084679172,-6.822036063698457e-05
-0.0004922767008862465,-0.0007304757164990932,-6.858554879322632e-05
-0.0006895903257493609,-0.0007307711832557521,-6.895086051816503e-05
-0.0008936013390269435,-0.0007311669811719462,-6.931634505927195e-05
-0.0011029039821962147,-0.000731666107502252,-6.96820533314405e-05
-0.0013159872358262266,-0.0007322708303067575,-7.004803756589276e-05
-0.0015312411489070634,-0.0007329826374029408,-7.041435093282018e-05
-0.0017469640114141636,-0.0007338021886930211,-7.078104713934417e-05
-0.00196137043619077,-0.0007347292723049224,-7.114818000459366e-05
-0.002172600404223442,-0.0007357627650150259,-7.151580301392365e-05
-0.002378729292141742,-0.0007369005974391171,-7.188396885453718e-05
-0.0025777788617416778,-0.000738139724477588,-7.225272893501636e-05
-0.002767729161363239,-0.0007394761014833642,-7.26221328915066e-05
-0.0029465312707605685,-0.0007409046665913952,-7.29922280835253e-05
-0.0031121208135200425,-0.0007424193296124653,-7.336305908257627e-05
-0.0032624321577987463,-0.000744012967855295,-7.373466715694321e-05
-0.0033954132185076424,-0.0007456774291993716,-7.410708975620688e-05
-0.0035090407594670406,-0.0007474035426938653,-7.448035999918018e-05
-0.00360133607466323,-0.0007491811369023979,-7.485450616907925e-05
-0.0036703809052193023,-0.0007509990661473685,-7.52295512198417e-05
-0.00371433342728243,-0.0007528452447304939,-7.560551229756116e-05
-0.0037314441345849938,-0.0007547066891209608,-7.598240028102403e-05
-0.003720071440984267,-0.000756569568014853,-7.636021934530798e-05
-0.003678696831766319,-0.0007584192600830407,-7.673896655233246e-05
-0.0036059393836793134,-0.0007602404191369021,-7.711863147213744e-05
-0.0035005694556789614,-0.0007620170463467417,-7.749919583850836e-05
-0.003361521345315187,-0.0007637325690469902,-7.788063324235679e-05
-0.0031879047223906344,-0.0007653699255639166,-7.826290886600952e-05
-0.002979014681169547,-0.0007669116554148067,-7.86459792612542e-05
-0.0027343402763488262,-0.0007683399941541863,-7.902979217364646e-05
-0.002453571425230884,-0.0007696369720795812,-7.94142864152049e-05
-0.0021366040851090295,-0.0007707845159571662,-7.97993917872141e-05
-0.0017835436616712296,-0.0007717645528938612,-8.018502905442685e-05
-0.0013947066619294948,-0.0007725591154747614,-8.0571109971519e-05
-0.0009706206539981687,-0.0007731504473037433,-8.095753736221364e-05
-0.0005120226244047078,-0.000773521108123344,-8.134420525107041e-05
-1.9855833298016143e-05,-0.0007736540777377697,-8.173099904753569e-05
0.0005047347344329592,-0.000773532858012486,-8.211779578147326e-05
0.001060408235024007,-0.0007731415722701218,-8.250446438904391e-05
0.0016456350813199442,-0.0007724650614410358,-8.28908660474717e-05
0.00225870526711928,-0.000771488976353926,-8.327685455692043e-05
0.002897737881146198,-0.0007701998655668596,-8.366227676740062e-05
0.003560691789371213,-0.0007685852581492302,-8.404697304832964e-05
0.004245377430840864,-0.0007666337408441772,-8.4430777798078e-05
0.004949469621268184,-0.0007643350290811499,-8.481351999055932e-05
0.005670521214466149,-0.0007616800313722163,-8.519502375567267e-05
0.006405977447071016,-0.000758660906706832,-8.557510899019243e-05
0.00715319078399036,-0.0007552711146490667,-8.595359199553141e-05
0.007909436084357383,-0.0007515054579319797,-8.633028613867667e-05
0.00867192591808375,-0.0007473601174313695,-8.670500253251751e-05
0.009437825880588542,-0.0007428326794817014,-8.707755073174578e-05
0.010204269776159508,-0.0007379221555675144,-8.744773944050808e-05
0.010968374565998706,-0.0007326289944819749,-8.781537722802045e-05
0.011727255001195473,-0.0007269550870901764,-8.818027324841349e-05
0.012478037880202327,-0.0007209037638698269,-8.854223796115349e-05
0.013217875883724261,-0.0007144797854288453,-8.890108384847815e-05
0.0139439609478242,-0.0007076893262209582,-8.92566261263906e-05
0.014653537137515184,-0.0007005399516996233,-8.960868344587075e-05
0.015343912978121934,-0.0006930405891707141,-8.995707858108834e-05
0.016012473197463295,-0.0006852014926268178,-9.030163910153773e-05
0.016656689837058574,-0.0006770342018681873,-9.064219802516147e-05
0.017274132703790263,-0.000668551496232975,-9.097859444968676e-05
0.017862479148068093,-0.0006597673432700104,-9.13106741595625e-05
0.018419523171026974,-0.0006506968426902367,-9.163829020605257e-05
0.01894318388334078,-0.0006413561659266448,-9.196130345820679e-05
