frame_number,force
0,497.94024339392183
1,497.9088762833327
2,497.87685925393674
3,497.8442411454621
4,497.8110749574456
5,497.7774177581501
6,497.74333056161663
7,497.7088781706916
8,497.6741289853587
9,497.6391547767162
10,497.6040304271156
11,497.56883363676565
12,497.53364459715146
13,497.49854563208623
14,497.4636208078565
15,497.4289555146484
16,497.3946360225033
17,497.36074901651176
18,497.3273811172256
19,497.29461839269686
20,497.2625458681734
21,497.2312470388827
22,497.20080339081613
23,497.17129393377013
24,497.14279474994777
25,497.1153785604047
26,497.08911431091155
27,497.0640667786576
28,497.04029620171747
29,497.01785793411943
30,496.99680213025647
31,496.9771734628067
32,496.95901087802724
33,496.94234739146793
34,496.92720992641785
35,496.91361919711596
36,496.9015896386449
37,496.8911293850061
38,496.8822402961024
39,496.8749180335233
40,496.8691521843174
41,496.8649264313642
42,496.8622187684702
43,496.86100175778034
44,496.86124282640304
45,496.8629045983567
46,496.86594525733534
47,496.87031893570804
48,496.8759761256689
49,496.8828641091479
50,496.89092740342346
51,496.9001082191324
52,496.91034692669297
53,496.92158252627223
54,496.9337531155638
55,496.9467963490583
56,496.960649882334
57,496.97525179520864
58,496.99054098842294
59,497.00645754985914
60,497.0229430879315
61,497.03994103139405
62,497.05739689605576
63,497.07525851944763
64,497.0934762643093
65,497.11200319124777
66,497.1307952003986
67,497.149811141329
68,497.169012889741
69,497.1883653891286
70,497.20783665574385
71,497.22739774588354
72,497.2470226853023
73,497.2666883615172
74,497.28637438110025
75,497.3060628956847
76,497.3257384019182
77,497.3453875215224
78,497.3649987678284
79,497.3845623048453
80,497.4040697043227
81,497.423513705518
82,497.4428879815695
83,497.46218691565963
84,497.4814053895187
85,497.5005385861886
86,497.5195818084806
87,497.5385303145667
88,497.5573791726295
89,497.57612313696114
90,497.5947565477248
91,497.6132732556425
92,497.63166657145644
93,497.6499292386415
94,497.6680534269303
95,497.68603074380314
96,497.7038522610262
97,497.7215085534833
98,497.73898974796754
99,497.7562855801519
100,497.77338545843315
101,497.79027853374106
102,497.8069537748463
103,497.82340004891824
104,497.83960620658553
105,497.8555611694532
106,497.87125401646153
107,497.88667406439237
108,497.90181093783355
109,497.91665462511406
110,497.9311955186354
111,497.9454244398804
112,497.9593326506536
113,497.9729118526666
114,497.98615417761755
115,497.9990521697335
116,498.0115987625893
117,498.02378725184707
118,498.0356112652663
119,498.0470647310716
120,498.0581418458738
121,498.068837043889
122,498.0791449698651
123,498.08906045840007
124,498.09857852180323
125,498.10769434730764
126,498.11640330284047
127,498.12470094946514
128,498.1325830584751
129,498.1400456317344
130,498.1470849246148
131,498.15369747140267
132,498.159880113433
133,498.1656300305405
134,498.17094477648374
135,498.17582231865106
136,498.18026108182056
137,498.18425999535896
138,498.1878185430774
139,498.1909368148105
140,498.19361555868795
141,498.19585623339026
142,498.1976610604991
143,498.1990330779233
144,498.1999761957765
145,498.20049525591725
146,498.2005960958291
147,498.2002856166726
148,498.1995718541011
149,498.19846404905945
150,498.1969727148724
151,498.19510969691066
152,498.19288822186445
153,498.19032293457747
154,498.18742992096384
155,498.18422671558216
156,498.18073229218624
157,498.17696703540264
158,498.17295269189077
159,498.1687122999985
160,498.1642700978551
161,498.1596514107762
162,498.15488251957515
163,498.14999051187
164,498.14500311888395
165,498.13994854063094
166,498.1348552626631
167,498.129751867672
168,498.1246668452251
169,498.11962840281797
170,498.1146642811158
171,498.10980157551415
172,498.1050665649068
173,498.1004845471658
174,498.0960796798296
175,498.0918748239335
176,498.0878913885617
177,498.08414917360835
178,498.0806662088432
179,498.077458588807
180,498.07454030489924
181,498.0719230776873
182,498.0696161935951
183,498.06762635058453
184,498.065957517454
185,498.06461081131795
186,498.063584397764
187,498.06287341771747
188,498.06246994391853
189,498.06236296849295
190,498.0625384219232
191,498.0629792229727
192,498.06366535868966
193,498.0645739934257
194,498.0656796057859
195,498.0669541526185
196,498.06836725957993
197,498.0698864382761
198,498.0714773301612
199,498.07310397716327
200,498.0747291184746
201,498.0763145121046
202,498.07782127859576
203,498.0792102628497
204,498.08044240875756
205,498.08147914084844
206,498.0822827476808
207,498.08281676287356
208,498.0830463408333
209,498.0829386247991
210,498.0824631045924
211,498.0815919606843
212,498.0803003905197
213,498.07856691303255
214,498.0763736479573
215,498.07370656732746
216,498.0705557171711
217,498.0669154082007
218,498.06278437545575
219,498.05816590787464
220,498.05306794902816
221,498.04750316991573
222,498.0414890143474
223,498.0350477171577
224,498.02820629514645
225,498.0209965102867
226,498.01345480470667
227,498.0056222072944
228,497.99754421214067
229,497.98927062915834
230,497.98085540710963
231,497.9723564291234
232,497.9638352807186
233,497.95535699029
234,497.94698974172695
235,497.9388045583005
236,497.9308749566125
237,497.92327656977454
238,497.9160867399846
239,497.90938408177414
240,497.9032480180472
241,497.8977582915578
242,497.8929944546971
243,497.8890353405674
244,497.8859585185418
245,497.88383973790866
246,497.88275236373283
247,497.88276680967834
248,497.88394997310934
249,497.88636467808533
250,497.89006913180265
251,497.895116399911
252,497.90155390634226
253,497.90942296374845
254,497.9187583407948
255,497.92958787205214
256,497.9419321153717
257,497.95580406091324
258,497.9712088954732
259,497.9881438249687
260,498.00659795659
261,498.02655224048857
262,498.04797946946485
263,498.0708443342752
264,498.09510353184476
265,498.12070592367076
266,498.1475927419298
267,498.1756978412795
268,498.2049479950057
269,498.23526323469497
270,498.26655723249036
271,498.29873772401027
272,498.3317069685568
273,498.36536224197494
274,498.3995963567975
275,498.4342982040421
276,498.46935331105175
277,498.50464441001037
278,498.54005201220974
279,498.57545498374304
280,498.61073111897633
281,498.6457577087903
282,498.6804121011036
283,498.714572251539
284,498.7481172623088
285,498.7809279074366
286,498.812887142297
287,498.84388059535445
288,498.87379704013205
289,498.902528845828
290,498.9299724054208
291,498.9560285405838
292,498.9806028833098
293,499.003606234538
294,499.02495489981965
295,499.04457100115843
296,499.0623827631761
297,499.07832477118853
298,499.0923381986172
299,499.1043710012659
300,499.1143780764311
301,499.1223213856755
302,499.12817004104124
303,499.1319003549655
304,499.1334958540839
305,499.1329472569722
306,499.1302524161637
307,499.12541622550174
308,499.11845049478916
309,499.10937379444925
310,499.09821127318145
311,499.0849944513018
312,499.06976099196964
313,499.05255445227266
314,499.0334240161457
315,499.01242421096896
316,498.98961460927694
317,498.96505951663306
318,498.93882764672435
319,498.9109917850338
320,498.88162844282556
321,498.8508175035906
322,498.81864186456363
323,498.78518707637096
324,498.75054098424124
325,498.71479337449017
326,498.67803563012967
327,498.64036039935473
328,498.60186128014317
329,498.56263252309253
330,498.5227687529865
331,498.4823647077897
332,498.4415149922951
333,498.4003138427992
334,498.3588548990292
335,498.3172309799719
336,498.27553386106564
337,498.2338540512488
338,498.1922805695644
339,498.1509007223876
340,498.10979988369917
341,498.0690612819233
342,498.02876579752524
343,497.9889917757194
344,497.94981485814793
345,497.91130783634645
346,497.87354052859456
347,497.8365796806075
348,497.8004888894435
349,497.7653285489501
350,497.7311558143063
351,497.69802458297335
352,497.6659854895752
353,497.63508591265344
354,497.60536999161747
355,497.57687865229246
356,497.5496496393676
357,497.52371755426304
358,497.4991138978988
359,497.47586711931996
360,497.4540026722988
361,497.4335430821962
362,497.41450802455853
363,497.3969144159363
364,497.38077651695625
365,497.36610604776286
366,497.3529123159196
367,497.34120235620827
368,497.33098108058107
369,497.3222514353387
370,497.31501456189255
371,497.30926995731016
372,497.3050156310923
373,497.30224825513824
374,497.30096330446554
375,497.30115518676206
376,497.30281735910256
377,497.3059424302401
378,497.31052224688705
379,497.31654796229304
380,497.32401008524135
381,497.3328985076214
382,497.34320250917887
383,497.3549107386577
384,497.3680111710566
385,497.382491041258
386,497.3983367550792
387,497.41553377975197
388,497.43406651659836
389,497.4539181590185
390,497.4750705390374
391,497.4975039658746
392,497.52119706027077
393,497.5461265882171
394,497.5722672970046
395,497.59959175546373
396,497.62807019958035
397,497.65767038461144
398,497.6883574450291
399,497.72009376390605
400,497.7528388540132
401,497.7865492540205
402,497.82117844411783
403,497.8566767854265
404,497.8929914868368
405,497.9300666019716
406,497.9678430581898
407,498.00625871880686
408,498.04524847879486
409,498.08474439312033
410,498.1246758357901
411,498.1649696869187
412,498.20555054489466
413,498.24634096093035
414,498.2872616935616
415,498.32823198061345
416,498.36916982578595
417,498.4099922967082
418,498.4506158312554
419,498.49095654901777
420,498.53093056499125
421,498.5704543028538
422,498.60944480541576
423,498.64782003974153
424,498.68549919406894
425,498.72240296332967
426,498.75845382015206
427,498.7935762687659
428,498.82769707995607
429,498.8607455058488
430,498.89265347382474
431,498.92335575939524
432,498.95279013854923
433,498.9808975207678
434,499.00762206433836
435,499.0329112755462
436,499.0567160928283
437,499.07899095636975
438,499.0996938633053
439,499.1187864087347
440,499.13623381295304
441,499.152004935467
442,499.1660722766596
443,499.1784119685186
444,499.18900375644
445,499.19783097431804
446,499.20488051489025
447,499.21014279698517
448,499.2136117311353
449,499.21528468473343
450,499.215162447373
451,499.2132491964762
452,499.2095524630431
453,499.20408309730016
454,499.196855233982
455,499.18788625682345
456,499.1771967615283
457,499.1648105161689
458,499.1507544179365
459,499.1350584456349
460,499.1177556081462
461,499.0988818899144
462,499.0784761950337
463,499.0565802916015
464,499.03323875745264
465,499.00849892738535
466,498.98241084117217
467,498.9550271915737
468,498.92640327210626
469,498.8965969248469
470,498.8656684886369
471,498.8336807475706
472,498.8006988786851
473,498.76679039641596
474,498.73202508988123
475,498.69647494782055
476,498.6602140656212
477,498.62331852970584
478,498.5858662763291
479,498.54793692368355
480,498.5096115775006
481,498.4709726110448
482,498.4321034208069
483,498.393088159471
484,498.35401144803114
485,498.31495806935
486,498.2760126458259
487,498.237259304047
488,498.1987813293897
489,498.16066081351687
490,498.1229782976818
491,498.0858124148062
492,498.0492395335595
493,498.01333340800664
494,497.97816483662706
495,497.94380133461374
496,497.9103068233843
497,497.8777413411605
498,497.8461607782617
499,497.8156166404697
500,497.78615584351763
501,497.7578205413301
502,497.73064798996916
503,497.7046704484127
504,497.67991511666617
505,497.6564041115003
506,497.6341544800969
507,497.6131782517282
508,497.59348252724396
509,497.57506960578047
510,497.5579371478211
511,497.5420783734221
512,497.5274822938426
513,497.5141339738753
514,497.5020148208624
515,497.49110289492586
516,497.4813732338095
517,497.47279818537004
518,497.46534774114946
519,497.45898986515607
520,497.4536908125228
521,497.44941543310335
522,497.4461274556847
523,497.4437897495672
524,497.4423645617328
525,497.4418137295706
526,497.442098870932
527,497.4431815545878
528,497.4450234545397
529,497.4475864913135
530,497.45083296284326
531,497.45472566713073
532,497.45922801847837
533,497.4643041586422
534,497.4699190636605
535,497.4760386463706
536,497.4826298538284
537,497.4896607581388
538,497.49710063871396
539,497.50492005384444
540,497.51309089985324
541,497.5215864568686
542,497.5303814209857
543,497.5394519231013
544,497.54877553518713
545,497.55833126533844
546,497.56809954346727
547,497.5780621998513
548,497.58820243884037
549,497.5985048098486
550,497.608955177429
551,497.6195406919975
552,497.6302497627745
553,497.6410720346828
554,497.65199837111686
555,497.66302084447403
556,497.67413273593513
557,497.6853285452253
558,497.69660401017603
559,497.70795613499797
560,497.7193832252769
561,497.7308849268791
562,497.74246226543085
563,497.7541176830061
564,497.76585506883976
565,497.7776797807577
566,497.78959865342847
567,497.8016199888043
568,497.81375352369093
569,497.8260103696439
570,497.8384029214875
571,497.8509447324846
572,497.8636503561386
573,497.87653515635407
574,497.88961508886206
575,497.90290645746217
576,497.9164256491943
577,497.93018885333026
578,497.9442117698556
579,497.95850931356085
580,497.9730953199106
581,497.98798225852477
582,498.0031809593723
583,498.0187003557898
584,498.0345472476032
585,498.05072608734764
586,498.0672387929099
587,498.08408459044426
588,498.10125989153397
589,498.1187582078864
590,498.13657010544523
591,498.15468319828625
592,498.17308218159684
593,498.1917489023603
594,498.21066246550635
595,498.22979937195333
596,498.2491336835311
597,498.26863720889065
598,498.28827970465164
599,498.30802908719363
600,498.3278516519983
601,498.3477122983325
602,498.3675747569526
603,498.38740181786903
604,498.407155554688
605,498.42679754197457
606,498.4462890624997
607,498.4655913019137
608,498.48466552895246
609,498.50347325955903
610,498.5219764036147
611,498.5401373938102
612,498.5579192975618
613,498.575285914211
614,498.5922018604176
615,498.6086326466152
616,498.6245447470021
617,498.6399056650803
618,498.65468399625365
619,498.66884948848997
620,498.682373101818
621,498.6952270678128
622,498.707384951108
623,498.7188217156637
624,498.7295137982487
625,498.7394391903059
626,498.7485775278601
627,498.7569101881622
628,498.7644203914324
629,498.7710933059211
630,498.7769161541558
631,498.7818783177474
632,498.78597143782133
633,498.7891895082003
634,498.7915289587877
635,498.79298872710723
636,498.7935703165695
637,498.7932778405203
638,498.792118051237
639,498.7901003528767
640,498.78723679731075
641,498.78354206214806
642,498.7790334110911
643,498.77373063770875
644,498.76765599424454
645,498.76083410700244
646,498.7532918792829
647,498.745058381994
648,498.73616473118295
649,498.7266439511763
650,498.7165308220263
651,498.70586171041043
652,498.69467438371726
653,498.68300780771887
654,498.67090192910115
655,498.6583974451164
656,498.64553556347136
657,498.632357756109
658,498.6189055108647
659,498.605220085078
660,498.59134226497116
661,498.5773121339752
662,498.5631688525393
663,498.54895045163056
664,498.5346936420987
665,498.5204336420186
666,498.5062040237616
667,498.4920365818421
668,498.477961221672
669,498.46400586852496
670,498.45019639560627
671,498.4365565703195
672,498.4231080184175
673,498.4098702062715
674,498.3968604417083
675,498.3840938938358
676,498.3715836323115
677,498.35934068682275
678,498.3473741280091
679,498.3356911712728
680,498.32429730449684
681,498.31319643959523
682,498.3023910864879
683,498.2918825470621
684,498.28167112618326
685,498.27175635667845
686,498.2621372350682
687,498.2528124644775
688,498.24378070077853
689,498.23504079795083
690,498.226592049008
691,498.21843441948647
692,498.21056877109123
693,498.2029970733514
694,498.1957226009367
695,498.1887501138286
696,498.1820860173317
697,498.1757384993257
698,498.16971764299063
699,498.1640355139079
700,498.15870622064887
701,498.1537459480041
702,498.1491729622789
703,498.14500758865194
704,498.1412721611539
705,498.13799094607896
706,498.1351900395568
707,498.13289723985076
708,498.13114189494996
709,498.1299547261729
710,498.1293676285875
711,498.1294134489542
712,498.13012574168704
713,498.1315385032324
714,498.13368588555926
715,498.13660189022806
716,498.1403200455824
717,498.14487307075643
718,498.1502925313368
719,498.15660849254436
720,498.1638491763842
721,498.1720406291547
722,498.1812064052166
723,498.1913672722476
724,498.20254094240414
725,498.2147418329006
726,498.2279808585843
727,498.24226525809377
728,498.25759845407674
729,498.27397994687567
730,498.29140524036944
731,498.3098657985703
732,498.32934903206774
733,498.3498383140251
734,498.3713130256318
735,498.39374863061556
736,498.417116778117
737,498.44138543351926
738,498.46651903765684
739,498.49247869545945
740,498.51922239476096
741,498.5467052546951
742,498.5748798014502
743,498.6036962679109
744,498.63310291314565
745,498.6630463575593
746,498.6934719293743
747,498.7243240176749
748,498.7555464265896
749,498.78708272456356
750,498.8188765824471
751,498.85087209464234
752,498.8830140789416
753,498.9152483526413
754,498.9475219842027
755,498.97978352041014
756,499.0119831886842
757,499.04407307371685
758,499.07600726774217
759,499.1077419947613
760,499.1392357103551
761,499.1704491794921
762,499.2013455345698
763,499.23189031520087
764,499.26205149074514
765,499.2917994667052
766,499.32110707652845
767,499.34994956034933
768,499.3783045314684
769,499.4061519303294
770,499.4334739649885
771,499.46025503679107
772,499.4864816501888
773,499.5121423063238
774,499.53722738103403
775,499.56172898898456
776,499.5856408364532
777,499.6089580658154
778,499.63167709510344
779,499.6537954562833
780,499.6753116359283
781,499.6962249214559
782,499.7165352549088
783,499.73624309466146
784,499.75534928403135
785,499.7738549253458
786,499.7917612587992
787,499.80906954679494
788,499.8257809655016
789,499.841896505708
790,499.8574168849112
791,499.8723424720995
792,499.8866732257736
793,499.90040864433263
794,499.9135477265545
795,499.9260889392766
796,499.9380301897445
797,499.9493688009089
798,499.9601014885321
799,499.9702243391459
800,499.97973278811594
801,499.9886215976926
802,499.9968848356907
803,500.00451585573177
804,500.01150727973925
805,500.01785098310745
806,500.0235380829877
807,500.0285589302646
808,500.03290310581906
809,500.036559421644
810,500.0395159273669
811,500.04175992264453
812,500.0432779756184
813,500.0440559472417
814,500.04407902111615
815,500.0433317388454
816,500.04179804170946
817,500.0394613200765
818,500.036304471912
819,500.0323099711841
820,500.0274599462834
821,500.0217362679696
822,500.01512064602457
823,500.00759473394476
824,499.9991402414028
825,499.98973905439675
826,499.9793733629374
827,499.96802579611284
828,499.95567956443165
829,499.9423186091918
830,499.9279277580838
831,499.91249288552206
832,499.8960010756626
833,499.8784407859438
834,499.8598020092676
835,499.8400764334346
836,499.819257596933
837,499.79734104059906
838,499.77432445498584
839,499.7502078234119
840,499.7249935605768
841,499.698686646397
842,499.67129475439623
843,499.64282837359895
844,499.6133009224493
845,499.5827288529032
846,499.5511317425836
847,499.5185323727523
848,499.4849567896546
849,499.4504343462781
850,499.4149977206277
851,499.3786829056411
852,499.34152916557366
853,499.30357895452653
854,499.2648777944749
855,499.2254741119158
856,499.1854190336187
857,499.144766143053
858,499.10357120009394
859,499.06189182734244
860,499.01978716649324
861,498.9773175080207
862,498.93454389786154
863,498.89152772594036
864,498.84833030261126
865,498.805012429931
866,498.7616339753501
867,498.7182534560413
868,498.6749276423252
869,498.6317111882098
870,498.58865629612126
871,498.5458124217212
872,498.50322602335945
873,498.4609403593196
874,498.41899533478926
875,498.37742739942877
876,498.33626949529804
877,498.29555105349766
878,498.2552980361892
879,498.21553301895216
880,498.17627530713236
881,498.1375410792298
882,498.09934355044555
883,498.0616931501032
884,498.024597707724
885,497.9880626441666
886,497.9520911664137
887,497.9166844667809
888,497.88184192863633
889,497.847561340701
890,497.81383912109425
891,497.78067055133926
892,497.74805001989
893,497.71597127416203
894,497.6844276793835
895,497.6534124819612
896,497.62291907465743
897,497.5929412607472
