acceleration,velocity,displacement
-0.026918507357920927,0.0,0.0
-0.025923770069869588,-1.321056935694763e-05,-3.3026423392369074e-09
-0.024931956384951878,-2.5924500970652993e-05,-1.3086409921137062e-08
-0.02394596758197999,-3.814398196238596e-05,-2.9103530654396806e-08
-0.022968660610564243,-4.987263901052202e-05,-5.1107685897623796e-08
-0.022002826705935202,-6.111551083964688e-05,-7.885472336016602e-08
-0.02105117089475377,-7.187901023981912e-05,-1.1210335363003252e-07
-0.020116292633491035,-8.217087612188032e-05,-1.5061582522045738e-07
-0.019200667795932738,-9.200011622923626e-05,-1.9415857330823653e-07
-0.018306632203158143,-0.00010137694122900898,-2.425028376727978e-07
-0.017436366863920714,-0.0001103126909957787,-2.954252457289947e-07
-0.016591885066853836,-0.00011881975397847234,-3.5270835697255746e-07
-0.015775021441616906,-0.00012691148060559003,-4.1414116561857304e-07
-0.014987423082397129,-0.00013460209173659352,-4.795195587041189e-07
-0.014230542798138948,-0.00014190658320672753,-5.486467274399492e-07
-0.013505634516300276,-0.00014884062753533735,-6.213335301254654e-07
-0.012813750820585761,-0.00015542047386955885,-6.973988054766895e-07
-0.012155742550548512,-0.00016166284721234243,-7.766696357471648e-07
-0.011532260338321497,-0.00016758484793455994,-8.589815595338903e-07
-0.010943757915849084,-0.00017320385249810258,-9.44178734642056e-07
-0.010390497003329932,-0.00017853741622789732,-1.032114051823556e-06
-0.00987255358828981,-0.00018360317887580226,-1.122649200599481e-06
-0.009389825419348132,-0.00018841877362771173,-1.2156546887253594e-06
-0.008942040556987559,-0.00019300174012179566,-1.3110098171627364e-06
-0.00852876683353185,-0.0001973694419694255,-1.4086026126855416e-06
-0.008149422072099398,-0.0002015389891958333,-1.5083297204768563e-06
-0.0078032849072922576,-0.00020552716594068123,-1.610096259260985e-06
-0.00748950605059036,-0.00020935036368015188,-1.7138156416661932e-06
-0.007207119857442362,-0.00021302452015716005,-1.819409362625521e-06
-0.006955056076565065,-0.0002165650641406619,-1.9268067586999767e-06
-0.006732151683616158,-0.0002199868660807072,-2.035944741255319e-06
-0.006537162711598487,-0.00022330419467951086,-2.1467675064453733e-06
-0.006368775991270103,-0.000226530679355228,-2.259226224954058e-06
-0.0062256207174373945,-0.0002296792785324049,-2.373278714425966e-06
-0.006106279767240241,-0.00023276225365357432,-2.4888890974724607e-06
-0.006009300710400794,-0.00023579114877298458,-2.6060274480791003e-06
-0.0059332064632104,-0.00023877677556638738,-2.724669429163943e-06
-0.005876505546268374,-0.00024172920356875708,-2.844795923947729e-06
-0.005837701910019493,-0.00024465775543282904,-2.9663926636981257e-06
-0.005815304291027588,-0.0002475710069830908,-3.0894498543021055e-06
-0.005807835058145312,-0.000250476791820384,-3.2139618040029744e-06
-0.005813838505560695,-0.0002533822102113105,-3.339926554510898e-06
-0.005831888552176962,-0.0002562936419757449,-3.467345517557662e-06
-0.005860595814593869,-0.0002592167630674376,-3.5962231188184576e-06
-0.005898614033059357,-0.00026215656552935093,-3.7265664509676548e-06
-0.00594464584191693,-0.000265117380498095,-3.858384937474516e-06
-0.005997447882261193,-0.00026810290392913954,-3.991690008581325e-06
-0.00605583525427102,-0.0002711162247132726,-4.126494790741928e-06
-0.006118685307937882,-0.00027415985485382483,-4.262813810633703e-06
-0.0061849407794285815,-0.0002772357613756664,-4.400662714691076e-06
-0.006253612291663933,-0.00028034539964343953,-4.5400580049458525e-06
-0.006323780245683536,-0.0002834897477777764,-4.681016791801156e-06
-0.006394596134864289,-0.00028666934187291336,-4.823556564213829e-06
-0.006465283321603579,-0.0002898843117370303,-4.9676949776163145e-06
-0.006535137327195224,-0.00029313441689923,-5.11344965977538e-06
-0.0066035256957726,-0.000296419082654972,-5.26083803466393e-06
-0.0066698874950382086,-0.0002997374359526747,-5.409877164315842e-06
-0.006733732507548463,-0.00030308834095332137,-5.560583608542341e-06
-0.006794640152723192,-0.0003064704341183893,-5.712973302310269e-06
-0.006852258167685611,-0.00030988215869849145,-5.867061450514489e-06
-0.006906301065752259,-0.0003133217985068509,-6.022862439815825e-06
-0.006956548383995331,-0.0003167875108692878,-6.18038976715986e-06
-0.0070028427281777494,-0.00032027735864733107,-6.3396559845390145e-06
-0.007045087627983416,-0.00032378934123637135,-6.50067265950994e-06
-0.007083245226022474,-0.0003273214244498728,-6.663450350931501e-06
-0.0071173338338878555,-0.0003308715692148504,-6.827998599347682e-06
-0.007147425391258272,-0.0003344377590211369,-6.9943259314066786e-06
-0.007173642856779386,-0.0003380180260831463,-7.162439877682749e-06
-0.007196157541693972,-0.00034161047618276466,-7.332347003249227e-06
-0.007215186373233701,-0.0003452133121614966,-7.5040529503352926e-06
-0.007230989055335961,-0.000348824856018639,-7.677562492380327e-06
-0.007243865089423371,-0.00035244356955482884,-7.852879598773694e-06
-0.0072541506285931515,-0.00035606807348433295,-8.030007509533484e-06
-0.007262215157175577,-0.0003596971649307751,-8.208948819137262e-06
-0.007268458005466932,-0.00036332983322143577,-8.389705568675314e-06
-0.007273304721213434,-0.00036696527390310584,-8.57227934545645e-06
-0.007277203324234345,-0.0003706029009144678,-8.756671389160844e-06
-0.0072806204699566975,-0.00037424235686301554,-8.942882703605215e-06
-0.007284037543506822,-0.0003778835213663814,-9.130914173162565e-06
-0.0072879466976297535,-0.00038152651742666557,-9.320766682860826e-06
-0.00729284683202937,-0.0003851717158090804,-9.512441241169763e-06
-0.007299239490012064,-0.00038881973738959073,-9.70593910446943e-06
-0.007307624631282278,-0.00039247145341991433,-9.901261902171807e-06
-0.007318496240636457,-0.00039612798363789403,-1.009841176143626e-05
-0.00733233775407184,-0.0003997906921365711,-1.0297391430379876e-05
-0.0073496173167440235,-0.0004034611809042751,-1.0498204398640088e-05
-0.007370782920566234,-0.00040714128096360267,-1.0700855014107057e-05
-0.007396257498065309,-0.00041083304106826054,-1.0905348594615023e-05
-0.007426434072767318,-0.0004145387139609687,-1.111169153337233e-05
-0.007461671082884559,-0.0004182607402498816,-1.1319891396925042e-05
-0.007502288001346736,-0.00042200173002093945,-1.1529957014492748e-05
-0.007548561368070202,-0.0004257644423632937,-1.1741898557588806e-05
-0.0076007213288017544,-0.00042955176303751167,-1.1955727608939006e-05
-0.007658948742715509,-0.000433366680555391,-1.2171457219837231e-05
-0.007723372886611644,-0.00043721226096272276,-1.238910195521676e-05
-0.007794069753246246,-0.00044109162162268725,-1.2608677925863113e-05
-0.007871060916742468,-0.00044500790429018443,-1.283020280734133e-05
-0.007954312919936406,-0.0004489642477493542,-1.3053695845351216e-05
-0.008043737128778181,-0.00045296376026153284,-1.3279177847353937e-05
-0.008139189996533408,-0.00045700949204286075,-1.3506671160430035e-05
-0.008240473680646001,-0.0004611044079621556,-1.373619963543129e-05
-0.008347336953669078,-0.00046525136062073436,-1.3967788577577012e-05
-0.00845947634849889,-0.0004694530639462763,-1.4201464683718765e-05
-0.008576537484089599,-0.00047371206740442345,-1.443725596655644e-05
-0.008698116534695696,-0.0004780307309091198,-1.4675191666134826e-05
-0.008823761827671259,-0.00048241120049971153,-1.4915302148987034e-05
-0.008952975570375618,-0.00048685538484922325,-1.5157618795324267e-05
-0.009085215712199536,-0.000491364932669867,-1.540217387470404e-05
-0.009219897949724611,-0.000495941211085348,-1.5649000410642842e-05
-0.00935639788690406,-0.0005005852850445053,-1.5898132034675307e-05
-0.009494053368459644,-0.0005052978978583462,-1.614960283040102e-05
-0.009632167013627232,-0.0005100794529538679,-1.640344716810407e-05
-0.009770008987177453,-0.000514929996954069,-1.6659699530581055e-05
-0.00990682004653993,-0.0005198492042124983,-1.6918394330872696e-05
-0.010041814891751379,-0.0005248363629470711,-1.717956572266259e-05
-0.010174185825891737,-0.0005298903631264819,-1.744324740418098e-05
-0.010303106719546462,-0.0005350096862628414,-1.770947241652831e-05
-0.010427737264205813,-0.0005401923972587795,-1.7978272937408714e-05
-0.010547227486922855,-0.0005454361384465617,-1.824968007133505e-05
-0.010660722478275656,-0.0005507381259378613,-1.8523723637431154e-05
-0.010767367266782077,-0.0005560951483741258,-1.8800431956009152e-05
-0.010866311765415559,-0.0005615035681321752,-1.9079831635135727e-05
-0.01095671571991099,-0.0005669593250035069,-1.9361947358419647e-05
-0.011037753597048566,-0.0005724579423327467,-1.964680167525371e-05
-0.011108619359868175,-0.000577994535571976,-1.993441479472989e-05
-0.011168531084133427,-0.0005835638231829764,-2.022480438441863e-05
-0.011216735372925373,-0.0005891601397972411,-2.0517985375163684e-05
-0.011252511523173548,-0.0005947774515212658,-2.0813969772993312e-05
-0.011275175395359376,-0.000600409373250899,-2.1112766479186355e-05
-0.011284082945054504,-0.0006060491878360025,-2.141438111945808e-05
-0.011278633394226528,-0.0006116898669208228,-2.171881588314729e-05
-0.011258272043514345,-0.000617324093280258,-2.2026069373197557e-05
-0.011222492743000039,-0.0006229442844768867,-2.2336136467636844e-05
-0.011170840044331077,-0.0006285426176737194,-2.2649008193174495e-05
-0.011102911055452531,-0.0006341110554486653,-2.296467161145509e-05
-0.0110183570170754,-0.0006396413724667974,-2.3283109718433958e-05
-0.01091688462067885,-0.0006451251828762359,-2.3604301357269715e-05
-0.010798257090051644,-0.0006505539683039186,-2.3928221145064753e-05
-0.010662295047185829,-0.000655919106338228,-2.4254839413725288e-05
-0.010508877175155123,-0.0006612118993938132,-2.45841221651583e-05
-0.010337940680259148,-0.0006664236038576667,-2.491603104097117e-05
-0.010149481553668911,-0.0006715454594161487,-2.5250523306789626e-05
-0.009943554641260594,-0.0006765687184648811,-2.5587551851259884e-05
-0.009720273537922746,-0.0006814846755096769,-2.5927065199753522e-05
-0.009479810318778448,-0.0006862846964738522,-2.6269007542749403e-05
-0.009222395105957295,-0.0006909602478300361,-2.6613318778825376e-05
-0.008948315453920892,-0.0006955029254700057,-2.6959934572150385e-05
-0.008657915523395116,-0.0006999044832143348,-2.730878642432147e-05
-0.008351595005561563,-0.0007041568608465739,-2.7659801760336698e-05
-0.00802980775723183,-0.0007082522115372722,-2.8012904028432658e-05
-0.007693060116816162,-0.0007121829285057842,-2.836801281344342e-05
-0.007341908888309,-0.0007159416707570654,-2.8725043963259133e-05
-0.006976959000846218,-0.0007195213877293542,-2.9083909727880737e-05
-0.006598860867100061,-0.0007229153426963408,-2.9444518910487162e-05
-0.006208307470354274,-0.0007261171347807044,-2.980677702985642e-05
-0.005806031209524191,-0.0007291207194506739,-3.0170586493414267e-05
-0.005392800531826846,-0.0007319204273860117,-3.0535846780123435e-05
-0.004969416389580979,-0.0007345109816163637,-3.090245463237403e-05
-0.004536708568806454,-0.0007368875128559605,-3.127030425599211e-05
-0.004095531944837197,-0.0007390455729843713,-3.163928752745219e-05
-0.0036467627171197507,-0.0007409811466498606,-3.200929420736075e-05
-0.0031912946604228786,-0.0007426906609942463,-3.238021215927178e-05
-0.0027300354070753526,-0.0007441709935111209,-3.275192757289812e-05
-0.0022639027495028677,-0.0007454194780502654,-3.3124325190788465e-05
-0.001793820929794127,-0.0007464339089700896,-3.349728853754356e-05
-0.001320716869318698,-0.0007472125434198678,-3.387070015064104e-05
-0.0008455162928479995,-0.0007477541017104095,-3.4244441811923614e-05
-0.0003691397198255451,-0.0007480577657135779,-3.461839477877961e-05
0.00010750167647436322,-0.0007481231752244158,-3.499244001401411e-05
0.0005835103139438374,-0.0007479504222268112,-3.536645841337692e-05
0.0010580065031109854,-0.0007475400430225474,-3.5740331029689256e-05
0.0015301327455738503,-0.0007468930082103762,-3.6113939292497485e-05
0.001999057963970797,-0.00074601071053299,-3.6487165222183325e-05
0.0024639815955543342,-0.0007448949506431088,-3.6859891637477346e-05
0.002924137479289032,-0.0007435479208743979,-3.7232002355356726e-05
0.0033787974624081662,-0.0007419721871389736,-3.760338238236007e-05
0.0038272746482937185,-0.0007401706691112981,-3.7973918096422634e-05
0.004268926209829367,-0.0007381466188967673,-3.834349741842465e-05
0.004703155706507225,-0.0007359035984176832,-3.871200997275326e-05
0.005129414869707959,-0.0007334454557736294,-3.907934723630109e-05
0.005547204853895985,-0.0007307763008427285,-3.944540267545518e-05
0.005956076984887715,-0.0007279004803830326,-3.981007187076162e-05
0.006355633059900592,-0.0007248225528718355,-4.0173252629075336e-05
0.006745525262345157,-0.0007215472632912741,-4.053484508311611e-05
0.007125455751576818,-0.0007180795180377936,-4.089475177844838e-05
0.007495175985079718,-0.0007144243601036295,-4.125287774798373e-05
0.007854485832586898,-0.0007105869446492128,-4.160913057417194e-05
0.008203232541431049,-0.0007065725150557083,-4.1963420439098167e-05
0.008541309600792808,-0.0007023863795201523,-4.231566016274213e-05
0.00886865552834805,-0.0006980338882378671,-4.2665765229681635e-05
0.00918525257445663,-0.0006935204112121659,-4.3013653804544144e-05
0.009491125318513241,-0.0006888513167389234,-4.335924673653192e-05
0.009786339129110408,-0.0006840319506270174,-4.37024675533734e-05
0.010070998473725895,-0.0006790676162263084,-4.404324244508673e-05
0.010345245084159835,-0.0006739635553368369,-4.4381500237977513e-05
0.010609255998137713,-0.0006687249300662625,-4.4717172359328286e-05
0.010863241501383429,-0.0006633568056913822,-4.5050192793267696e-05
0.011107442992264375,-0.0006578641345679702,-4.538049802833253e-05
0.011342130787917064,-0.0006522517411229249,-4.570802699725526e-05
0.01156760188779865,-0.000646524307953996,-4.603272100952449e-05
0.011784177706548734,-0.0006406863630554091,-4.635452367727684e-05
0.01199220178270719,-0.0006347422681830951,-4.667338083508647e-05
0.01219203746488354,-0.0006286962083711973,-4.698924045422504e-05
0.012384065573043201,-0.0006225521826117156,-4.7302052551970766e-05
0.012568682029920748,-0.0006163139957109747,-4.761176909655144e-05
0.012746295457775217,-0.0006099852513390507,-4.791834390831395e-05
0.012917324740754577,-0.0006035693462894182,-4.8221732557721065e-05
0.013082196562298217,-0.000597069465963655,-4.852189226078433e-05
0.013241342937222601,-0.0005904885810887748,-4.881878177254744e-05
0.013395198765627678,-0.0005838294456630622,-4.9112361279235396e-05
0.013544199436003355,-0.0005770945961126545,-4.9402592289679324e-05
0.013688778495623945,-0.0005702863516297476,-4.9689437526614925e-05
0.013829365390879462,-0.0005634068156581218,-4.997286081843689e-05
0.013966383265688711,-0.0005564578784939797,-5.025282699197492e-05
0.014100246794515665,-0.0005494412209789286,-5.0529301766843146e-05
0.014231360016006715,-0.000542358319276298,-5.0802251651906954e-05
0.014360114125431707,-0.0005352104507409384,-5.1071643844411263e-05
0.014486885184446335,-0.0005279987009134689,-5.133744613232486e-05
0.014612031715738005,-0.0005207239716884228,-5.159962680047534e-05
0.01473589216274969,-0.000513386990718801,-5.1858154541077144e-05
0.014858782206056796,-0.0005059883221265993,-5.211299836928849e-05
0.01498099193838561,-0.0004985283785904887,-5.236412754446776e-05
0.015102782911377701,-0.000491007434878048,-5.261151149783489e-05
0.015224385078298966,-0.0004834256428806288,-5.285511976727456e-05
0.015345993664157847,-0.00047578304819501457,-5.3094921940043477e-05
0.01546776599856123,-0.0004680796082793348,-5.3330887604162064e-05
0.015589818351412602,-0.00046031521219184134,-5.356298630927986e-05
0.01571222281712578,-0.00045248970189970674,-5.3791187537802745e-05
0.015835004292773115,-0.00044460289512223203,-5.401546068705823e-05
0.015958137585926638,-0.0004366546096525571,-5.4235775063251926e-05
0.016081544675537112,-0.00042864468908719117,-5.4452099887936863e-05
0.016205092144352368,-0.0004205730298822188,-5.4664404317679214e-05
0.01632858880980895,-0.0004124396096436785,-5.487265747756069e-05
0.01645178360168365,-0.00040424451654080536,-5.507682850910681e-05
0.01657436376259827,-0.0003959879796997349,-5.527688663316695e-05
0.01669595347065187,-0.0003876704003914224,-5.547280122818974e-05
0.01681611299188085,-0.0003792923837757892,-5.5664541924231545e-05
0.016934338461244817,-0.00037085477091250776,-5.585207871290362e-05
0.0170500623713855,-0.0003623586707043502,-5.6035382073307835e-05
0.017162654827556065,-0.0003538054914046148,-5.621442311383507e-05
0.01727142561008243,-0.0003451969712952052,-5.638917372951003e-05
0.017375627072617566,-0.0003365352081245302,-5.6559606774364964e-05
0.017474457893611323,-0.000327822686882973,-5.672569624811684e-05
0.017567067688337986,-0.0003190623054874857,-5.688741749620946e-05
0.01765256247696894,-0.00031025739794615897,-5.7044747422067866e-05
0.017730010988033666,-0.00030141175457990834,-5.719766471019938e-05
0.017798451754690057,-0.00029252963889422743,-5.734615005856792e-05
0.01785690093649943,-0.00028361580072143005,-5.749018641847183e-05
0.017904360779091216,-0.0002746754852925324,-5.762975923997532e-05
0.01793982861432229,-0.00026571443794417903,-5.7764856720784495e-05
0.01796230630168724,-0.00025673890421517665,-5.7895470056324336e-05
0.01797081000772199,-0.0002477556251378243,-5.802159368866259e-05
0.017964380205186155,-0.0002387718275845973,-5.8143225551843196e-05
0.01794209175036174,-0.0002297952095957103,-5.826036731113827e-05
0.017903063877151487,-0.000220833920688832,-5.837302459370941e-05
0.017846469939530613,-0.00021189653723466148,-5.848120720819029e-05
0.017771546737248935,-0.00020299203306546658,-5.858492935076532e-05
0.017677603268997488,-0.00019412974556390496,-5.868420979542266e-05
0.017564028773281688,-0.00018531933755333517,-5.877907206620197e-05
0.01743029994286158,-0.00017657075537429935,-5.886954458943388e-05
0.01727598723047627,-0.00016789418358096489,-5.895566082417269e-05
0.0171007601940544,-0.0001592999967248322,-5.903745936924914e-05
0.016904391852179013,-0.00015079870871327386,-5.911498404560867e-05
0.0166867620311603,-0.00014240092024243902,-5.9188283952847594e-05
0.016447859685351028,-0.00013411726481331118,-5.925741349911153e-05
0.016187784170256625,-0.00012595835384940926,-5.932243240377721e-05
0.01590674544933044,-0.0001179347214445125,-5.938340567260069e-05
0.015605063218428571,-0.00011005676927757275,-5.9440403545281216e-05
0.015283164935707935,-0.00010233471223903862,-5.949350141566037e-05
0.014941582756487923,-9.477852531598966e-05,-5.954277972504913e-05
0.014580949399493113,-8.73978922769944e-05,-5.9588323829447374e-05
0.01420199300900544,-8.020215667486976e-05,-5.963022384168534e-05
0.013805531112691132,-7.320027564444561e-05,-5.9668574449765166e-05
0.013392463797344926,-6.64007769169366e-05,-5.9703474712905515e-05
0.012963766236502822,-5.981171940847467e-05,-5.973502783698687e-05
0.012520480712794529,-5.344065767115033e-05,-5.9763340931256774e-05
0.01206370828628725,-4.7294610421379884e-05,-5.978852474827991e-05
0.011594600262662758,-4.138003328414238e-05,-5.9810693409206286e-05
0.011114349604796136,-3.570279581727766e-05,-5.982996411648164e-05
0.010624182407548676,-3.026816281419146e-05,-5.984645685613951e-05
0.010125349527990542,-2.5080779830306657e-05,-5.9860294091800635e-05
0.00961911844413256,-2.014466283727588e-05,-5.987160045246753e-05
0.009106765407290976,-1.5463191874419996e-05,-5.988050241614545e-05
0.00858956794576875,-1.1039108536155063e-05,-5.98871279912481e-05
0.008068797760231528,-6.874517109654993e-06,-5.989160639765955e-05
0.007545714029314025,-2.9708891622686044e-06,-5.989406774922753e-05
0.007021557131991222,6.709286280577074e-07,-5.989464273936108e-05
0.00649754279438745,4.050703609652375e-06,-5.989346233130166e-05
0.005974856670017055,7.168803475753502e-06,-5.989065745453031e-05
0.005454649352994818,1.002617998150647e-05,-5.9886358708666e-05
0.004938031806469191,1.2624350271372472e-05,-5.988069607610278e-05
0.00442607117190534,1.4965376015966105e-05,-5.987379864453095e-05
0.003919786912121022,1.7051840536972696e-05,-5.9865794340392715e-05
0.003420147235564737,1.8886824073894137e-05,-5.985680967424e-05
