frame_number,force
0,624.9785800000288
1,624.790781187329
2,624.6154830436318
3,624.4639890655288
4,624.3454031449406
5,624.2659697823758
6,624.2288180938809
7,624.2340659473839
8,624.2791631226864
9,624.359345114842
10,624.4681227083524
11,624.5977883449601
12,624.7399343635245
13,624.8859575045512
14,625.0275023123143
15,625.1567989075529
16,625.2668854702601
17,625.3517571263749
18,625.4065138276164
19,625.4275621772831
20,625.4128709954845
21,625.3622257995356
22,625.2774046983941
23,625.1622124821818
24,625.0223413374182
25,624.8650539862396
26,624.6987054191537
27,624.5321399543367
28,624.3740189064547
29,624.2321429209173
30,624.1128317425396
31,624.0204184900892
32,623.9569092249827
33,623.9218498237412
34,623.912422697224
35,623.9237602246673
36,623.9494216189015
37,623.9819607595722
38,624.0135261810577
39,624.0364636597081
40,624.0439124527945
41,624.0303912627882
42,623.9923594009194
43,623.9287067757022
44,623.841082229335
45,623.7339492327362
46,623.6142913467422
47,623.4909688654603
48,623.3738143887887
49,623.2726084982852
50,623.1960776334215
51,623.1510187899587
52,623.1416151835505
53,623.1689851321854
54,623.2309963908514
55,623.3223669442766
56,623.4350584700937
57,623.5589499328628
58,623.6827540560262
59,623.7951135329213
60,623.8857914905578
61,623.9468455191826
62,623.9736430527812
63,623.9655564387534
64,623.9261961734161
65,623.8631064662153
66,623.7869389942399
67,623.7102168230155
68,623.6458831884703
69,623.6058696763513
70,623.5998876533667
71,623.6345598943172
72,623.7129217181276
73,623.8342781572225
74,623.9944046310013
75,624.186085738409
76,624.3999607704314
77,624.6255786549618
78,624.8524986315591
79,625.0712614445878
80,625.2741151576255
81,625.455467915791
82,625.612100310079
83,625.7431802817293
84,625.850103394694
85,625.9361662842697
86,626.0060891735058
87,626.0654220980383
88,626.1198817796665
89,626.1746787206371
90,626.2339201114784
91,626.3001961130572
92,626.374437643422
93,626.4560649263605
94,626.5433624678279
95,626.6339582935325
96,626.7252707055392
97,626.8148147532174
98,626.9003265284542
99,626.9797455143118
100,627.0511526451149
101,627.112760215092
102,627.1629977373111
103,627.2006766388293
104,627.2251769745565
105,627.2365862632704
106,627.2357326663704
107,627.2240893572355
108,627.2035678404451
109,627.1762449387737
110,627.144078845565
111,627.108671199948
112,627.0711211475949
113,627.0319911543553
114,626.9913771578391
115,626.9490618420667
116,626.9047280889174
117,626.8582119926017
118,626.80977054812
119,626.7603190341102
120,626.7115707509671
121,626.6660195882296
122,626.6267533891188
123,626.5971422390869
124,626.5804725081098
125,626.57958735688
126,626.5965692751694
127,626.6324793626893
128,626.6871532855171
129,626.7590454888152
130,626.8451186990197
131,626.9407980112062
132,627.0400393245638
133,627.1355798583262
134,627.2194198466658
135,627.2835241491856
136,627.3206549074399
137,627.3251911231326
138,627.2937876427836
139,627.2257730490701
140,627.1232541563093
141,626.9909533950381
142,626.8358385197365
143,626.666608776829
144,626.493086649609
145,626.3255495189285
146,626.1740366357902
147,626.0476777630307
148,625.9540927625393
149,625.8988987933467
150,625.885339839794
151,625.91403380383
152,625.9828302193476
153,626.0867950896412
154,626.2183730331608
155,626.3677874441785
156,626.5237087010081
157,626.6741635092944
158,626.807602088689
159,626.9139994208243
160,626.9858480546966
161,627.0189078644727
162,627.012613363381
163,626.9700929136055
164,626.8978118597405
165,626.804898953163
166,626.7022405771529
167,626.6014294587937
168,626.513651982587
169,626.4486097591385
170,626.4135890923498
171,626.4127884994181
172,626.4469747917625
173,626.5134807580417
174,626.6065163842242
175,626.7177526611347
176,626.8371305074916
177,626.9538262557396
178,627.057278398142
179,627.1381671497829
180,627.1892419980062
181,627.2059093407438
182,627.1865271924564
183,627.1324058836735
184,627.0475599638206
185,626.9382683042554
186,626.8124780837369
187,626.6790732390274
188,626.5470547712331
189,626.4247362227726
190,626.3190886434135
191,626.2353358647093
192,626.1768204228949
193,626.1450858164566
194,626.1400859582923
195,626.1604373762307
196,626.2036600380197
197,626.2663904361856
198,626.3445758433696
199,626.4336656157852
200,626.5288158599179
201,626.6251257869889
202,626.7179191228745
203,626.8030600743767
204,626.8772551569708
205,626.9382644115598
206,626.9849543646847
207,627.0171725657575
208,627.0354822819692
209,627.0408324414233
210,627.0342400104184
211,627.0165421367528
212,626.9882523005375
213,626.9495369260841
214,626.9003127724384
215,626.8404436156532
216,626.7699866440885
217,626.689415636757
218,626.5997493131931
219,626.5025523846423
220,626.3998346865851
221,626.29390416794
222,626.1872136025303
223,626.0822147109953
224,625.9812342523297
225,625.8864012891185
226,625.7996481508006
227,625.7227759524372
228,625.6575478573297
229,625.6057736561164
230,625.5693705139116
231,625.550396921398
232,625.5510420297838
233,625.5735290379527
234,625.6198929676308
235,625.69162835875
236,625.789249900539
237,625.9118474062693
238,626.0567391704716
239,626.2193322071258
240,626.3932746238966
241,626.5709260835106
242,626.7440913509247
243,626.9048959636064
244,627.0466614470173
245,627.164660547495
246,627.256674973834
247,627.3233072629607
248,627.3680044315471
249,627.3967551044115
250,627.4174490505137
251,627.4389390275451
252,627.4699028864112
253,627.517655690856
254,627.5870960068236
255,627.6799702317259
256,627.7945892389756
257,627.9260393949816
258,628.0668279852665
259,628.207829568298
260,628.3393716354464
261,628.4523059827377
262,628.5389382163546
263,628.5937216194627
264,628.6136634717568
265,628.5984406793873
266,628.5502628155591
267,628.4735367740877
268,628.3743825679156
269,628.2600486819655
270,628.138286374733
271,628.0167440963822
272,627.9024182830677
273,627.8011631351958
274,627.7172551038267
275,627.6530371139448
276,627.6087030762715
277,627.5822873085424
278,627.5698882098379
279,627.5661056276747
280,627.5646353049175
281,627.5589489053322
282,627.5429842216856
283,627.5117691334083
284,627.461906822538
285,627.3918642702091
286,627.3020314619691
287,627.1945491702304
288,627.0729346808882
289,626.9415684478575
290,626.8051356389934
291,626.6681259872751
292,626.5344647252283
293,626.407286300931
294,626.2888108770981
295,626.1802748506992
296,626.0818977162661
297,625.9929076661756
298,625.911666228851
299,625.8359166539465
300,625.7631448003278
301,625.6910066776986
302,625.6177512876174
303,625.542548824606
304,625.4656346770456
305,625.3882201237917
306,625.3121972291607
307,625.2397429717308
308,625.1729670117911
309,625.113723845931
310,625.0636236646011
311,625.0241714258954
312,624.9969126205808
313,624.983497301939
314,624.9856453866622
315,625.0050426680609
316,625.0432037679877
317,625.1013309191682
318,625.1801994856027
319,625.2801125189475
320,625.4009643373979
321,625.5424136322017
322,625.7041006448559
323,625.885797828125
324,626.0873961557913
325,626.3086855797967
326,626.5489484662799
327,626.8064370510652
328,627.0778563412237
329,627.3580024087705
330,627.6396817936101
331,627.913972003488
332,628.170817595454
333,628.3999047622987
334,628.591703809797
335,628.7385161724802
336,628.8353413054618
337,628.8804126801351
338,628.875334638572
339,628.8248477403439
340,628.73631615559
341,628.619046055201
342,628.4835223880003
343,628.3406218834847
344,628.2008414944106
345,628.0735741488323
346,627.9664614749382
347,627.88485435586
348,627.8314151610483
349,627.8058968907404
350,627.8051345062999
351,627.8232818136671
352,627.8523133919028
353,627.8827735930835
354,627.9046977764832
355,627.9085794824882
356,627.8862438687828
357,627.8315266804017
358,627.7407229167063
359,627.6128141354901
360,627.4494923823808
361,627.2549914224253
362,627.0357307951484
363,626.7997858749898
364,626.5562248597088
365,626.3143859174035
366,626.0831721443268
367,625.8704134479311
368,625.6823165733132
369,625.5230265996049
370,625.3943476204124
371,625.2956863254543
372,625.2242651333402
373,625.1755981260746
374,625.1441551204624
375,625.1240924447657
376,625.109927789521
377,625.0970737903016
378,625.0821879537827
379,625.0633211985534
380,625.0398619840332
381,625.0122960180336
382,624.9818317378415
383,624.9499642966941
384,624.918055020106
385,624.8869896985722
386,624.8569588071974
387,624.8273865243451
388,624.7970195573861
389,624.7641602502542
390,624.7269938598364
391,624.683934753585
392,624.6339142820134
393,624.5765541960286
394,624.5122039443405
395,624.441853849239
396,624.3669568371587
397,624.2891964580964
398,624.2102357239082
399,624.1314769459391
400,624.053856956362
401,623.977695351478
402,623.9026124556061
403,623.8275390485738
404,623.7508385516195
405,623.6705436181486
406,623.5846806758888
407,623.4916352356756
408,623.390502913299
409,623.281368505443
410,623.165457270076
411,623.0451186850876
412,622.9236374786749
413,622.8049093672731
414,622.6930506194793
415,622.5920135638697
416,622.5052525232028
417,622.4354469032772
418,622.384268407406
419,622.3521890186186
420,622.3383504379843
421,622.3405281409365
422,622.3552127700473
423,622.3778098532831
424,622.4029460088877
425,622.4248720942829
426,622.4379546835726
427,622.4372270455061
428,622.4189334760623
429,622.3809733927401
430,622.3231556768785
431,622.2472062406941
432,622.1565171630504
433,622.0556760630221
434,621.9498635660277
435,621.844235136852
436,621.7433913471546
437,621.6509967501479
438,621.5695643861424
439,621.5003993163562
440,621.4436849844031
441,621.3986936835114
442,621.3641034772368
443,621.338396900473
444,621.3202925092231
445,621.3091292424567
446,621.305108155313
447,621.309313359409
448,621.323485646546
449,621.3495926344574
450,621.3893017923007
451,621.4434938975933
452,621.5119453237868
453,621.5932640989747
454,621.6851021472983
455,621.7846017643308
456,621.888979098795
457,621.9961064460894
458,622.1049406337872
459,622.215674866014
460,622.3295676584424
461,622.4484984025177
462,622.5743773992176
463,622.7085747240207
464,622.8515218876338
465,623.0025881823617
466,623.1602527039361
467,623.3225071416139
468,623.4873611977808
469,623.6533020348082
470,623.8195886842027
471,623.9863302470987
472,624.1543710669262
473,624.3250499057134
474,624.4998966089265
475,624.6802963184039
476,624.8671253402525
477,625.0603682065204
478,625.2587553253479
479,625.4594899894084
480,625.6581431900839
481,625.8487805064505
482,626.0243504956858
483,626.1773121287501
484,626.3004189426658
485,626.3875306523069
486,626.4343154480569
487,626.4387495123303
488,626.4013899486966
489,626.3254430854074
490,626.2166456668986
491,626.0829485297661
492,625.9339830957864
493,625.7803137814353
494,625.6325252784085
495,625.5002454854399
496,625.3912355638729
497,625.3106712602951
498,625.26070790066
499,625.2403833654937
500,625.2458660450285
501,625.2709983148061
502,625.3080446584654
503,625.3485475012792
504,625.3842088115657
505,625.4077230064496
506,625.4134838107245
507,625.3980950070567
508,625.3606406595428
509,625.3026984920192
510,625.2280966583331
511,625.1424288033418
512,625.0523740848132
513,624.9649151153428
514,624.8865771376203
515,624.8227980080796
516,624.7774878467569
517,624.7527867216619
518,624.74900901361
519,624.7647714301379
520,624.79730803841
521,624.8429550838532
522,624.8977469036925
523,624.9580265709308
524,625.0209552734044
525,625.0848073833032
526,625.148974402228
527,625.2136794328849
528,625.2795060006729
529,625.3469179964992
530,625.4159386800486
531,625.4860646153005
532,625.5563740681212
533,625.625721434395
534,625.6929180535805
535,625.7568518991274
536,625.8165384659306
537,625.8711008702899
538,625.9196720610687
539,625.9612263082245
540,625.9943830514823
541,626.0172613264817
542,626.0274727238033
543,626.0223143577052
544,625.9991696305565
545,625.9560637973284
546,625.8922687868829
547,625.8088205119814
548,625.7088187292511
549,625.5974261887194
550,625.481548010302
551,625.3692305997032
552,625.2688619466697
553,625.1882781589522
554,625.1338859223267
555,625.1099043360956
556,625.1178178859844
557,625.1561161267612
558,625.2203726600171
559,625.3036793290696
560,625.3973953982918
561,625.4921072428264
562,625.5786503405799
563,625.6490403082538
564,625.6971856877981
565,625.7192989153635
566,625.7139799204829
567,625.6820104148019
568,625.625944951754
569,625.5496041487175
570,625.4575700845803
571,625.3547578083675
572,625.2460911351744
573,625.1362616757306
574,625.0295261960235
575,624.9295131872844
576,624.8390489084029
577,624.7600415396743
578,624.693456468492
579,624.6393869286809
580,624.5972020031422
581,624.565752559062
582,624.5436247269558
583,624.529432049911
584,624.5221203689433
585,624.5212297927652
586,624.5270400160131
587,624.5405405825005
588,624.5632136366161
589,624.5966712969912
590,624.6422305346614
591,624.7005223396925
592,624.7712183406823
593,624.8529269872013
594,624.9432763619632
595,625.0391683515332
596,625.1371572521169
597,625.233876942075
598,625.326427955197
599,625.4126502040223
600,625.4912454239086
601,625.5617616434363
602,625.6244895195321
603,625.6803268262523
604,625.7306409027785
605,625.7771237453295
606,625.8216188480063
607,625.8659078167167
608,625.9114653765322
609,625.959216667003
610,626.0093565808834
611,626.0612975082225
612,626.113776726491
613,626.1650892061851
614,626.213364271653
615,626.2568135954149
616,626.2939284281017
617,626.3236455346162
618,626.3455021384211
619,626.3597701059188
620,626.3675300706616
621,626.3706399311307
622,626.3715693168398
623,626.373100045224
624,626.3779274539802
625,626.3882383330648
626,626.4053687547173
627,626.4296296303123
628,626.4603307794382
629,626.4959713863634
630,626.5345234097201
631,626.5737203160481
632,626.6112807875497
633,626.6450477053215
634,626.6730854313697
635,626.6938119223554
636,626.7062164281394
637,626.7101395593508
638,626.7065217298137
639,626.697509005313
640,626.6863467273558
641,626.6770526198601
642,626.6739083856426
643,626.680841449774
644,626.7007993143844
645,626.7352410552113
646,626.7838583114018
647,626.8445823980358
648,626.9138622450769
649,626.987147154285
650,627.0594896121497
651,627.1261835094081
652,627.1833590879361
653,627.2284606946105
654,627.2605341970735
655,627.2802574905139
656,627.2896826339274
657,627.2917329592135
658,627.2895834394873
659,627.2860902288393
660,627.283397644306
661,627.2827684444018
662,627.2846072770844
663,627.2886069956702
664,627.2939468474777
665,627.2994953875585
666,627.3039955025262
667,627.306220178729
668,627.3050858860381
669,627.2997037537831
670,627.2893544587099
671,627.2734020450384
672,627.2511944620712
673,627.222003010154
674,627.1850285822339
675,627.1394736890982
676,627.084661342859
677,627.0201762034326
678,626.9460053110566
679,626.8626566465916
680,626.7712286258418
681,626.6733996029677
682,626.5713162679253
683,626.4673859879882
684,626.3640072169453
685,626.2632866559753
686,626.1667874481793
687,626.0753401731247
688,625.9889396883018
689,625.9067463971396
690,625.8272021842275
691,625.7482530460433
692,625.6676452273014
693,625.5832424215012
694,625.4933126042639
695,625.39675319756
696,625.2932451506144
697,625.1833362223194
698,625.0684512640979
699,624.9508194404563
700,624.8333028160679
701,624.7191168191127
702,624.6114569438248
703,624.513079499336
704,624.4259075558609
705,624.3507357512068
706,624.2870915071537
707,624.2332769142579
708,624.1865705058851
709,624.143531508516
710,624.1003399515798
711,624.0531228733335
712,623.9982445566318
713,623.9325622681492
714,623.8536569722669
715,623.7600375478937
716,623.6512987359972
717,623.5282061821767
718,623.392692486267
719,623.2477635839044
720,623.0973224338909
721,622.9459203474663
722,622.7984548850824
723,622.6598434270046
724,622.5346986640731
725,622.4270134906634
726,622.3398491590945
727,622.2750344971115
728,622.2329167532506
729,622.2122220148275
730,622.2100657500257
731,622.2221181040172
732,622.2429019709344
733,622.2661917328503
734,622.2854756309325
735,622.2944402989672
736,622.2874412687372
737,622.2599431507075
738,622.2089325890557
739,622.133303045697
740,622.0341789222563
741,621.915107422053
742,621.782026591781
743,621.6429363920346
744,621.5072573639723
745,621.3849346952912
746,621.2854030481165
747,621.2165569464415
748,621.18387743781
749,621.189848862633
750,621.2337528738996
751,621.3118537128174
752,621.4179134191596
753,621.5439273710172
754,621.6809617129123
755,621.8199970138077
756,621.9527161651121
757,622.0721940041428
758,622.1734394977296
759,622.2537271403004
760,622.3126680046747
761,622.3520219325736
762,622.3753080808905
763,622.3872982706058
764,622.3934775480272
765,622.3995426347449
766,622.4109824531103
767,622.4327498853419
768,622.4690091462189
769,622.5229410638312
770,622.5966004982789
771,622.6908301641972
772,622.8052371339134
773,622.9382350020733
774,623.0871497617803
775,623.2483837157453
776,623.4176306640942
777,623.5901336327737
778,623.7609680547417
779,623.9253229047503
780,624.0787525701325
781,624.2173858974085
782,624.3380943937179
783,624.4386286757529
784,624.5177280761155
785,624.5751936495055
786,624.6118974256335
787,624.6296954341069
788,624.6312245883729
789,624.619582476177
790,624.5979058627805
791,624.5688875421843
792,624.5343097632677
793,624.4947110672277
794,624.4493119911539
795,624.3962796191042
796,624.3333145321867
797,624.2584342592065
798,624.1707545618982
799,624.0710636678383
800,623.9620460974579
801,623.8481160873051
802,623.7349184348386
803,623.6286088232524
804,623.5350375917471
805,623.4589544413142
806,623.4033370790585
807,623.3689200048534
808,623.3539663668588
809,623.3543057064879
810,623.3636591518963
811,623.3742647081109
812,623.3777677297384
813,623.3662639542923
814,623.333319815013
815,623.274781530643
816,623.1892209314258
817,623.0779387843742
818,622.9445413209127
819,622.7941972985917
820,622.6327400777194
821,622.4657894789367
822,622.2980430210981
823,622.1328409657762
824,621.9720505999071
825,621.8162465713085
826,621.665101553032
827,621.5178693353727
828,621.3738516464211
829,621.2327754757392
830,621.0950408366932
831,620.9618123435487
832,620.834932972782
833,620.7166633052732
834,620.609300836016
835,620.5147799086479
836,620.4343585356769
837,620.3684635774282
838,620.3167172602862
839,620.2781270414356
840,620.251390839991
841,620.2352476809324
842,620.2287904248597
843,620.2316568812095
844,620.2440338843704
845,620.2664489268889
846,620.2993810466669
847,620.3427820545351
848,620.3956371153665
849,620.4556891351023
850,620.5194084901973
851,620.5822353983414
852,620.6390716359621
853,620.6849477277002
854,620.7157488640959
855,620.7288645013515
856,620.72363319791
857,620.7014811454316
858,620.6657090729791
859,620.6209673693855
860,620.5725423363808
861,620.5256196354995
862,620.4846816055067
863,620.4531461350387
864,620.4332885319525
865,620.4264253486716
866,620.4332920365956
867,620.4545128079844
868,620.4910378057102
869,620.5444207554882
870,620.616845579561
871,620.71087677296
872,620.8289766992216
873,620.9728804234164
874,621.1429439710897
875,621.3375914233333
876,621.5529801907547
877,621.7829796488983
878,622.0195167004772
879,622.2532852131133
880,622.4747491001631
881,622.6753009961686
882,622.8483854340453
883,622.9903743454996
884,623.1010109830767
885,623.183326636026
886,623.2430639142077
887,623.2877555005484
888,623.3256586347886
889,623.3647317406169
890,623.4117893859441
891,623.4719097039838
892,623.5481134345008
893,623.6412984115829
894,623.7503922496107
895,623.8726693126886
896,624.0041707750133
897,624.1401767867216
898,624.2756997093906
899,624.405976687672
900,624.5269257312392
901,624.6355052326629
902,624.7299120428452
903,624.8095816426165
904,624.8750022659669
905,624.9273995347576
906,624.968371438157
907,624.9995495107889
908,625.0223350672458
909,625.0377195152585
910,625.0461648635198
911,625.0475166259423
912,625.0409463612112
913,625.0249507540977
914,624.9974461893332
915,624.9559853332919
916,624.8980863062035
917,624.8216143038047
