acceleration,velocity,displacement
0.013557766211966723,0.0,0.0
0.01322119848768376,6.6947411749126205e-06,1.673685293728155e-09
0.012885943345929235,1.3221526633315869e-05,6.652752245785277e-09
0.012553301845444993,1.9581337931159426e-05,1.4853468386904101e-08
0.012224552198956648,2.5775801442259836e-05,2.6192753230258918e-08
0.011900938840016797,3.18071742020032e-05,4.0588497141324677e-08
0.011583662041383693,3.767832442235332e-05,5.795987179741381e-08
0.011273868214667674,4.3392706986366166e-05,7.822762964959368e-08
0.010972640985260603,4.8954334286348235e-05,1.0131438996777228e-07
0.010680993101517206,5.4367742808042685e-05,1.2714490924137e-07
0.010399859204454498,5.963795588453561e-05,1.5564633391451459e-07
0.010130089456491903,6.477044304977221e-05,1.8674843364809154e-07
0.009872444009099505,6.977107641617006e-05,2.203838135145771e-07
0.009627588282617297,7.464608448909926e-05,2.564881037408944e-07
0.009396089035964592,7.940200381874473e-05,2.950001258178554e-07
0.009178411214882207,8.404562888145643e-05,3.3586203399290574e-07
0.008974915577130082,8.85839605794595e-05,3.790194313581347e-07
0.00878585709439685,9.302415374734123e-05,4.2442145993983487e-07
0.008611384122970175,9.737346405168299e-05,4.720208643895909e-07
0.0084515383252319,0.0001016391946637335,5.217740290684451e-07
0.008306255318818135,0.00010582864307474602,5.73640988503065e-07
0.008175366032261712,0.00010994904841251598,6.275854113748804e-07
0.008058598754119413,0.00011400753960911127,6.835745583802872e-07
0.007955581872721246,0.00011801108476582143,7.415792144740204e-07
0.007865847309968999,0.000121966442061494,8.015735961808493e-07
0.00778883465344184,0.0001258801125523467,8.635352348343094e-07
0.0077238959871718665,0.00012975829521250014,9.274448367755211e-07
0.0076703014103418725,0.00013360684456187858,9.932861217191158e-07
0.007627245213333021,0.0001374312312177973,1.0610456406640347e-06
0.00759385265694188,0.00014123650568536602,1.1307125748898256e-06
0.007569187280197216,0.0001450272656696508,1.2022785177285798e-06
0.00755225865003187,0.00014880762715220806,1.2757372409340445e-06
0.00754203046528447,0.00015258119943103714,1.3510844475798558e-06
0.007537428938180849,0.00015635106428190347,1.4283175135080909e-06
0.0075373513923763435,0.00016011975936454278,1.5074352194197024e-06
0.007540675028281356,0.0001638892659697072,1.588437475753265e-06
0.007546265809066587,0.0001676610011790442,1.6713250425404527e-06
0.007552987418802553,0.00017143581448601146,1.7560992464567166e-06
0.007559710244396017,0.0001752139889018111,1.8427616973036721e-06
0.007565320337732483,0.0001789952465473432,1.9313140061659607e-06
0.007568728320186744,0.00018277875871182303,2.021757507480752e-06
0.007568878192094119,0.00018656316033989324,2.114092987243681e-06
0.0075647560003675,0.00019034656888800865,2.2083204195506567e-06
0.00755539830018675,0.00019412660746314723,2.3044387136384456e-06
0.00753990032508344,0.00019790043211946476,2.4024454735340985e-06
0.007517423753737484,0.00020166476313917,2.502336772348757e-06
0.007487203933332998,0.00020541592006093762,2.604106943148784e-06
0.0074485564001654245,0.00020914986014431222,2.7077483882000964e-06
0.007400882539654811,0.00021286221987926727,2.8132514082059914e-06
0.007343674247481789,0.00021654835907605142,2.920604052944821e-06
0.007276517480930496,0.00022020340700815448,3.0297919944658725e-06
0.00719909462109979,0.00022382231003366206,3.1407984237263265e-06
0.007111185603819191,0.00022739988008989182,3.253603971257215e-06
0.007012667817469681,0.00023093084344521402,3.3681866521409912e-06
0.006903514801265357,0.00023440988909989777,3.484521835277269e-06
0.006783793802971342,0.00023783171625095696,3.6025822366149827e-06
0.006653662275501455,0.00024119108027057516,3.7223379357453657e-06
0.006513363416157011,0.0002444828366934898,3.843756414986382e-06
0.006363220879818016,0.00024770198276748357,3.966802619851625e-06
0.006203632818114528,0.0002508436961919667,4.0914390395914875e-06
0.006035065406285953,0.00025390337074806683,4.2176258063264955e-06
0.005858046024021311,0.00025687664860564365,4.345320811164923e-06
0.005673156260695777,0.00025975944917682294,4.4744798356105396e-06
0.005481024915131745,0.00026254799447077983,4.60505669652244e-06
0.005282321148971425,0.0002652388309868056,4.737003402886837e-06
0.005077747927518858,0.0002678288482559282,4.87027032269752e-06
0.0048680358414988295,0.0002703152941981826,5.004806358311048e-06
0.004653937351925251,0.0002726957874965386,5.140559128734728e-06
0.004436221452029385,0.00027496832719752727,5.277475157408244e-06
0.004215668711027497,0.0002771312997382915,5.4155000641421985e-06
0.003993066656977323,0.0002791834835802927,5.554578759971845e-06
0.003769205458946793,0.0002811240516092737,5.694655643769236e-06
0.003544873872077873,0.00028295257144202987,5.8356747995320625e-06
0.003320855411147646,0.00028466900376283627,5.977580193333279e-06
0.0030979247217866003,0.0002862736987960698,6.1203158689730054e-06
0.0028768441233879677,0.00028776739100736345,6.263826141423864e-06
0.002658360302975526,0.0002891511921139543,6.408055787204193e-06
0.002443201146637135,0.0002904265824763575,6.552950230851771e-06
0.0022320727094981407,0.0002915954009403913,6.698455726705958e-06
0.0020256563467332656,0.00029265983320444914,6.844519535242168e-06
0.0018246060483643547,0.0002936223988032235,6.991090093244086e-06
0.0016295460299681956,0.00029448593682280665,7.138117177150594e-06
0.0014410686292203676,0.0002952535904876038,7.2855520589781965e-06
0.001259732550240291,0.00029592879078246896,7.433347654295714e-06
0.0010860614872065012,0.00029651523929183067,7.581458661814289e-06
0.0009205431472860812,0.0002970168904504538,7.729841694249861e-06
0.0007636286837308094,0.00029743793340820804,7.878455400214527e-06
0.0006157325420591976,0.00029778277371465557,8.027260576995243e-06
0.00047723270854121286,0.0002980560150273057,8.176220274180733e-06
0.0003484713277345004,0.0002982624410363746,8.325299888196653e-06
0.00022975563322392907,0.00029840699777661424,8.4744672478999e-06
0.00012135912659587365,0.00029849477646656916,8.623692691460696e-06
2.3522951258581294e-05,0.00029853099698603277,8.772949134823846e-06
-6.354256552683724e-05,0.0002985209920824657,8.922212132090972e-06
-0.000139656201766121,0.00029847019239064243,9.071459928209248e-06
-0.00020466394613867468,0.00029838411235366626,9.220673504395326e-06
-0.000258436906866469,0.00029826833714041495,9.369836616768846e-06
-0.0003008690220870815,0.00029812851065817654,9.518935828718494e-06
-0.0003318745821544308,0.00029797032475711616,9.667960537572318e-06
-0.00035138558781411765,0.00029779950971462404,9.816902996190253e-06
-0.00035934898722331357,0.0002976218260708647,9.965758330136624e-06
-0.00035572386032065983,0.00029744305785897867,1.0114524551119085e-05
-0.000340478643980756,0.0002972690072329033,1.0263202567392056e-05
-0.00031358850416767463,0.0002971054904458662,1.0411796191811748e-05
-0.0002750329527831073,0.0002969583350816285,1.056031214819362e-05
-0.0002247937791032324,0.00029683337839865695,1.0708760076563691e-05
-0.00016285333368584558,0.0002967364666204597,1.0857152537818471e-05
-8.91931834175734e-05,0.00029667345499118385,1.1005505018221381e-05
-3.7931525486440248e-06,0.0002966502084071923,1.1153835934070975e-05
9.336923456639706e-05,0.00029667260242769675,1.1302166636779697e-05
0.000202318896203459,0.0002967465244603892,1.1450521418501719e-05
0.0003230829147134524,0.00029687787491311843,1.1598927518345096e-05
0.00045568983670241634,0.0002970725681009724,1.1747415129098619e-05
0.0006001685600096322,0.0002973365327001504,1.18960174042989e-05
0.0007565468246713778,0.0002976757115463207,1.2044770465360518e-05
0.0009248493318656206,0.0002980960605854549,1.2193713408393461e-05
0.001105095516305439,0.0002986035467974977,1.2342888310239199e-05
0.001297296995632948,0.0002992041449254823,1.2492340233169944e-05
0.001501454721931542,0.0002999038328548734,1.2642117227615033e-05
0.001717555872315471,0.0003007085855034352,1.279227033220461e-05
0.0019455705382979186,0.00030162436710608854,1.2942853570356991e-05
0.0021854482989597714,0.00030265712181540294,1.3093923942587364e-05
0.0024371147794305845,0.0003038127625850005,1.3245541413687465e-05
0.0027004682994672324,0.00030509715835472495,1.3397768893922397e-05
0.002975376711566064,0.00030651611960748326,1.3550672213412948e-05
0.0032616745181708057,0.0003080753824149175,1.3704320088918549e-05
0.0035591603424780724,0.00030978059113007973,1.3858784082304799e-05
0.003867594806074318,0.00031163727991721785,1.4014138550066624e-05
0.00418669884239115,0.00031365085332933423,1.4170460583378262e-05
0.0045161524506835546,0.0003158265661526029,1.4327829938248746e-05
0.004855593872230553,0.0003181695027333314,1.448632895547023e-05
0.005204619152568566,0.00032068455598953117,1.4646042470150945e-05
0.005562782046490809,0.000323376406289296,1.4807057710720652e-05
0.005929594226224809,0.0003262495003574749,1.4969464187382344e-05
0.006304525760528756,0.00032930803035416325,1.5133353570060254e-05
0.0066870058371116,0.00033255591325357335,1.529881955596219e-05
0.007076423702393006,0.0003359967706384495,1.5465957726935195e-05
0.007472129796238423,0.00033963390901310735,1.5634865396848084e-05
0.007873437070760258,0.000343470300729857,1.5805641449283824e-05
0.008279622502261996,0.00034750856562311254,1.5978386165872068e-05
0.008689928824668723,0.0003517509534548452,1.6153201045641556e-05
0.009103566518496763,0.00035619932729063656,1.6330188615827927e-05
0.009519716077578816,0.00036085514793965547,1.65094522346355e-05
0.009937530557339532,0.00036571945959838504,1.669109588652001e-05
0.010356138396917148,0.0003707928768369492,1.6875223970628844e-05
0.01077464650414961,0.00037607557306221587,1.7061941083103635e-05
0.011192143589982446,0.0003815672705857489,1.7251351794015625e-05
0.011607703736121988,0.000387267232417275,1.744356041976638e-05
0.012020390183344372,0.00039317425589714157,1.7638670791844985e-05
0.012429259339105572,0.00039928666827775404,1.783678602288871e-05
0.012833365012992266,0.0004056023243657785,1.8038008271049595e-05
0.013231762887400174,0.0004121186063408766,1.824243850372626e-05
0.01362351521659512,0.0004188324258668754,1.8450176261778198e-05
0.014007695725452149,0.0004257402286023872,1.8661319425395514e-05
0.014383394660864288,0.00043283800119896633,1.8875963982845853e-05
0.01474972394322256,0.00044012128084998804,1.909420380335809e-05
0.015105822369879921,0.00044758516742826365,1.9316130415427653e-05
0.01545086082486479,0.0004552243382269498,1.9541832791841457e-05
0.01578404744112009,0.00046303306529344606,1.9771397142721555e-05
0.01610463264806225,0.00047100523531574165,2.0004906717873852e-05
0.016411914030287293,0.000479134371985329,2.024244161969912e-05
0.01670524092782829,0.0004874136607248579,2.0484078627876666e-05
0.016984018716524444,0.0004958359756359461,2.0729891036966867e-05
0.017247712708558675,0.0005043939084922169,2.097994850799891e-05
0.01749585160877896,0.0005130797995715513,2.123431693501485e-05
0.0177280304611317,0.0005218857700890289,2.1493058327429996e-05
0.017943913027081582,0.0005308037559610823,2.1756230708942523e-05
0.018143233550983705,0.0005398255426055987,2.2023888033584194e-05
0.01832579787873573,0.0005489428004630285,2.229608011935135e-05
0.018491483905943913,0.0005581471209091984,2.2572852599694408e-05
0.018640241346721157,0.0005674300522223646,2.28542468929773e-05
0.018772090834263302,0.0005767831352676108,2.3140300189849793e-05
0.018887122380448672,0.0005861979385712888,2.3431045458309517e-05
0.01898549322820722,0.0005956660924734528,2.37265114660707e-05
0.019067425132778027,0.0006051793220636991,2.402672281970499e-05
0.019133201112826813,0.0006147294786251003,2.433170001987719e-05
0.01918316172020431,0.0006243085693333581,2.4641459531866803e-05
0.01921770088618233,0.0006339087849849547,2.495601387044638e-05
0.019237261412047155,0.0006435225255595121,2.5275371698082498e-05
0.0192423301825487,0.0006531424234581611,2.5599537935336917e-05
0.019233433190848335,0.0006627613643015104,2.5928513882276836e-05
0.019211130470130528,0.0006723725052167551,2.6262297349656403e-05
0.019176011023363006,0.0006819692905901285,2.6600882798608123e-05
0.019128687822944506,0.0006915454653017054,2.694426148758108e-05
0.019069792918083053,0.0007010950854869622,2.729242162527825e-05
0.018999972650517536,0.0007106125268791124,2.7645348528369766e-05
0.01891988295131013,0.0007200924907795693,2.8003024782784436e-05
0.018830184679686123,0.0007295300076873184,2.8365430407401157e-05
0.018731538966518604,0.0007389204385988696,2.8732543018972705e-05
0.018624602533314702,0.0007482594739738279,2.910433799711588e-05
0.018510022971028425,0.0007575431303499137,2.9480788648196816e-05
0.018388433983964416,0.0007667677445886619,2.986186636693146e-05
0.01826045062889326,0.0007759299657418763,3.0247540794514097e-05
0.018126664598185054,0.0007850267445486459,3.0637779972086726e-05
0.017987639605252823,0.0007940553205995054,3.103255048837376e-05
0.01784390693880813,0.0008030132072355206,3.143181762033252e-05
0.017695961266111077,0.0008118981742867504,3.183554546571309e-05
0.0175442567800217,0.0008207082287982837,3.2243697066484344e-05
0.017389203789732202,0.0008294415939407221,3.2656234522169094e-05
0.01723116584392608,0.0008380966863491367,3.307311909224156e-05
0.017070457450694142,0.0008466720921727918,3.349431128687205e-05
0.016907342428677814,0.0008551665421426348,3.39197709454509e-05
0.016742032891809,0.0008635788859727565,3.434945730247975e-05
0.016574688834743615,0.0008719080664043946,3.478332904057404e-05
0.016405418252841333,0.0008801530931762908,3.522134433046921e-05
0.0162342777117757,0.0008883130171674451,3.566346085805514e-05
0.01606127328357497,0.0008963869049162828,3.6109635838576075e-05
0.015886361780588186,0.0009043738136823237,3.655982601822573e-05
0.015709452234008763,0.0009122727671859728,3.7013987663442804e-05
0.015530407573293822,0.0009200827321377985,3.747207653827375e-05
0.015349046470241115,0.0009278025956486823,3.793404787022037e-05
0.015165145321204247,0.0009354311435965436,3.839985630503167e-05
0.014978440352389032,0.000942967040014942,3.8869455850934545e-05
0.014788629843516763,0.0009504088075639184,3.934279981282926e-05
0.014595376472823576,0.0009577548091430035,3.981984071700599e-05
0.014398309791406699,0.000965003230709061,4.0300530226969004e-05
0.014197028838989418,0.00097215206536666,4.0784819050987936e-05
0.0139911049186166,0.0009791990988060615,4.127265684203112e-05
0.013780084551766535,0.0009861418961736573,4.176399209077605e-05
0.013563492633224702,0.0009929777904699052,4.225877201243694e-05
0.01334083579963148,0.0009997038725781191,4.2756942428198945e-05
0.013111606026377112,0.0010063169830346213,4.325844764210213e-05
0.01287528447856331,0.0010128137056608563,4.3763230314276e-05
0.012631345655435526,0.001019190363194356,4.42712313314898e-05
0.012379261871186462,0.0010254430150760114,4.478238967605739e-05
0.01211850810128229,0.0010315674575691286,4.5296642294218674e-05
0.01184856719436475,0.0010375592263930403,4.581392396520922e-05
0.01156893540952199,0.001043413602044012,4.633416717231848e-05
0.01127912819281078,0.0010491256179445952,4.685730197731563e-05
0.010978686065441261,0.0010546900715091582,4.738325589967907e-05
0.010667180470460978,0.0010601015381431337,4.791195380209214e-05
0.010344219422423638,0.001065354388116355,4.844331778365701e-05
0.010009452824526685,0.0010704428061780926,4.897726708223062e-05
0.009662577350686928,0.001075360813721896,4.951371798720562e-05
0.009303340820424754,0.001080102293264674,5.005258376395226e-05
0.008931546010465264,0.0010846610149723964,5.0593774591011525e-05
0.008547053849782129,0.0010890306649374581,5.113719751098899e-05
0.00814978594610837,0.0010932048748864308,5.168275639594496e-05
0.007739726402087604,0.0010971772529734798,5.2230351927909936e-05
0.00731692289894127,0.001100941415298737,5.277988159497799e-05
0.006881487047314805,0.001104491017785301,5.3331239703249005e-05
0.006433594021146929,0.0011078197880524164,5.3884317404708434e-05
0.005973481500412071,0.0011109215569328063,5.443900274095474e-05
0.00550144795993204,0.0011137902892978922,5.499518070251241e-05
0.005017850359555142,0.001116420113877764,5.555273330330633e-05
0.004523101309543379,0.0011188053517950385,5.611153966972453e-05
0.004017665792183704,0.0011209405435704703,5.667147614356591e-05
0.0035020575160525126,0.0011228204743975294,5.7232416398057904e-05
0.0029768349754917983,0.0011244401975204154,5.779423156603739e-05
0.002442597293098666,0.001125795055587563,5.835679037931439e-05
0.0018999799300665045,0.0011268806998933542,5.891995931818462e-05
0.0013496503470437275,0.0011276931074626318,5.948360277002362e-05
0.0007923036882362404,0.0011282285959714519,6.004758319588214e-05
0.000228658553428698,0.001128483836531868,6.061176130400797e-05
-0.0003405470821662309,0.0011284558643996838,6.117599622924086e-05
-0.0009145597505788067,0.0011281420876914975,6.174014571726366e-05
-0.0014926141451236709,0.0011275402942175718,6.230406631274092e-05
-0.0020739365354430907,0.00112664865654743,6.286761355043217e-05
-0.002657747952007927,0.0011254657354255672,6.343064214842542e-05
-0.0032432671658699018,0.0011239904816460978,6.399300620269334e-05
-0.003829713503549808,0.0011222222364787428,6.455455938222455e-05
-0.004416309544291019,0.0011201607307167827,6.511515512402342e-05
-0.005002283747209241,0.0011178060823939077,6.56746468273011e-05
-0.005586873052545476,0.001115158793193969,6.623288804619806e-05
-0.006169325496071393,0.0011122197435568149,6.678973268038575e-05
-0.006748902866900106,0.001108990186466072,6.734503516289146e-05
-0.0073248834238304385,0.0011054717398933894,6.789865064448133e-05
-0.007896564661902625,0.0011016663778719562,6.845043517392266e-05
-0.008463266091538722,0.0010975764201835959,6.900024587343656e-05
-0.00902433196468143,0.0010932045206695409,6.954794110864984e-05
-0.009579133862960769,0.0010885536542126304,7.009338065237038e-05
-0.010127073055008805,0.001083627102483138,7.063642584154432e-05
-0.010667582534585949,0.0010784284385857393,7.117693972681154e-05
-0.011200128669453756,0.0010729615107847295,7.171478721415416e-05
-0.0117242124195952,0.0010672304255124672,7.224983519822845e-05
-0.0122393701122041,0.0010612395298795175,7.278195268707645e-05
-0.012745173782339988,0.0010549933939058814,7.33110109180228e-05
-0.013241231103837198,0.0010484967926843371,7.383688346467035e-05
-0.013727184948833564,0.0010417546886711693,7.435944633500922e-05
-0.014202712627633274,0.0010347722142770527,7.487857806074628e-05
-0.01466752487393703,0.0010275546549016602,7.539415977804095e-05
-0.015121364653671717,0.001020107432519758,7.590607529989631e-05
-0.015564005886177117,0.0010124360898847958,7.641421118049745e-05
-0.015995252169037532,0.0010045462753709921,7.69184567718114e-05
-0.016414935586826,0.0009964437284320261,7.741870427276215e-05
-0.01682291566037052,0.000988134265620227,7.791484877127521e-05
-0.017219078469754737,0.0009796237670876959,7.840678827945219e-05
-0.017603335974596856,0.000970918163476608,7.889442376209327e-05
-0.01797562555829215,0.0009620234230933857,7.937765915873577e-05
-0.01833590982494322,0.0009529455392475769,7.985640139932101e-05
-0.018684176668350892,0.0009436905176242533,8.033056041353896e-05
-0.01902043961014989,0.0009342643635546281,8.080004913383368e-05
-0.019344738372589734,0.0009246730690589432,8.126478349198707e-05
-0.01965713961771834,0.0009149225995613662,8.172468240914214e-05
-0.019957737758235367,0.0009050188802173778,8.217966777908683e-05
-0.020246655731626897,0.0008949677818449123,8.26296644446024e-05
-0.02052404562482701,0.0008847751065057987,8.307460016669008e-05
-0.02079008903316669,0.0008744465728413003,8.351440558652685e-05
-0.021044997030586942,0.0008639878013253618,8.394901418006852e-05
-0.02128900962148218,0.0008534042996623445,8.437836220531545e-05
-0.021522394543968957,0.0008427014486209817,8.480238864238628e-05
-0.021745445304789078,0.0008318844886587922,8.522103512670622e-05
-0.02195847835064963,0.0008209585077449326,8.563424587580716e-05
-0.022161829319895406,0.0008099284308272963,8.604196761045022e-05
