frame_number,force
0,610.2337000000548
1,610.3404647106305
2,610.4417980946691
3,610.5327576407873
4,610.6093534424624
5,610.6689343159723
6,610.7104303744735
7,610.7344107574106
8,610.7429561241379
9,610.7393745701178
10,610.7278034182889
11,610.7127460117944
12,610.6985938033595
13,610.689178164257
14,610.6873851173908
15,610.6948548450617
16,610.7117839125516
17,610.7368536069787
18,610.7673129659629
19,610.7992397262001
20,610.8279829226364
21,610.8487528585468
22,610.8572708398478
23,610.8503514717819
24,610.826300587642
25,610.7850709639694
26,610.7281858698072
27,610.6584842303243
28,610.5797570054785
29,610.496336985798
30,610.4126806165857
31,610.3329619605895
32,610.2607020656051
33,610.1984705102442
34,610.1477020295374
35,610.1086688484586
36,610.0806366319462
37,610.0621938480311
38,610.0516803522398
39,610.0475847719391
40,610.0487759120078
41,610.0544980142841
42,610.0641658877371
43,610.0770826075144
44,610.0922168274312
45,610.1081214348901
46,610.1230034328614
47,610.134912339703
48,610.1420042235985
49,610.1428403860401
50,610.1366774798296
51,610.1236954729195
52,610.105100793584
53,610.0830522730771
54,610.0603949041728
55,610.0402360226719
56,610.0254392283266
57,610.018136444863
58,610.0193650193426
59,610.0289107012959
60,610.0453771415414
61,610.066442912755
62,610.0892442440758
63,610.1108271293775
64,610.1286136394095
65,610.1408159710022
66,610.1467237600125
67,610.1467996042699
68,610.1425518952698
69,610.1362098922845
70,610.1302802990775
71,610.1270876419703
72,610.128385727631
73,610.1350946584478
74,610.1471877293013
75,610.1637256107965
76,610.1830040847284
77,610.2027532929984
78,610.2203231564496
79,610.2328258514121
80,610.2372654004052
81,610.2307226683516
82,610.2106503392688
83,610.1752795269949
84,610.1240821279888
85,610.0581920415054
86,609.9806719208108
87,609.8965265608088
88,609.812410355997
89,609.7360425351064
90,609.6754052565828
91,609.6378337298685
92,609.6291157408921
93,609.6527168923801
94,609.7092381324773
95,609.7961806864732
96,609.9080449573325
97,610.0367475872874
98,610.1723166290623
99,610.3038084616228
100,610.420367991585
101,610.5123259520035
102,610.5722066643127
103,610.5955213506978
104,610.581250691356
105,610.5319632620988
106,610.4535553774231
107,610.3546295789123
108,610.2455643632557
109,610.1373691175672
110,610.040452651158
111,609.9634500951668
112,609.9122525720039
113,609.8893694178988
114,609.893718541718
115,609.920883405854
116,609.963805139837
117,610.0138134823404
118,610.0618530464768
119,610.0997347220282
120,610.1212374015122
121,610.1229079591782
122,610.1044574686608
123,610.0687143107641
124,610.0211512516743
125,609.9690485381623
126,609.9203961402706
127,609.8826812721875
128,609.8617460929066
129,609.860914678388
130,609.8805547659368
131,609.9181556300142
132,609.9688926156081
133,610.0265438047495
134,610.0845535958456
135,610.1370235881496
136,610.1794582780107
137,610.2091811159066
138,610.2254271792343
139,610.2291774296798
140,610.2228149519067
141,610.2096702418311
142,610.1935036348684
143,610.1779619657433
144,610.1660444926057
145,610.1596157695601
146,610.159008607878
147,610.1627681035702
148,610.1675910793318
149,610.1685026118001
150,610.1592810541981
151,610.1331061476702
152,610.0833700128056
153,610.0045612407846
154,609.8931142797526
155,609.7481132379248
156,609.57174744148
157,609.3694380592336
158,609.1495969629628
159,608.9230307440187
160,608.7020458400274
161,608.4993427852487
162,608.3268166847993
163,608.1944032900496
164,608.1091139607756
165,608.0743846815952
166,608.0898281727945
167,608.1514288033881
168,608.2521613079405
169,608.3829514223027
170,608.5338407839806
171,608.6951866227428
172,608.8587293184652
173,609.0183919686647
174,609.1707208120442
175,609.3149249824603
176,609.4525307616595
177,609.5867303945604
178,609.7215620954653
179,609.8610775260913
180,610.0086255079556
181,610.1663282718433
182,610.3347812046421
183,610.5129814690301
184,610.6984748045836
185,610.887691175669
186,611.0764192668952
187,611.260352056363
188,611.4356230247349
189,611.5992503317383
190,611.7494234983403
191,611.8856064386013
192,612.0084776583636
193,612.1197551887832
194,612.2219462116834
195,612.3180383025157
196,612.4111406665924
197,612.5040961214028
198,612.5991010493308
199,612.6973783060653
200,612.798949928655
201,612.9025540840419
202,613.0057338062519
203,613.105089609419
204,613.1966527525478
205,613.2763249362999
206,613.3403421621014
207,613.3857291050713
208,613.4106989490421
209,613.4149364875634
210,613.3997057844742
211,613.3677553164548
212,613.3230368065261
213,613.27028966453
214,613.2145650088011
215,613.1607710128427
216,613.1133111308775
217,613.0758602418157
218,613.0512900640867
219,613.0417205910246
220,613.0486447018643
221,613.0730619963921
222,613.1155728423206
223,613.1764099698825
224,613.2554005586175
225,613.3518573630872
226,613.4644138332877
227,613.5908488511461
228,613.7279670870423
229,613.8715927222097
230,614.0167054145554
231,614.1577157021968
232,614.2888534391816
233,614.4046294258342
234,614.5003228744986
235,614.5724417727555
236,614.6191020904593
237,614.640277899401
238,614.6378839168153
239,614.6156648799971
240,614.5788926384688
241,614.5339114125198
242,614.4876020867533
243,614.4468391241328
244,614.4179954428481
245,614.4065292300762
246,614.416670191318
247,614.4512107647574
248,614.5114011991699
249,614.5969467300257
250,614.7061059695569
251,614.8358864675117
252,614.9823248940509
253,615.140827243331
254,615.3065312631112
255,615.4746421542078
256,615.6406892303332
257,615.8006647233639
258,615.9510412859928
259,616.0887110917877
260,616.2109223362419
261,616.3152905557637
262,616.3999325952786
263,616.4637197876515
264,616.5065881480339
265,616.5297999424265
266,616.5360453717786
267,616.52930974572
268,616.5144936436736
269,616.4968372300295
270,616.4812482819874
271,616.4716585841693
272,616.4705302987178
273,616.4786025585656
274,616.4949189904695
275,616.5171245574402
276,616.5419747187191
277,616.5659649905161
278,616.5859689178396
279,616.5997732450502
280,616.6064227290486
281,616.6063260147833
282,616.6011128803729
283,616.5932628350658
284,616.58555216132
285,616.5803994737095
286,616.5792210640923
287,616.5819174944005
288,616.5865918439329
289,616.589558420407
290,616.5856560711759
291,616.5688360860453
292,616.532948518585
293,616.4726112973682
294,616.3840272699497
295,616.2656209159884
296,616.118396011279
297,615.9459589386719
298,615.7542008361195
299,615.5506844303762
300,615.3438342744703
301,615.1420610717224
302,614.9529436532636
303,614.7825603833504
304,614.6350351201546
305,614.5123461678736
306,614.4144211033031
307,614.3394971945781
308,614.2846795681263
309,614.2465961563402
310,614.2220383009293
311,614.2084849017547
312,614.2044289848817
313,614.2094576914175
314,614.2240835719977
315,614.2493806860816
316,614.2865210650548
317,614.3363156520803
318,614.3988444032927
319,614.4732340358527
320,614.5576154822569
321,614.6492558057953
322,614.7448134853377
323,614.8406399773035
324,614.9330665874407
325,615.0186569555937
326,615.0944326953489
327,615.158076208645
328,615.2081015408961
329,615.2439897468236
330,615.2663035341365
331,615.276789957603
332,615.2784353604709
333,615.2753918445982
334,615.2726987163185
335,615.2757796262343
336,615.289768321953
337,615.3187697334497
338,615.3651900178517
339,615.4292681567525
340,615.5089092749866
341,615.5998577119267
342,615.6961693447312
343,615.7908751673451
344,615.8767028286114
345,615.9467471102957
346,615.9950261914269
347,616.0168917808231
348,616.009268915283
349,615.970707151037
350,615.9012504965883
351,615.8021725413486
352,615.6756523731304
353,615.5244741610072
354,615.3518202586722
355,615.1611926997464
356,614.9564430704964
357,614.7418398281012
358,614.5220867490968
359,614.3022341001227
360,614.0874756223856
361,613.8828723052293
362,613.6930689325189
363,613.5220657490386
364,613.3730797569104
365,613.2484886683105
366,613.1498162669127
367,613.0777146786269
368,613.0319267063858
369,613.01124201287
370,613.0134748047608
371,613.0354952780933
372,613.0733494335086
373,613.1224909760049
374,613.1781193297458
375,613.2355831391831
376,613.2907836146788
377,613.3405002390086
378,613.3825655200512
379,613.4158443434438
380,613.4400289419939
381,613.4553216218522
382,613.4621079010733
383,613.4607034160796
384,613.4512072168259
385,613.4334490061879
386,613.4069989092307
387,613.3712088910016
388,613.3252621023048
389,613.2682188277254
390,613.1990664463419
391,613.1167951820589
392,613.0205169273867
393,612.9096224874777
394,612.7839529368854
395,612.6439584085565
396,612.4908222382405
397,612.326521479414
398,612.153783995716
399,611.9759156690021
400,611.7965154321837
401,611.6191404004118
402,611.4469945566682
403,611.2826929053668
404,611.128125225186
405,610.9844240273242
406,610.8520224269557
407,610.7307623125038
408,610.619989619005
409,610.5185685246045
410,610.4247731052006
411,610.3360723658831
412,610.2488914962204
413,610.1584733965959
414,610.0589531361896
415,609.9436992474498
416,609.8059025781236
417,609.6393360752326
418,609.4391756997985
419,609.202758883677
420,608.9301613432426
421,608.6244980024703
422,608.2918916179613
423,607.9410918152836
424,607.5827729970939
425,607.2285983930493
426,606.8901849849224
427,606.5781087211913
428,606.3010569837243
429,606.0651960379139
430,605.8737919154773
431,605.7271016134797
432,605.6225313211912
433,605.5550358558888
434,605.5177089659802
435,605.5024943294754
436,605.500940247337
437,605.5049272592121
438,605.5073098237725
439,605.5024266793868
440,605.4864504935701
441,605.4575649895249
442,605.4159738031232
443,605.363759925068
444,605.3046288933497
445,605.2435759175996
446,605.1865035574612
447,605.1397847760611
448,605.1097454499921
449,605.1020599611797
450,605.1211077843656
451,605.1693907388178
452,605.2471248540154
453,605.3520911679058
454,605.4797762380789
455,605.6237812590296
456,605.7764420539509
457,605.9295806229323
458,606.0752963317245
459,606.2066990922348
460,606.3184932668025
461,606.4073425197986
462,606.4719761337609
463,606.5130311827472
464,606.5326646370592
465,606.534012609024
466,606.5206061015595
467,606.4958559978348
468,606.4626859763621
469,606.4233319485979
470,606.3792738851754
471,606.3312545031857
472,606.2793724124956
473,606.2232802030466
474,606.1625235019508
475,606.0970049507703
476,606.0274788921191
477,605.9559407601623
478,605.8858027266023
479,605.8218163703417
480,605.7697631778665
481,605.7359634806022
482,605.7266685613107
483,605.7474150063507
484,605.8024264373825
485,605.894128865938
486,606.022812252807
487,606.186453950311
488,606.3807286755348
489,606.5992395293252
490,606.8339901347849
491,607.0760767270555
492,607.3165258112908
493,607.5471589430563
494,607.7613487969796
495,607.9545474887178
496,608.12451636984
497,608.2712528623379
498,608.3966711234748
499,608.5041282381967
500,608.5978948003624
501,608.682662512025
502,608.7631640863497
503,608.8439396286093
504,608.9292241417979
505,609.022885192076
506,609.128335392691
507,609.2483791983113
508,609.385002244993
509,609.5391472837239
510,609.7105327550154
511,609.897562668238
512,610.097359324153
513,610.3059321754132
514,610.5184789119522
515,610.7297935039255
516,610.934729278857
517,611.1286447092135
518,611.3077603032384
519,611.4693813601186
520,611.6119852952787
521,611.7352140747176
522,611.8398266641639
523,611.9276456576714
524,612.0014998044119
525,612.0651464927386
526,612.1231557247316
527,612.1807381792672
528,612.2435028070664
529,612.3171355539093
530,612.4069998443573
531,612.5176749842168
532,612.652471902184
533,612.8129890895748
534,612.9987867996053
535,613.2072565894244
536,613.4337366629499
537,613.6718757113889
538,613.9142032271582
539,614.1528391843582
540,614.3802645539307
541,614.5900709160816
542,614.777617598585
543,614.9405408040419
544,615.079059963091
545,615.196013798614
546,615.2965673420936
547,615.3875864456838
548,615.4767581835686
549,615.571601817687
550,615.6785411391818
551,615.8021919210956
552,615.9449632625746
553,616.1069940888398
554,616.2863730262904
555,616.4795466119828
556,616.6818179512426
557,616.8878674349291
558,617.0922632227971
559,617.2899444181745
560,617.4766508587278
561,617.6492618602095
562,617.8060106374373
563,617.9465603038442
564,618.0719490241017
565,618.1844226026989
566,618.28716375756
567,618.3839063996656
568,618.4784170421168
569,618.5738559829726
570,618.6720918953507
571,618.7731048674906
572,618.8746413285943
573,618.9722580106518
574,619.0598109192139
575,619.1303350057784
576,619.1771617826295
577,619.1950680617728
578,619.1812477437138
579,619.1359366922865
580,619.0625800221796
581,618.9675055334809
582,618.8591540502898
583,618.7469985452888
584,618.6403351249467
585,618.5471429447109
586,618.4731904712482
587,618.4215118767185
588,618.392294394123
589,618.3831313120872
590,618.3895422313391
591,618.4056562014572
592,618.4249762809253
593,618.441166370976
594,618.4488025568169
595,618.444013642313
596,618.4249257563289
597,618.3918493386371
598,618.3471974835599
599,618.295173249667
600,618.2412870739977
601,618.1917600206251
602,618.1528485916089
603,618.1301164826803
604,618.1276943590339
605,618.1476058964554
606,618.1892769636576
607,618.2493626852623
608,618.3220015681832
609,618.3995189109614
610,618.4734716356196
611,618.535820274506
612,618.5799924781998
613,618.6016644478481
614,618.5991785271619
615,618.573586277642
616,618.5283490341208
617,618.468765169087
618,618.4012312990419
619,618.3324617877374
620,618.2687748620978
621,618.2155172472914
622,618.1766595041971
623,618.1545615870369
624,618.1498896256311
625,618.1616603006914
626,618.1873884342383
627,618.2233122968219
628,618.2646800276926
629,618.3060996296782
630,618.3419590581275
631,618.366897052416
632,618.3762721040966
633,618.3665671588471
634,618.335685181611
635,618.2831156525407
636,618.2099667553748
637,618.1188651660894
638,618.0137375492302
639,617.8995026710733
640,617.7817027586243
641,617.6660816888126
642,617.5580970338486
643,617.4623628697079
644,617.3820676854538
645,617.3184666946689
646,617.2705642438343
647,617.2350616355359
648,617.2065780912444
649,617.1781032068398
650,617.1416251192493
651,617.0888831463072
652,617.0121934550581
653,616.9052826618765
654,616.7640468315279
655,616.5871481764863
656,616.3763741286003
657,616.1367069802848
658,615.8760815135234
659,615.6048393385561
660,615.3349153718232
661,615.078812979748
662,614.8484501304443
663,614.6539949423556
664,614.5028411107492
665,614.398878641404
666,614.3421809149654
667,614.3291599717323
668,614.353155309114
669,614.4053425682426
670,614.4758013783527
671,614.5545777151948
672,614.6326086464916
673,614.7024251883619
674,614.7585904097737
675,614.7978594194662
676,614.819076151068
677,614.8228553645719
678,614.811127648947
679,614.7866383210494
680,614.7524865860736
681,614.7117734556767
682,614.6673979546434
683,614.6220055993547
684,614.5780612937148
685,614.5379977307658
686,614.5043781954008
687,614.4800092105226
688,614.4679514383802
689,614.4714084180351
690,614.4935094929973
691,614.5370288517656
692,614.6040878602299
693,614.695878735489
694,614.8124420982124
695,614.9525371711509
696,615.1136464708657
697,615.2921412381502
698,615.4836060758381
699,615.6832947283332
700,615.8866610328942
701,616.0898717669127
702,616.2901752277338
703,616.4860074268242
704,616.6767891298288
705,616.8624737357001
706,617.0429876638392
707,617.2177259708608
708,617.3852364249625
709,617.5431677325882
710,617.6884843513626
711,617.8178772039645
712,617.9282527553872
713,618.0171787753221
714,618.0831963723564
715,618.1259546375768
716,618.146170984783
717,618.1454581740156
718,618.1260793496141
719,618.0906896367375
720,618.0421027975841
721,617.983098596689
722,617.9162736731996
723,617.8439394088822
724,617.7680752324285
725,617.6903405271308
726,617.6121297491485
727,617.5346362633013
728,617.4588862194176
729,617.3857210050244
730,617.3157413400046
731,617.2492629514513
732,617.1863474629179
733,617.1269429134467
734,617.0711079630495
735,617.0192398504772
736,616.9722053220261
737,616.9312910548969
738,616.8979442183859
739,616.8733515920617
740,616.8579725602121
741,616.8511663832113
742,616.8510357151081
743,616.8545596577368
744,616.858017266732
745,616.8576164032808
746,616.850172675759
747,616.8336635698989
748,616.8075239233408
749,616.7726277295573
750,616.7309822001581
751,616.6852183925284
752,616.6379914710492
753,616.5914098718715
754,616.546606131628
755,616.5035401644527
756,616.4610796096629
757,616.4173398014294
758,616.3702088048008
759,616.3179418476841
760,616.2596909620532
761,616.1958526096887
762,616.1281658091716
763,616.0595477499953
764,615.9936923721081
765,615.9344853865105
766,615.8853173185586
767,615.8484016608763
768,615.8242153612358
769,615.8111631116647
770,615.8055281036666
771,615.8017241185457
772,615.792820773761
773,615.7712832606527
774,615.7298483482873
775,615.6624407251177
776,615.5650171911426
777,615.436222510279
778,615.2777554097091
779,615.0943705572179
780,614.8934826999916
781,614.684400284096
782,614.4772900693556
783,614.2820297689476
784,614.1071127245865
785,613.9587293878798
786,613.8400980586687
787,613.7510853690555
788,613.6881516451236
789,613.644656589758
790,613.6115383439253
791,613.5783194971457
792,613.5343140380936
793,613.4698546405485
794,613.377365339428
795,613.2521611435523
796,613.0929209753473
797,612.9018196390344
798,612.6843197459094
799,612.4486412325381
800,612.2049600895108
801,611.9644298032804
802,611.7381498350907
803,611.5362131044194
804,611.3669436429838
805,611.2363872245229
806,611.1480575908374
807,611.1028960280514
808,611.0993861440498
809,611.1337699362132
810,611.200324985538
811,611.2916846870954
812,611.3992103871494
813,611.5134417718605
814,611.6246453185382
815,611.7234520413645
816,611.8015395773884
817,611.8522830493205
818,611.8712885306979
819,611.8567434076583
820,611.8095555137083
821,611.7332767874028
822,611.6338099084285
823,611.5189018600483
824,611.39745396622
825,611.2787119950278
826,611.171424442034
827,611.0830684150022
828,611.019237806709
829,610.9832566615928
830,610.9760249802317
831,610.9960552234312
832,611.0396462224812
833,611.1011659294711
834,611.1734466055581
835,611.2483071888864
836,611.3171981886863
837,611.3719255109906
838,611.4053745325708
839,611.4121456215938
840,611.3890317332426
841,611.3353016947924
842,611.2527761644357
843,611.1456899461688
844,611.0203375014114
845,610.8845113711218
846,610.7467676354258
847,610.6155842907766
848,610.4985099714812
849,610.4014191051572
850,610.3279829414528
851,610.2794333414903
852,610.2546501952571
853,610.2505546098424
854,610.2627396011866
855,610.2862203191231
856,610.3161526355188
857,610.348376283295
858,610.3796960151004
859,610.4078970365057
860,610.4315570464045
861,610.4497449024315
862,610.461694002936
863,610.4665229986084
864,610.4630557540578
865,610.4497703256542
866,610.4248860036207
867,610.3865803047089
868,610.3333119195254
869,610.2642043627169
870,610.1794201517932
871,610.0804416320509
872,609.9701836890887
873,609.8528929694958
874,609.7338288960982
875,609.6187667036404
876,609.513404174593
877,609.4227770427533
878,609.3507794135617
879,609.2998503178018
880,609.2708473705642
881,609.2630981940431
882,609.27460002721
883,609.3023276838069
884,609.3426134977332
885,609.3915730590934
886,609.4455474912228
887,609.501508976067
888,609.5573522107288
889,609.6120016126985
890,609.6653112067975
891,609.717796572212
892,609.7702797702443
893,609.8235317953387
894,609.87797260246
895,609.933459397495
896,609.9891772263703
897,610.0436376902205
898,610.0947746257394
899,610.1401013079933
900,610.1768869799618
901,610.202335577483
902,610.2137878272989
903,610.2089828389868
904,610.1863841532833
905,610.1455134163568
906,610.0871913681417
907,610.0136026799847
908,609.9281712639703
909,609.835302341598
910,609.7400648293888
911,609.6478492658895
912,609.5639889184978
913,609.4933252775382
914,609.439742056284
915,609.4057471454754
916,609.3922056687035
917,609.398303809729
