acceleration,velocity,displacement
0.004051371474882503,0.0,0.0
0.004159992903169603,2.0528410945130265e-06,5.132102736282566e-10
0.004271023566818998,4.160595212010177e-06,2.0665693502590573e-09
0.0043841615903529975,6.3243915013031755e-06,4.6878160285873955e-09
0.0044990972967085775,8.54520622306857e-06,8.405215459680332e-09
0.004615515554869104,1.082385943596299e-05,1.3247481874438222e-08
0.004733098459112466,1.3161012939458383e-05,1.9243699968293565e-08
0.004851528317061721,1.555716963350193e-05,2.6423245611533644e-08
0.004970490895196689,1.8012674436566534e-05,3.481570662905076e-08
0.005089678854004813,2.052771687386691e-05,4.445080445665912e-08
0.005208795297340463,2.310233541170323e-05,5.535831752805166e-08
0.005327557355679563,2.5736423574958236e-05,6.756800727471703e-08
0.0054456997213270944,2.84297378442099e-05,8.110954762950906e-08
0.005562978060525306,3.1181907289673e-05,9.601245891297979e-08
0.0056791722390918805,3.39924448645773e-05,1.1230604695154237e-07
0.005794089302484114,3.6860760249971297e-05,1.3001934823017952e-07
0.005907566142493775,3.978617411121577e-05,1.491810818204763e-07
0.006019471771530372,4.2767933589721805e-05,1.6981960874571068e-07
0.006129709126084412,4.5805228814125504e-05,1.9196289934667252e-07
0.0062382163367419126,4.8897210179832085e-05,2.156385090951619e-07
0.006344967424822466,5.204300612022318e-05,2.408735631701757e-07
0.006449972404736253,5.524174107761286e-05,2.676947499696347e-07
0.006553276782660532,5.849255337446205e-05,2.961283235826535e-07
0.00665496045099141,6.179461268287504e-05,3.2620011509698775e-07
0.006755135990946382,6.514713679335948e-05,3.5793555246604637e-07
0.006853946412989413,6.854940739434344e-05,3.913596885129721e-07
0.006951562382286229,7.200078459316235e-05,4.2649723650984855e-07
0.00704817899274151,7.550071993691928e-05,4.63372612642369e-07
0.0071440121701660045,7.904876772764615e-05,5.020099845585104e-07
0.007239294802521497,8.264459447081802e-05,5.424333251081264e-07
0.00733427270720061,8.628798634824854e-05,5.84666470312893e-07
0.007429200542999598,8.997885466079859e-05,6.287331805651548e-07
0.00752433775250651,9.371723923467512e-05,6.746572040390232e-07
0.007619944583087941,9.750330981857373e-05,7.224623413023354e-07
0.007716278194029494,0.0001013373655128531,7.721725101351922e-07
0.007813588826397731,0.0001052198322679599,8.238118095803955e-07
0.007912115997549495,0.0001091512584739467,8.774045822658722e-07
0.00801208468429227,0.00011313230864440714,9.329754740454607e-07
0.008113701473814211,0.00011716375518393375,9.905494900025458e-07
0.008217150682705369,0.00012124646822306364,1.0501520458542951e-06
0.008322590464283682,0.00012538140350981092,1.1118090137875137e-06
0.008430148938028294,0.0001295695883603889,1.1755467617550637e-06
0.008539920383110293,0.00013381210569067355,1.2413921852678293e-06
0.008651961545210434,0.00013811007617275372,1.309372730733686e-06
0.008766288114888342,0.0001424646385877784,1.379516409423819e-06
0.008882871447408786,0.00014687692847835268,1.4518518011903518e-06
0.009001635608632737,0.00015134805524236305,1.5264080471205306e-06
0.009122454849727617,0.00015587907785695313,1.6032148303953598e-06
0.009245151630513829,0.0001604709794770135,1.6823023447288515e-06
0.009369495316065072,0.00016512464121365823,1.7637012499015195e-06
0.009495201652866237,0.00016984081545589106,1.8474426140689069e-06
0.009621933092157328,0.00017462009914214694,1.9335578427184163e-06
0.009749299984444432,0.00017946290741129738,2.022078594356777e-06
0.00987686263066265,0.00018436944806507415,2.11303668322587e-06
0.010004134140346876,0.00018933969725782652,2.206463969556595e-06
0.010130584012946227,0.0001943733767961498,2.302392238070089e-06
0.01025564233246898,0.0001994699333825036,2.4008530656147524e-06
0.010378704458380215,0.00020462852008021592,2.5018776789804324e-06
0.010499136108326684,0.00020984798022189265,2.6054968040559594e-06
0.010616278751732728,0.0002151268339369075,2.7117405075956593e-06
0.010729455255730675,0.00022046326743877336,2.8206380329395794e-06
0.010837975739574346,0.0002258551251875996,2.9322176310961727e-06
0.010941143601189958,0.0002312999050227907,3.0465063886487703e-06
0.011038261683058949,0.00023679475634385291,3.1635300539904313e-06
0.011128638543732201,0.0002423364814005507,3.283312863426532e-06
0.011211594793304051,0.00024792153973480976,3.405877368710372e-06
0.011286469438050808,0.0002535460557926485,3.531244267592237e-06
0.01135262616692539,0.00025920582969389257,3.659432238963872e-06
0.011409459505171369,0.00026489635111191676,3.7904577841653245e-06
0.011456400757001984,0.0002706128161774601,3.9243350759876685e-06
0.011492923654803363,0.0002763501472804114,4.061075816852137e-06
0.011518549625633286,0.00028210301560052057,4.20068910757237e-06
0.011532852585630688,0.00028786586615333655,4.343181328010834e-06
0.01153546318792074,0.0002936329450967244,4.488556030823349e-06
0.011526072472565646,0.000299398329011846,4.636813849350491e-06
0.011504434882366977,0.0003051559558505792,4.787952420566098e-06
0.011470370612847286,0.0003108996572243827,4.941966323834838e-06
0.01142376727346726,0.0003166231916959614,5.098847036064924e-06
0.011364580861171448,0.00032232027872962105,5.25858290367132e-06
0.011292836077194269,0.0003279846329642125,5.421159131594778e-06
0.011208626035493482,0.00033360999849238443,5.586557789458928e-06
0.011112111410686654,0.0003391901828539295,5.754757834795506e-06
0.011003519063716244,0.00034471909047253024,5.925735153127121e-06
0.010883140172897586,0.0003501907552816837,6.099462614565674e-06
0.010751327887641429,0.0003555993722968185,6.275910146460299e-06
0.010608494510455145,0.00036093932789634263,6.45504482150859e-06
0.010455108202675955,0.0003662052285746254,6.636830960626332e-06
0.010291689207308575,0.00037139192792712153,6.821230249751769e-06
0.010118805591464015,0.00037649455162681465,7.008201869640253e-06
0.009937068525417593,0.00038150852015603507,7.197702637585965e-06
0.009747127125479687,0.0003864295690687594,7.389687159892164e-06
0.009549662890964799,0.0003912537665728705,7.584107993802572e-06
0.009345383767787615,0.0003959775282375586,7.780915817505178e-06
0.009135017880209243,0.00040059762864955785,7.980059606726957e-06
0.008919306989778775,0.0004051112098670549,8.18148681635611e-06
0.00869899976134421,0.00040951578655483564,8.385143565461584e-06
0.008474844932568655,0.00041380924772831384,8.59097482403237e-06
0.008247584491904521,0.00041798985508443215,8.798924599735558e-06
0.008017946970193304,0.0004220562379499566,9.008936122994156e-06
0.0077866409439269774,0.00042600738492848666,9.220952028713767e-06
0.007554348834967362,0.00042984263237321027,9.43491453303919e-06
0.007321721075061452,0.00043356164985071746,9.650765603595173e-06
0.007089370688519529,0.0004371644227916127,9.868447121755755e-06
0.006857868337479469,0.0004406512325481124,1.0087901035590686e-05
0.006627737873387543,0.00044402263410082916,1.0309069502252922e-05
0.006399452440858337,0.0004472794316793906,1.0531895018697977e-05
0.006173431175906935,0.0004504226525835819,1.0756320539763721e-05
0.005950036525464018,0.00045345351950892463,1.0982289582786848e-05
0.00572957219743734,0.00045637342168965,1.1209746318086492e-05
0.005512281739762768,0.00045918388517395003,1.1438635644802393e-05
0.005298347741797254,0.00046188654254434,1.1668903251731965e-05
0.005087891646537783,0.0004644831023914238,1.1900495662965907e-05
0.004880974156996164,0.00046697531884230727,1.2133360268274339e-05
0.004677596217854886,0.00046936496143602004,1.236744533834392e-05
0.004477700556075574,0.00047165378562950263,1.26027000251103e-05
0.0042811737702689815,0.0004738435042110888,1.2839074347570449e-05
0.004087848963516137,0.0004759357598945351,1.3076519163596854e-05
0.0038975089106848527,0.00047793209936308534,1.3314986128411259e-05
0.003709889736467677,0.0004798339490248735,1.3554427640508248e-05
0.0035246850588166166,0.00048164259272369457,1.379479677594539e-05
0.003341550531908624,0.0004833591516213759,1.4036047212031657e-05
0.0031601087081788545,0.00048498456643139776,1.427813314154485e-05
0.0029799541289145135,0.0004865195821406711,1.4521009178687867e-05
0.002800658543315582,0.00048796473530872864,1.4764630258050217e-05
0.0026217761473238356,0.0004893203439813885,1.5008951527872746e-05
0.002442848732502793,0.0004905865002013452,1.525392823891843e-05
0.0022634106480502857,0.0004917630650464835,1.5499515630230386e-05
0.002082993506041154,0.0004928496660850063,1.5745668813013258e-05
0.00190113059559657,0.0004938456971104158,1.5992342653812112e-05
0.00171736100580994,0.0004947503200107674,1.6239491658092407e-05
0.0015312334793914032,0.0004955624686320678,1.6487069855253116e-05
0.0013423100244424975,0.0004962808545080263,1.673503068603814e-05
0.0011501693063802165,0.0004969039743407319,1.698332689325033e-05
0.0009544098350109879,0.0004974301191260798,1.7231910416617032e-05
0.000754652955759841,0.0004978573848237724,1.7480732292604494e-05
0.0005505456463580114,0.0004981836844743019,1.772974255992901e-05
0.00034176310939779825,0.0004984067616632409,1.7978890171463396e-05
0.0001280111381526154,0.0004985242052251285,1.8228122913185488e-05
-9.097177903392878e-05,0.0004985334650649082,1.8477387330758e-05
-0.00031541265405727876,0.0004984318689566354,1.8726628664263384e-05
-0.0005455025202234724,0.0004982166401630652,1.897579079154331e-05
-0.0007813952789846034,0.0004978849157132632,1.922481618051239e-05
-0.0010232068420794563,0.0004974337651829972,1.9473645850736456e-05
-0.0012710145180561752,0.0004968602098429633,1.9722219344492946e-05
-0.0015248565854242267,0.0004961612420670932,1.997047470747046e-05
-0.0017847320003442566,0.0004953338449206511,2.0218348479217395e-05
-0.002050600201333643,0.0004943750118702316,2.0465775693415114e-05
-0.0023223809952003156,0.0004932817665710981,2.0712689888025448e-05
-0.002599954532531427,0.0004920511826891652,2.0959023125340514e-05
-0.002883161399332172,0.0004906804037061993,2.1204706021939353e-05
-0.0031718028561716263,0.0004891666626423234,2.1449667788526483e-05
-0.003465641246656948,0.0004875073016166162,2.1693836279591218e-05
-0.003764400579481177,0.0004856997911600817,2.1937138052785393e-05
-0.0040677672693842,0.00048374174919786536,2.217949843787488e-05
-0.004375391005509246,0.000481630959629142,2.242084161508163e-05
-0.004686885703244756,0.00047936539045195347,2.2661090702601905e-05
-0.005001830491954361,0.0004769432114031537,2.2900167853065683e-05
-0.005319770698948615,0.0004743628111054279,2.313799435869283e-05
-0.005640218808654753,0.0004716228137285271,2.337449076490132e-05
-0.0059626554016363065,0.00046872209517595433,2.360957699212744e-05
-0.006286530103629036,0.000465659798799638,2.384317246562134e-05
-0.006611262590952154,0.0004624353506259927,2.4075196252977745e-05
-0.006936243701312841,0.0004590484740529264,2.4305567209147474e-05
-0.0072608366937874326,0.0004554992039541513,2.4534204128649245e-05
-0.0075843786956127715,0.00045178790010680126,2.4761025904664483e-05
-0.007906182368781803,0.0004479152598407026,2.498595169465136e-05
-0.008225537825802865,0.00044388232979205645,2.520890109205955e-05
-0.008541714819911667,0.00043969051663062783,2.542979430366522e-05
-0.008853965227848468,0.0004353415966186878,2.5648552331977548e-05
-0.009161525831399836,0.0004308377238538757,2.5865097162095688e-05
-0.009463621389280991,0.00042618143704870547,2.6079351952321334e-05
-0.009759467977852737,0.00042137566470692203,2.629124122776024e-05
-0.01004827657016644,0.00041642372856991725,2.650069107607945e-05
-0.010329256816096193,0.0004113293452233516,2.6707629344527766e-05
-0.010601620979528983,0.0004060966257744453,2.6911985837277216e-05
-0.010864587985074359,0.00040073007353329444,2.7113692512104152e-05
-0.011117387533322321,0.00039523457965369527,2.73126836754009e-05
-0.011359264260702412,0.0003896154167051891,2.7508896174490623e-05
-0.01158948193588176,0.00038387823015604303,2.7702269586205932e-05
-0.011807327685422109,0.0003780290277507171,2.789274640068262e-05
-0.012012116223879989,0.00037207416677339155,2.808027219931365e-05
-0.012203194038549692,0.00036602033920778414,2.826479582580894e-05
-0.012379943462462127,0.0003598745548325312,2.844626954931902e-05
-0.012541786569444272,0.0003536441223245546,2.862464921860829e-05
-0.012688188842123796,0.0003473366284716626,2.8799894406307345e-05
-0.012818662592719429,0.0003409599156129518,2.8971968542328497e-05
-0.012932770144535552,0.00033452205742863804,2.9140839035588893e-05
-0.013030126793187206,0.00032803133319420736,2.9306477383244606e-05
-0.0131104035560259,0.0003214962006069041,2.9468859266694882e-05
-0.013173329697590165,0.0003149252672935001,2.9627964633669983e-05
-0.013218695001749206,0.0003083272611186652,2.9783777765773022e-05
-0.013246351750661384,0.00030171099943056257,2.993628733091033e-05
-0.013256216363649044,0.00029508535740198496,3.0085486420118466e-05
-0.013248270643403583,0.0002884592356502218,3.0231372568381517e-05
-0.013222562571366045,0.0002818415273465294,3.0373947759130703e-05
-0.013179206588062193,0.00027524108505667233,3.0513218412231505e-05
-0.013118383290336988,0.00026866668758707254,3.0649195355392444e-05
-0.013040338479419955,0.0002621270071446333,3.078189377907537e-05
-0.012945381503065864,0.00025563057714901187,3.091133317514878e-05
-0.012833882852852512,0.0002491857610600323,3.1037537259701044e-05
-0.01270627100845589,0.0002428007225947052,3.1160533880614725e-05
-0.012563028565110858,0.0002364833977013135,3.128035491068873e-05
-0.01240468772899494,0.00023024146862778705,3.1397036127271e-05
-0.012231825304157064,0.00022408234036949907,3.151061707952032e-05
-0.012045057317151706,0.00021801311971417187,3.162114094454124e-05
-0.011845033433738751,0.00021204059702644926,3.17286543737264e-05
-0.011632431317723957,0.00020617123083858357,3.183320733069266e-05
-0.011407951064321256,0.00020041113524307228,3.193485292221307e-05
-0.011172309811653913,0.0001947660700240785,3.203364722352986e-05
-0.010926236603385847,0.00018924143342031856,3.212964909939096e-05
-0.010670467554070582,0.00018384225738095445,3.222292002209128e-05
-0.010405741360104479,0.00017857320515241067,3.231352388772462e-05
-0.010132795194112594,0.0001734385710138564,3.2401526831766184e-05
-0.00985236100794324,0.00016844228196334244,3.2486997045010485e-05
-0.009565162249369838,0.00016358790114901417,3.257000459078857e-05
-0.009271910979688647,0.00015887863284174954,3.265062122428627e-05
-0.008973305370111198,0.0001543173287542996,3.272892021468528e-05
-0.008670027552590057,0.00014990649552362427,3.280497617075476e-05
-0.008362741800347065,0.00014564830318539,3.287886487043201e-05
-0.008052093011845795,0.00014154459448234178,3.295066309484894e-05
-0.007738705471003801,0.00013759689486162938,3.3020448467184937e-05
-0.007423181861226591,0.0001338064230285718,3.3088299296657484e-05
-0.007106102522560572,0.000130174101932625,3.315429442789778e-05
-0.00678802495351713,0.00012670057006360558,3.321851309589684e-05
-0.00646948356061185,0.00012338619293507334,3.3281034786646506e-05
-0.0061509896460879765,0.00012023107463339839,3.3341939103538624e-05
-0.005833031608606296,0.00011723506931972482,3.3401305639526906e-05
-0.005516075326804511,0.00011439779258587212,3.3459213855003306e-05
-0.005200564701301366,0.00011171863257884565,3.351574296129448e-05
-0.004886922338087305,0.00010919676081899848,3.3570971809643946e-05
-0.004575550363201844,0.00010683114264367619,3.3624978785509614e-05
-0.0042668313690919024,0.00010462054721060276,3.367784170797319e-05
-0.003961129503743383,0.00010256355699239394,3.372963773402394e-05
-0.0036587917148749303,0.00010065857668773936,3.378044326744397e-05
-0.0033601491518111784,9.890384147106783e-05,3.383033387198367e-05
-0.0030655187169237974,9.729742450388408e-05,3.387938418847741e-05
-0.0027752047546405274,9.583724363599301e-05,3.392766785551238e-05
-0.0024895008665078355,9.452106723070592e-05,3.397525743322905e-05
-0.0022086918400461117,9.334651905406744e-05,3.402222432980025e-05
-0.001933055671905845,9.231108217607945e-05,3.4068638730107786e-05
-0.0016628656480190103,9.141210184609823e-05,3.411456952611333e-05
-0.001398392417558854,9.064678732970377e-05,3.416008424840728e-05
-0.0011399059744445885,9.00122127317029e-05,3.420524899842263e-05
-0.0008876774518473068,8.950531687512993e-05,3.425012838082434e-05
-0.0006419806446642194,8.912290235100204e-05,3.4294785435630876e-05
-0.00040309319286309684,8.886163389162021e-05,3.433928156969153e-05
-0.00017129737048884427,8.871803625078223e-05,3.438367648722713e-05
5.311957351077759e-05,8.868849180153772e-05,3.442802811924021e-05
0.0002698655742802638,8.876923808848548e-05,3.447239255171271e-05
0.00047864444522087543,8.895636559336077e-05,3.451682395263317e-05
0.0006791571107797868,8.924581598236093e-05,3.45613744980271e-05
0.0008711033449842168,8.963338109630194e-05,3.4606094297296764e-05
0.0010541839553551181,9.011470292138677e-05,3.465103131830119e-05
0.0012281033394888972,9.068527474509777e-05,3.469623131271781e-05
0.0013925723396075226,9.134044366487188e-05,3.47417377423203e-05
0.0015473113228447414,9.207541458048495e-05,3.478759170688164e-05
0.0016920534188438498,9.28852557659071e-05,3.483383187446824e-05
0.0018265478473370018,9.376490608245232e-05,3.488049441493033e-05
0.0019505632618489685,9.470918385974881e-05,3.4927612937415876e-05
0.002063891023050063,9.571279743097357e-05,3.4975218432738554e-05
0.0021663483058138922,9.677035726318956e-05,3.5023339221412096e-05
0.002257780946999212,9.787638957639283e-05,3.507200090812199e-05
0.002338065957965371,9.902535130263398e-05,3.512122634334175e-05
0.0024071136503946906,0.00010021164620472399,3.517103559271859e-05
0.002464869348605429,0.00010142964195447402,3.522144591475839e-05
0.0025113146809671396,0.00010267368796186716,3.5272471747237476e-05
0.0025464684539849734,0.00010393813374560519,3.532412470266434e-05
0.0025703871170131157,0.00010521734763835471,3.537641357301033e-05
0.0025831648305031075,0.00010650573562523377,3.542934434382623e-05
0.00258493315948161,0.00010779776012272995,3.548292021776322e-05
0.002575860422943556,0.00010908795851833624,3.553714164742349e-05
0.0025561507352420284,0.00011037096130788264,3.559200637738004e-05
0.002526042777578352,0.00011164150968608773,3.5647509495128534e-05
0.0024858083406146692,0.00011289447246563598,3.5703643490666467e-05
0.002435750688388038,0.00011412486222288666,3.57603983243386e-05
0.0023762028093100946,0.00011532785059731119,3.5817761502543646e-05
0.002307525633668678,0.00011649878270805589,3.587571816086999e-05
0.002230106300087172,0.00011763319069149485,3.593425115421988e-05
0.002144356545061486,0.00011872680640278202,3.599334115349345e-05
0.0020507112734974545,0.00011977557335742176,3.6052966748433497e-05
0.0019496273456853478,0.00012077565801221746,3.611310455627591e-05
0.0018415825878585056,0.00012172346049560343,3.6173729335902863e-05
0.0017270750024555208,0.00012261562489318192,3.623481410725006e-05
0.0016066221273411058,0.00012344904917563107,3.629633027576726e-05
0.0014807604774363494,0.00012422089482682543,3.6358247761767875e-05
0.001350044996934215,0.00012492859619541807,3.642053513452344e-05
0.0012150484494691497,0.0001255698695570189,3.6483159750961547e-05
0.0010763606751571758,0.00012614272183817548,3.654608789881035e-05
0.0009345876508110267,0.00012664545891966753,3.660928494399981e-05
0.0007903503023922158,0.00012707669340796833,3.6672715482081714e-05
0.0006442830302036411,0.0001274353517411173,3.6736343493368984e-05
0.0004970319095834398,0.00012772068047606406,3.680013250142328e-05
0.00034925252370476183,0.00012793225158438612,3.686404573443839e-05
0.00020160737878940443,0.00012806996656000965,3.692804628897449e-05
5.476285224885946e-05,0.0001281340591177692,3.699209729539393e-05
-9.061436670212316e-05,0.0001281250962391559,3.705616208423316e-05
-0.0002338613638514316,0.0001280439773065175,3.712020435261958e-05
-0.00037432359956998966,0.00012789193106566214,3.7184188329712626e-05
-0.0005113599646321401,0.0001276705101746116,3.72480789400227e-05
-0.000644348199227273,0.00012738158313364674,3.7311841963349764e-05
-0.0007726905583230511,0.00012702732344425916,3.737544418999424e-05
