frame_number,force
0,721.6391430911665
1,721.6556048034558
2,721.6727905141762
3,721.6907831800244
4,721.7096379140223
5,721.729372471088
6,721.749960776456
7,721.7713296762911
8,721.7933587738629
9,721.815883030191
10,721.8386977224707
11,721.8615652933172
12,721.8842235963727
13,721.9063951077723
14,721.927796787737
15,721.9481503001452
16,721.9671921689583
17,721.9846832870081
18,722.0004171600142
19,722.0142264053361
20,722.0259872362282
21,722.0356218288786
22,722.0430985465813
23,722.0484300401015
24,722.0516693335778
25,722.0529041445106
26,722.0522498280791
27,722.0498414654205
28,722.0458257538658
29,722.0403535018454
30,722.0335736174203
31,722.0256294059463
32,722.0166576981665
33,722.0067908624249
34,721.9961612565719
35,721.9849072930131
36,721.9731801009837
37,721.9611497785709
38,721.949010390071
39,721.9369831053041
40,721.925317109289
41,721.9142880782774
42,721.9041941314799
43,721.8953492767355
44,721.8880745062936
45,721.8826868726233
46,721.879487090631
47,721.8787464736503
48,721.880694265751
49,721.8855065527898
50,721.8932977946412
51,721.9041156522441
52,721.9179393591445
53,721.9346815250357
54,721.954192934372
55,721.9762695892028
56,722.0006610244487
57,722.0270789130594
58,722.0552051925443
59,722.0846992765671
60,722.1152042301193
61,722.1463520068909
62,722.1777679781962
63,722.2090750606097
64,722.2398977680199
65,722.2698664432429
66,722.2986217856154
67,722.3258196508586
68,722.3511360078155
69,722.3742718834483
70,722.3949580526486
71,722.4129591198479
72,722.4280765983839
73,722.4401507166531
74,722.4490608884417
75,722.4547248990247
76,722.4570968451712
77,722.456163896596
78,722.451942147957
79,722.4444720955067
80,722.4338143933427
81,722.4200464600415
82,722.4032603165523
83,722.3835618376888
84,722.3610714042259
85,722.3359257350213
86,722.3082804917182
87,722.2783131579586
88,722.2462257372999
89,722.2122469235941
90,722.1766334636975
91,722.1396704236395
92,722.101670058661
93,722.0629690618214
94,722.0239241452775
95,721.9849061338438
96,721.946292936482
97,721.9084618629278
98,721.8717817691049
99,721.8366054552178
100,721.8032626189464
101,721.7720535166765
102,721.743243359192
103,721.7170574183637
104,721.6936768705841
105,721.6732354950481
106,721.6558173645171
107,721.6414555652942
108,721.630131854825
109,721.6217771163359
110,721.6162724872278
111,721.6134510562653
112,721.6131000384842
113,721.6149633813149
114,721.6187448501155
115,721.6241117733454
116,721.6306997386001
117,721.6381185389353
118,721.6459595420987
119,721.6538044442169
120,721.6612351625737
121,721.6678444747901
122,721.6732469086083
123,721.677089280836
124,721.6790601817511
125,721.6788976780139
126,721.6763946352587
127,721.6714013462631
128,721.663825526772
129,721.653630096463
130,721.6408293764882
131,721.6254843554539
132,721.6076975694851
133,721.587608016389
134,721.5653864096613
135,721.5412309442846
136,721.5153635781979
137,721.488026641985
138,721.4594794122881
139,721.4299942074103
140,721.3998516699736
141,721.3693351763302
142,721.338724630444
143,721.3082901202721
144,721.2782859774503
145,721.2489457086912
146,721.2204780957728
147,721.1930645139172
148,721.1668572469201
149,721.1419783772848
150,721.1185187871172
151,721.0965369287829
152,721.0760572423529
153,721.057068330905
154,721.0395212164273
155,721.0233281598258
156,721.0083625895642
157,720.9944606100742
158,720.981424363269
159,720.9690272366526
160,720.9570206291943
161,720.9451418082434
162,720.9331223625153
163,720.9206968149416
164,720.9076110233001
165,720.8936300396213
166,720.8785451264379
167,720.8621796554398
168,720.8443936734791
169,720.8250870308508
170,720.8042011046604
171,720.7817192676433
172,720.7576663222413
173,720.7321071614577
174,720.7051449600214
175,720.6769192051285
176,720.6476037660086
177,720.6174049752241
178,720.5865594834705
179,720.5553316138046
180,720.5240101198607
181,720.4929045201119
182,720.4623413572762
183,720.4326607230201
184,720.4042131916908
185,720.3773569813843
186,720.3524548514897
187,720.3298701373814
188,720.3099614686578
189,720.2930759847046
190,720.2795410950231
191,720.2696549951766
192,720.263676278264
193,720.261813099616
194,720.2642124723315
195,720.2709503999487
196,720.2820236585785
197,720.2973440792781
198,720.3167361376468
199,720.3399385142121
200,720.3666099958436
201,720.3963396358367
202,720.4286605854687
203,720.4630666103039
204,720.4990300845841
205,720.5360201942658
206,720.5735201520667
207,720.611042445594
208,720.6481414752658
209,720.6844232882822
210,720.7195523502165
211,720.7532553785668
212,720.7853222963048
213,720.8156044771881
214,720.8440106471404
215,720.8705009684089
216,720.895079892667
217,720.9177883448167
218,720.9386957501728
219,720.9578923805065
220,720.975482448599
221,720.9915782708528
222,721.0062956271986
223,721.0197502537709
224,721.0320553339191
225,721.0433199477511
226,721.0536485726242
227,721.0631417403916
228,721.0718978533946
229,721.0800160431082
230,721.0875998462855
231,721.0947613294427
232,721.1016251515634
233,721.1083320278008
234,721.115041160505
235,721.1219313243089
236,721.1292003414515
237,721.1370626871192
238,721.1457449889889
239,721.1554792893098
240,721.166494167256
241,721.1790041467747
242,721.1931981142395
243,721.2092276043725
244,721.2271957471311
245,721.2471475083225
246,721.269061767935
247,721.2928458123479
248,721.3183328397797
249,721.3452829383666
250,721.3733876778841
251,721.4022780822236
252,721.4315354757176
253,721.4607045891469
254,721.4893083191629
255,721.516863586882
256,721.5428978038831
257,721.5669654789926
258,721.5886644310837
259,721.6076509298143
260,721.623652972739
261,721.636480931093
262,721.646034976113
263,721.6523089596749
264,721.655390682379
265,721.6554586805373
266,721.6527757631105
267,721.6476795538005
268,721.6405703245248
269,721.6318964826957
270,721.6221381549265
271,721.611789351047
272,721.6013391986556
273,721.5912527572856
274,721.5819520153252
275,721.5737978433813
276,721.5670738288512
277,721.5619729491351
278,721.55858794548
279,721.5569060752613
280,721.5568086652113
281,721.5580755662224
282,721.5603942558694
283,721.5633730264515
284,721.5665575112693
285,721.5694497341719
286,721.571528846453
287,721.5722727176728
288,721.5711796102935
289,721.5677892904539
290,721.5617030278203
291,721.552601930741
292,721.5402629564406
293,721.5245718248786
294,721.5055320272425
295,721.4832691816194
296,721.4580301837412
297,721.4301769564844
298,721.4001750456308
299,721.3685776949387
300,721.3360062803999
301,721.303128122797
302,721.2706327725278
303,721.239207860204
304,721.2095155183781
305,721.1821702352636
306,721.1577188500607
307,721.1366232946954
308,721.1192466599476
309,721.1058431493346
310,721.0965523571937
311,721.0913980604231
312,721.0902914806359
313,721.093038843542
314,721.09935296669
315,721.1088684253019
316,721.1211595639627
317,721.1357603497949
318,721.1521849180798
319,721.169947666985
320,721.188581862658
321,721.2076558628771
322,721.2267862256258
323,721.2456471530417
324,721.2639759794116
325,721.2815747321073
326,721.2983080644095
327,721.3140979915554
328,721.3289159023522
329,721.3427723732061
330,721.3557054164285
331,721.3677679189459
332,721.3790151410999
333,721.3894932265379
334,721.3992296682176
335,721.4082265034475
336,721.4164566526896
337,721.4238633670093
338,721.4303623591268
339,721.4358459618658
340,721.4401885925821
341,721.4432528706697
342,721.444895905583
343,721.4449754764304
344,721.4433559564302
345,721.4399138634826
346,721.4345429164144
347,721.4271585064745
348,721.4177015388533
349,721.4061416372043
350,721.3924797396031
351,721.37675014004
352,721.3590220341415
353,721.3394006143036
354,721.3180277203859
355,721.295081978647
356,721.2707782950783
357,721.2453665831805
358,721.219129711136
359,721.1923807708788
360,721.1654598225485
361,721.1387302328142
362,721.1125746208843
363,721.0873902948465
364,721.0635839725685
365,721.0415655709188
366,721.0217408855699
367,721.0045030438348
368,720.9902227117682
369,720.9792371903926
370,720.9718387250202
371,720.9682625470529
372,720.9686753433136
373,720.9731649505281
374,720.9817320324775
375,720.9942843032896
376,721.0106335900113
377,721.0304957968183
378,721.0534937293213
379,721.0791627684393
380,721.1069594626352
381,721.13627310544
382,721.1664402052202
383,721.1967614694315
384,721.2265206244863
385,721.255004178068
386,721.2815211506389
387,721.305421845999
388,721.3261148752607
389,721.3430818932288
390,721.3558898143715
391,721.3642005429496
392,721.3677783976179
393,721.366495448773
394,721.3603349552428
395,721.3493929772652
396,721.3338780623831
397,721.3141087507518
398,721.2905086604538
399,721.2635991149672
400,721.2339895257135
401,721.2023658680628
402,721.1694775521001
403,721.1361228962577
404,721.103133351211
405,721.0713565805833
406,721.04163846233
407,721.0148040798678
408,720.99163789041
409,720.9728634816461
410,720.9591235712596
411,720.9509610696654
412,720.9488020648463
413,720.9529415190444
414,720.9635323561065
415,720.9805784962801
416,721.0039322268368
417,721.0332960726074
418,721.0682291076838
419,721.1081574567603
420,721.1523885411401
421,721.2001284304135
422,721.250501514618
423,721.3025716357612
424,721.3553638144177
425,721.4078858155181
426,721.4591490380913
427,721.5081885043589
428,721.5540819281342
429,721.5959678847112
430,721.6330630057358
431,721.6646779619467
432,721.6902318595735
433,721.7092646219625
434,721.7214469655954
435,721.7265876623509
436,721.7246378472711
437,721.7156921641249
438,721.6999865691408
439,721.6778926822728
440,721.6499087189428
441,721.6166472516371
442,721.5788202808235
443,721.5372222427848
444,721.4927115899012
445,721.4461914720426
446,721.3985899137938
447,721.3508398243964
448,721.3038592414933
449,721.2585323198547
450,721.2156916092069
451,721.1761021153955
452,721.140447602676
453,721.1093195715454
454,721.0832092021061
455,721.062502241124
456,721.0474765049618
457,721.03830158634
458,721.0350405048875
459,721.0376532400114
460,721.0460021370228
461,721.0598590494534
462,721.0789138922061
463,721.1027841702202
464,721.1310250386823
465,721.163139474818
466,721.1985881782571
467,721.236798926205
468,721.2771753145203
469,721.3191050496627
470,721.3619681315604
471,721.4051453256045
472,721.4480272337809
473,721.4900240606295
474,721.5305759111487
475,721.5691632428209
476,721.6053169552573
477,721.6386275336197
478,721.6687526783675
479,721.695422971079
480,721.718445310258
481,721.7377040302982
482,721.7531597426251
483,721.7648459929886
484,721.7728638054925
485,721.7773741201005
486,721.7785881405481
487,721.7767557957458
488,721.7721528324352
489,721.7650673184662
490,721.7557864115073
491,721.7445841742859
492,721.7317111115506
493,721.717386004104
494,721.701790463465
495,721.6850663884717
496,721.6673162372318
497,721.648605850402
498,721.6289695197382
499,721.6084170216551
500,721.5869423242648
501,721.5645335718017
502,721.5411837717209
503,721.5169014387459
504,721.4917204034375
505,721.4657081509583
506,721.438972356482
507,721.4116655351869
508,721.383987785708
509,721.3561875143051
510,721.3285599360365
511,721.3014431845639
512,721.2752120381255
513,721.2502695062448
514,721.2270367278104
515,721.2059417523885
516,721.1874077869949
517,721.1718413782214
518,721.1596207759487
519,721.1510844440692
520,721.1465194541133
521,721.146149441366
522,721.1501219793737
523,721.1584955992835
524,721.1712271268213
525,721.1881603809722
526,721.2090174600567
527,721.2333938071872
528,721.2607580524286
529,721.2904573427531
530,721.321728520359
531,721.3537151004198
532,721.3854895668736
533,721.4160801066138
534,721.4445005768118
535,721.4697822723642
536,721.4910059638693
537,721.5073327338758
538,721.5180323288819
539,721.522508005841
540,721.5203171157556
541,721.5111868681861
542,721.4950248158875
543,721.4719236244267
544,721.4421597805162
545,721.4061861656893
546,721.3646188486484
547,721.3182188640351
548,721.2678700007581
549,721.2145536900201
550,721.1593220205843
551,721.1032698011477
552,721.0475064930938
553,720.993128751035
554,720.9411942152631
555,720.8926971096482
556,720.8485461275452
557,720.8095450322966
558,720.7763763549137
559,720.7495885515118
560,720.7295869744088
561,720.7166289514315
562,720.7108231046601
563,720.7121328112202
564,720.7203835241663
565,720.7352735852272
566,720.7563881130229
567,720.7832154602247
568,720.815165610233
569,720.8515898049549
570,720.8918007001968
571,720.9350923957732
572,720.9807597243471
573,721.0281161886581
574,721.076509934376
575,721.1253371648726
576,721.1740524643241
577,721.2221756196741
578,721.2692947540908
579,721.3150659082186
580,721.3592095566094
581,721.4015048090615
582,721.4417821456374
583,721.4799154652184
584,721.5158140369758
585,721.5494147115361
586,721.5806745608546
587,721.6095640375679
588,721.6360607970399
589,721.660144470076
590,721.6817928203202
591,721.7009797592623
592,721.7176755465083
593,721.7318491911254
594,721.7434727282612
595,721.752526835159
596,721.7590072211846
597,721.762931309234
598,721.7643448491541
599,721.7633282412107
600,721.7600024496786
601,721.7545343537954
602,721.7471411791137
603,721.7380934034309
604,721.7277154379143
605,721.7163835230051
606,721.704520538549
607,721.6925876517024
608,721.681072882649
609,721.6704768305013
610,721.6612960160794
611,721.6540045485458
612,721.6490350583242
613,721.6467599721682
614,721.6474741878646
615,721.651380113437
616,721.6585759511672
617,721.6690479526402
618,721.6826670356132
619,721.6991896981921
620,721.7182627741074
621,721.7394313942399
622,721.7621495965752
623,721.7857932558957
624,721.8096751931623
625,721.8330623621313
626,721.8551949336478
627,721.8753069800437
628,721.8926483138032
629,721.9065068427823
630,721.9162306267524
631,721.9212487613174
632,721.9210902998876
633,721.9154005668934
634,721.9039543299632
635,721.8866653911062
636,721.8635922749149
637,721.8349398258367
638,721.8010566363649
639,721.762428332678
640,721.7196668953657
641,721.6734963881439
642,721.624735645883
643,721.57427856835
644,721.5230726510757
645,721.4720962919969
646,721.4223353200733
647,721.3747591724122
648,721.3302972032996
649,721.2898156792407
650,721.2540960491896
651,721.2238150828096
652,721.1995274547077
653,721.1816513061315
654,721.1704572172143
655,721.166060880271
656,721.1684196385821
657,721.1773330157915
658,721.1924473841025
659,721.2132648750975
660,721.2391564307053
661,721.2693785752509
662,721.3030932040894
663,721.3393895441263
664,721.3773074698514
665,721.415861467705
666,721.4540645890987
667,721.4909516623916
668,721.5256009481349
669,721.5571534669508
670,721.5848294365626
671,721.6079415323313
672,721.6259049444204
673,721.6382444101936
674,721.644598539239
675,721.6447218284324
676,721.6384848056002
677,721.6258727209292
678,721.6069830952814
679,721.5820222734721
680,721.5513009857684
681,721.5152288138362
682,721.4743073876622
683,721.429122121937
684,721.3803323378481
685,721.328659679071
686,721.274874782337
687,721.2197821913797
688,721.1642035170905
689,721.1089588840504
690,721.0548468487412
691,721.0026232865515
692,720.9529801404873
693,720.9065252175535
694,720.863764286422
695,720.8250865779637
696,720.7907544905033
697,720.760897955505
698,720.7355136250245
699,720.7144688196895
700,720.6975099727706
701,720.6842751001191
702,720.674309661495
703,720.6670850995569
704,720.6620193311581
705,720.6584984576928
706,720.6558989209169
707,720.6536092868901
708,720.6510508330355
709,720.6476961516715
710,720.6430850789981
711,720.6368374217006
712,720.6286621489614
713,720.618362900998
714,720.6058398440246
715,720.5910880838097
716,720.5741929830349
717,720.5553227736234
718,720.5347188644818
719,720.512684276132
720,720.489570665849
721,720.4657643960444
722,720.4416720534646
723,720.4177057875062
724,720.3942688350774
725,720.3717416500199
726,720.350469128536
727,720.3307494563654
728,720.3128250651965
729,720.2968760958105
730,720.2830166460931
731,720.2712939080158
732,720.2616900383365
733,720.2541263194975
734,720.2484689829769
735,720.2445360535439
736,720.242104653963
737,720.2409182954692
738,720.2406938018083
739,720.2411277309336
740,720.2419023811095
741,720.2426915505707
742,720.2431661655004
743,720.2429998305446
744,720.2418743640529
745,720.2394854222439
746,720.2355483361749
747,720.2298042678876
748,720.2220267374358
749,720.2120284505528
750,720.1996681347065
751,720.1848568061504
752,720.1675626657752
753,720.1478137969433
754,720.1256980681221
755,720.1013600583784
756,720.0749952992209
757,720.0468425542166
758,720.0171751533643
759,719.986292488371
760,719.9545126215622
761,719.9221666013611
762,719.8895946222442
763,719.8571437742265
764,719.8251669331751
765,719.7940223600596
766,719.764073656364
767,719.7356897096427
768,719.7092441876034
769,719.6851141642956
770,719.6636776562525
771,719.6453101051932
772,719.6303800140554
773,719.619243949421
774,719.6122410095145
775,719.6096867419177
776,719.6118664611884
777,719.6190279502845
778,719.6313735909462
779,719.6490520698446
780,719.6721499908679
781,719.7006839721613
782,719.7345939994506
783,719.7737387953705
784,719.8178937195892
785,719.8667513687335
786,719.9199247530879
787,719.9769527617341
788,720.0373076060251
789,720.1004040128904
790,720.1656100189167
791,720.2322592181532
792,720.2996642606861
793,720.3671313347788
794,720.4339753105035
795,720.4995351727943
796,720.5631893272578
797,720.6243703418745
798,720.6825787096707
799,720.7373952643629
800,720.7884919219015
801,720.8356404563127
802,720.8787190621599
803,720.9177165032614
804,720.9527336968828
805,720.9839826423902
806,721.0117826561573
807,721.0365539048133
808,721.058808277671
809,721.0791377604039
810,721.0982006505926
811,721.1167061149235
812,721.135397657187
813,721.155036032006
814,721.1763820488201
815,721.2001796228022
816,721.2271393710198
817,721.2579230353504
818,721.2931290410909
819,721.3332795204949
820,721.3788090615583
821,721.4300552899713
822,721.487251272976
823,721.5505197384161
824,721.6198692000961
825,721.6951921705195
826,721.7762656420482
827,721.8627539218768
828,721.9542137856507
829,722.0501018382332
830,722.1497839285056
831,722.2525464003688
832,722.3576088638139
833,722.4641380948182
834,722.571262667893
835,722.6780879730524
836,722.7837113211687
837,722.8872368755946
838,722.9877901766457
839,723.0845320656055
840,723.1766718635666
841,723.2634797007769
842,723.3442979004585
843,723.418551275103
844,723.4857560994286
845,723.5455274368485
846,723.5975844959851
847,723.6417538262432
848,723.6779703795271
849,723.7062766643829
850,723.726820340206
851,723.7398506357698
852,723.7457139030421
853,723.744848406143
854,723.7377781361777
855,723.7251051463421
856,723.7074997497746
857,723.6856880123936
858,723.6604363118689
859,723.6325332167045
860,723.6027694004052
861,723.5719166230399
862,723.540706965836
863,723.5098135138257
864,723.479833532445
865,723.4512748760858
866,723.4245459956287
867,723.3999496272347
868,723.3776801327919
869,723.3578244880202
870,723.3403669447291
871,723.3251972906602
872,723.3121223690656
873,723.3008802172953
874,723.2911559735807
875,723.2825986105087
876,723.2748375222227
877,723.2674979840727
878,723.2602145655269
879,723.2526417816395
880,723.2444616108361
881,723.2353879034426
882,723.2251680733574
883,723.213582744268
884,723.2004441440045
885,723.1855939686608
886,723.1689012356122
887,723.1502604360389
888,723.1295901482472
889,723.1068321564178
890,723.0819510028565
891,723.0549338169845
892,723.0257902650433
893,722.9945525340485
894,722.9612753105223
895,722.9260356705897
896,722.8889326912058
897,722.850086519552
898,722.809636670421
899,722.7677394445072
900,722.7245645119184
901,722.680290843201
902,722.635102283229
903,722.5891831488041
904,722.5427142760761
905,722.4958699423563
906,722.4488160737919
907,722.4017101370488
908,722.3547029986981
909,722.3079427306776
910,722.2615799336062
911,722.2157738037558
912,722.170697941995
913,722.1265448135745
914,722.0835278905051
915,722.0418808622472
916,722.0018537545575
917,721.9637061695183
