frame_number,force
0,721.7020285075645
1,721.7100898850736
2,721.7183298770225
3,721.7267254441446
4,721.7352529400326
5,721.7438882913707
6,721.7526072037839
7,721.7613853915623
8,721.7701988273209
9,721.7790240063845
10,721.7878382201025
11,721.7966198319207
12,721.8053485499127
13,721.8140056899962
14,721.8225744249644
15,721.8310400147824
16,721.839390012932
17,721.8476144427202
18,721.8557059375113
19,721.8636598400544
20,721.8714742578273
21,721.8791500727751
22,721.8866909047078
23,721.8941030283003
24,721.9013952446288
25,721.9085787095132
26,721.9156667222717
27,721.9226744797619
28,721.9296188018831
29,721.9365178360531
30,721.9433907490974
31,721.9502574148103
32,721.9571381037596
33,721.9640531790159
34,721.9710227983622
35,721.9780666211547
36,721.9852035168761
37,721.9924512725921
38,721.9998262976741
39,722.0073433257971
40,722.0150151157465
41,722.0228521536166
42,722.0308623596195
43,722.0390508032762
44,722.047419431465
45,722.0559668147007
46,722.0646879181526
47,722.0735739053084
48,722.0826119835106
49,722.0917853009598
50,722.1010729033793
51,722.1104497555574
52,722.1198868296294
53,722.1293512590032
54,722.1388065541295
55,722.1482128736873
56,722.1575273427646
57,722.1667044090515
58,722.1756962290452
59,722.1844530780737
60,722.1929237796661
61,722.2010561509378
62,722.2087974612326
63,722.2160949015409
64,722.2228960621392
65,722.2291494152873
66,722.2348047988086
67,722.239813895412
68,722.2441307020465
69,722.247711983316
70,722.2505177026437
71,722.2525114243485
72,722.2536606797885
73,722.2539372918735
74,722.2533176540129
75,722.2517829607336
76,722.2493193875528
77,722.2459182183518
78,722.2415759203479
79,722.236294169051
80,722.2300798269306
81,722.2229448794777
82,722.2149063315934
83,722.2059860664249
84,722.1962106679633
85,722.1856112078161
86,722.1742229957812
87,722.1620852936849
88,722.149240992645
89,722.135736255032
90,722.1216201231882
91,722.1069440971906
92,722.09176168412
93,722.0761279219854
94,722.0600988828032
95,722.0437311609268
96,722.0270813540008
97,722.0102055445664
98,721.9931587903603
99,721.9759946308048
100,721.9587646161601
101,721.9415178645551
102,721.9243006509529
103,721.9071560314247
104,721.890123506047
105,721.8732387239337
106,721.8565332335982
107,721.8400342806777
108,721.8237646537049
109,721.8077425777743
110,721.791981655574
111,721.7764908548697
112,721.7612745411471
113,721.7463325539453
114,721.7316603256178
115,721.7172490417352
116,721.7030858427199
117,721.6891540660322
118,721.6754335270864
119,721.6619008354241
120,721.6485297410934
121,721.6352915050642
122,721.6221552867394
123,721.6090885408879
124,721.5960574156666
125,721.5830271433227
126,721.5699624161559
127,721.5568277424015
128,721.5435877794393
129,721.5302076443576
130,721.5166532036101
131,721.5028913439241
132,721.4888902262028
133,721.4746195236238
134,721.460050644678
135,721.4451569412953
136,721.429913901371
137,721.4142993239972
138,721.3982934747772
139,721.3818792183233
140,721.3650421259642
141,721.34777055873
142,721.3300557279713
143,721.3118917375801
144,721.293275612286
145,721.2742073160733
146,721.2546897636311
147,721.2347288260779
148,721.2143333303414
149,721.1935150501635
150,721.1722886863323
151,721.150671834472
152,721.128684940071
153,721.1063512418841
154,721.0836967061294
155,721.0607499548588
156,721.0375421921559
157,721.014107131207
158,720.9904809238453
159,720.9667020921972
160,720.9428114600852
161,720.9188520805978
162,720.894869156027
163,720.870909946774
164,720.8470236662945
165,720.8232613595104
166,720.7996757623926
167,720.7763211407305
168,720.7532531066529
169,720.730528412382
170,720.7082047218287
171,720.6863403616375
172,720.6649940539879
173,720.6442246339745
174,720.624090754906
175,720.6046505851422
176,720.5859614995761
177,720.5680797675611
178,720.5510602378631
179,720.534956021155
180,720.5198181719261
181,720.5056953735995
182,720.4926336319315
183,720.480675981757
184,720.469862210825
185,720.4602286022512
186,720.4518076949507
187,720.4446280605628
188,720.4387140961958
189,720.4340858339136
190,720.4307587692057
191,720.4287437114979
192,720.4280466603087
193,720.4286687110933
194,720.4306059952492
195,720.4338496592262
196,720.4383858879892
197,720.4441959779195
198,720.4512564635403
199,720.4595393010709
200,720.4690121094579
201,720.4796384661125
202,720.4913782508545
203,720.5041880285711
204,720.5180214593653
205,720.5328297243384
206,720.5485619554851
207,720.5651656595403
208,720.5825871278306
209,720.6007718265431
210,720.6196647634708
211,720.6392108279639
212,720.6593551012048
213,720.6800431348986
214,720.701221198015
215,720.7228364925977
216,720.7448373403664
217,720.767173342013
218,720.7897955111215
219,720.8126563847537
220,720.8357101128165
221,720.8589125279551
222,720.8822211968156
223,720.9055954525742
224,720.9289964085102
225,720.952386953374
226,720.9757317304972
227,720.9989971029746
228,721.0221511068046
229,721.0451633933058
230,721.0680051615932
231,721.0906490810875
232,721.1130692032058
233,721.1352408612879
234,721.1571405585584
235,721.1787458447465
236,721.2000351822886
237,721.2209878029962
238,721.2415835561288
239,721.2618027493744
240,721.2816259856006
241,721.3010340002428
242,721.3200075059624
243,721.3385270518518
244,721.3565729037288
245,721.3741249506837
246,721.3911626421285
247,721.407664959492
248,721.4236104265391
249,721.4389771610344
250,721.4537429680213
251,721.4678854721873
252,721.4813822846758
253,721.494211198753
254,721.5063504085884
255,721.5177787455953
256,721.5284759270725
257,721.5384228119736
258,721.547601658126
259,721.5559963742547
260,721.5635927594357
261,721.5703787228282
262,721.5763444778497
263,721.5814827068411
264,721.5857886941677
265,721.5892604271922
266,721.5918986654038
267,721.5937069783184
268,721.5946917531484
269,721.5948621739153
270,721.5942301743694
271,721.592810367491
272,721.5906199545082
273,721.5876786165826
274,721.5840083930217
275,721.5796335510734
276,721.574580453406
277,721.5688774296103
278,721.5625546574149
279,721.5556440580598
280,721.5481792085362
281,721.5401952712283
282,721.5317289390939
283,721.5228183924585
284,721.5135032622763
285,721.5038245943052
286,721.4938248085758
287,721.4835476486586
288,721.4730381157913
289,721.462342383921
290,721.4515076925845
291,721.4405822147287
292,721.429614896099
293,721.4186552623355
294,721.4077531899372
295,721.3969586379434
296,721.3863213387705
297,721.3758904492979
298,721.3657141665235
299,721.3558393149183
300,721.3463109144449
301,721.3371717392753
302,721.3284618778288
303,721.3202183047766
304,721.3124744750404
305,721.3052599487495
306,721.298600054961
307,721.2925156010357
308,721.2870226341302
309,721.2821322608539
310,721.2778505299414
311,721.2741783807353
312,721.2711116582955
313,721.2686411946289
314,721.2667529544483
315,721.2654282421867
316,721.2646439646448
317,721.264372941381
318,721.2645842535583
319,721.2652436216146
320,721.2663138024595
321,721.2677549975746
322,721.2695252641712
323,721.2715809225641
324,721.2738769544546
325,721.2763673888244
326,721.2790056738481
327,721.2817450340572
328,721.2845388122348
329,721.2873407959006
330,721.2901055289962
331,721.292788610301
332,721.2953469809796
333,721.2977392043499
334,721.2999257410855
335,721.3018692220951
336,721.3035347191193
337,721.304890010289
338,721.3059058355147
339,721.3065561352887
340,721.3068182663256
341,721.3066731882337
342,721.3061056168639
343,721.3051041416861
344,721.3036613057654
345,721.3017736474443
346,721.2994417031748
347,721.2966699714982
348,721.2934668388248
349,721.289844468271
350,721.2858186533882
351,721.2814086391161
352,721.2766369126381
353,721.2715289670147
354,721.2661130404722
355,721.260419833971
356,721.254482209432
357,721.2483348712631
358,721.2420140346621
359,721.2355570850499
360,721.2290022333679
361,721.2223881717313
362,721.2157537331659
363,721.2091375581606
364,721.2025777700143
365,721.1961116606753
366,721.1897753887692
367,721.1836036916108
368,721.1776296133144
369,721.1718842517646
370,721.1663965280584
371,721.1611929829025
372,721.1562976051649
373,721.1517316979849
374,721.1475137870974
375,721.1436595742365
376,721.1401819361968
377,721.1370909681358
378,721.1343940685878
379,721.1320960634976
380,721.1301993667977
381,721.1287041747752
382,721.1276086901969
383,721.1269093701156
384,721.1266011891976
385,721.1266779089867
386,721.1271323430817
387,721.1279566086655
388,721.1291423560494
389,721.1306809698619
390,721.1325637379703
391,721.1347819864654
392,721.1373271805107
393,721.140190991638
394,721.1433653324174
395,721.1468423592568
396,721.1506144434449
397,721.1546741101009
398,721.1590139453292
399,721.1636264737314
400,721.1685040105763
401,721.173638494162
402,721.1790213039826
403,721.1846430699279
404,721.1904934774993
405,721.1965610738159
406,721.2028330788738
407,721.2092952064344
408,721.2159314994911
409,721.2227241864642
410,721.2296535655021
411,721.2366979249048
412,721.243833507386
413,721.2510345247997
414,721.2582732285424
415,721.265520039305
416,721.2727437379865
417,721.2799117173294
418,721.2869902916044
419,721.2939450596671
420,721.3007413147394
421,721.3073444923547
422,721.3137206463717
423,721.3198369419991
424,721.3256621543769
425,721.3311671617328
426,721.3363254235901
427,721.3411134364244
428,721.3455111606157
429,721.3495024130209
430,721.3530752191331
431,721.3562221181327
432,721.3589404137276
433,721.3612323639311
434,721.3631053038793
435,721.3645716971115
436,721.3656491120171
437,721.3663601212417
438,721.3667321229274
439,721.3667970840283
440,721.366591207802
441,721.3661545299054
442,721.3655304499051
443,721.3647652067798
444,721.3639073077575
445,721.363006919731
446,721.3621152321296
447,721.3612838001591
448,721.3605638780838
449,721.3600057531696
450,721.3596580912213
451,721.3595673042867
452,721.3597769507167
453,721.3603271773569
454,721.3612542123213
455,721.3625899142393
456,721.3643613812623
457,721.3665906219251
458,721.3692942902827
459,721.37248348834
460,721.3761636383477
461,721.3803344258613
462,721.3849898123534
463,721.3901181145975
464,721.3957021471538
465,721.4017194236521
466,721.4081424120471
467,721.4149388390382
468,721.4220720395656
469,721.4295013482674
470,721.4371825304374
471,721.445068249967
472,721.453108570797
473,721.4612514866835
474,721.4694434721501
475,721.4776300459492
476,721.4857563374064
477,721.4937676456377
478,721.5016099818895
479,721.5092305862672
480,721.5165784116543
481,721.5236045691906
482,721.5302627309409
483,721.536509486222
484,721.5423046484003
485,721.547611509074
486,721.5523970371859
487,721.5566320224312
488,721.560291165025
489,721.5633531162276
490,721.5658004751072
491,721.5676197470684
492,721.5688012695033
493,721.5693391097474
494,721.5692309399892
495,721.5684778925918
496,721.5670843978922
497,721.5650580057265
498,721.5624091919767
499,721.5591511519093
500,721.5552995822472
501,721.550872453428
502,721.5458897724635
503,721.5403733357929
504,721.5343464712819
505,721.5278337696212
506,721.5208608073885
507,721.5134538656728
508,721.5056396484605
509,721.4974450042054
510,721.4888966531865
511,721.4800209232384
512,721.4708434973111
513,721.4613891775621
514,721.4516816716572
515,721.4417434073314
516,721.4315953808333
517,721.4212570435926
518,721.4107462293767
519,721.4000791217247
520,721.3892702592875
521,721.3783325757007
522,721.3672774711749
523,721.3561149148652
524,721.3448535794787
525,721.3335010115029
526,721.3220638411183
527,721.310548035145
528,721.298959194631
529,721.2873028964037
530,721.2755850752682
531,721.2638124405928
532,721.2519929180154
533,721.2401361043374
534,721.2282537215997
535,721.2163600550269
536,721.2044723592123
537,721.1926112177435
538,721.1808008432863
539,721.1690693075354
540,721.157448692936
541,721.1459751602134
542,721.1346889272338
543,721.1236341557689
544,721.1128587442412
545,721.1024140272712
546,721.0923543866164
547,721.0827367817507
548,721.0736202108665
549,721.0650651142963
550,721.0571327325987
551,721.0498844314195
552,721.0433810050714
553,721.0376819705699
554,721.0328448634914
555,721.0289245465416
556,721.0259725412596
557,721.0240363927943
558,721.0231590771689
559,721.0233784599764
560,721.0247268149512
561,721.027230409931
562,721.0309091660088
563,721.0357763934567
564,721.0418386060256
565,721.0490954138717
566,721.0575394942394
567,721.0671566376158
568,721.0779258654421
569,721.0898196141544
570,721.1028039796047
571,721.1168390155436
572,721.1318790794376
573,721.1478732183324
574,721.1647655869295
575,721.182495889713
576,721.200999838985
577,721.2202096212044
578,721.2400543652902
579,721.2604606085862
580,721.2813527584722
581,721.3026535493781
582,721.3242844956909
583,721.3461663407143
584,721.3682195007517
585,721.3903645020607
586,721.4125224074548
587,721.4346152291344
588,721.456566325051
589,721.4783007774827
590,721.499745753898
591,721.5208308508918
592,721.5414884214437
593,721.5616538841068
594,721.5812660108933
595,721.6002671896576
596,721.6186036570236
597,721.6362256988833
598,721.6530878167349
599,721.6691488594308
600,721.6843721209474
601,721.6987254048825
602,721.7121810552915
603,721.7247159520329
604,721.73631146835
605,721.746953389493
606,721.7566317930205
607,721.7653408929635
608,721.7730788510648
609,721.779847559323
610,721.7856523993858
611,721.7905019858398
612,721.7944079018002
613,721.7973844358332
614,721.7994483288079
615,721.8006185383168
616,721.8009160273742
617,721.8003635826875
618,721.7989856651689
619,721.7968082919178
620,721.7938589459173
621,721.7901665081598
622,721.7857612071539
623,721.7806745820632
624,721.7749394568174
625,721.7685899226636
626,721.7616613260511
627,721.7541902579633
628,721.7462145399024
629,721.7377732006013
630,721.728906436573
631,721.719655549519
632,721.7100628545467
633,721.7001715545289
634,721.6900255771702
635,721.6796693724665
636,721.669147669564
637,721.6585051934544
638,721.6477863432119
639,721.6370348346978
640,721.6262933121476
641,721.6156029348123
642,721.6050029463986
643,721.5945302360053
644,721.5842188993761
645,721.5740998088075
646,721.564200199474
647,721.5545432797419
648,721.5451478732767
649,721.5360281009669
650,721.5271931105659
651,721.5186468615332
652,721.5103879719156
653,721.502409633189
654,721.4946995976302
655,721.4872402411041
656,721.4800087025236
657,721.472977100177
658,721.466112824471
659,721.4593789055368
660,721.4527344519828
661,721.446135154214
662,721.439533843133
663,721.432881093484
664,721.426125860758
665,721.4192161408765
666,721.4120996418482
667,721.4047244558902
668,721.397039719807
669,721.3889962517089
670,721.3805471536556
671,721.371648371892
672,721.362259208408
673,721.3523427793529
674,721.3418664172781
675,721.3308020153095
676,721.3191263122816
677,721.3068211184491
678,721.2938734814029
679,721.2802757915169
680,721.2660258260695
681,721.2511267312614
682,721.2355869416632
683,721.2194200372533
684,721.2026445391732
685,721.1852836464127
686,721.1673649165754
687,721.1489198945962
688,721.129983693819
689,721.110594534454
690,721.0907932456848
691,721.0706227399712
692,721.0501274708494
693,721.0293528875039
694,721.0083448997545
695,720.987149365913
696,720.965811613711
697,720.9443760018643
698,720.9228855275023
699,720.901381482795
700,720.8799031623031
701,720.858487620743
702,720.8371694792874
703,720.8159807775203
704,720.7949508676392
705,720.7741063470045
706,720.7534710244624
707,720.7330659151972
708,720.7129092584856
709,720.6930165526921
710,720.6734006022398
711,720.6540715721864
712,720.635037047196
713,720.6163020928104
714,720.5978693180459
715,720.5797389395194
716,720.561908848182
717,720.5443746800469
718,720.5271298923723
719,720.5101658469958
720,720.4934719027553
721,720.4770355188792
722,720.4608423709465
723,720.444876480749
724,720.4291203613736
725,720.4135551791302
726,720.3981609343999
727,720.3829166636394
728,720.3678006644319
729,720.3527907447669
730,720.3378644968102
731,720.3229995941247
732,720.308174109423
733,720.2933668478529
734,720.2785576894438
735,720.2637279341236
736,720.2488606431484
737,720.2339409712687
738,720.2189564847102
739,720.2038974614578
740,720.1887571718185
741,720.1735321378113
742,720.1582223696262
743,720.1428315770772
744,720.1273673541712
745,720.1118413353615
746,720.0962693224124
747,720.080671380926
748,720.0650719055097
749,720.0494996520547
750,720.033987734455
751,720.0185735815464
752,720.0032988489291
753,719.9882092805694
754,719.9733545170436
755,719.9587878504956
756,719.9445659299904
757,719.930748424227
758,719.9173976509417
759,719.9045781832932
760,719.8923564428097
761,719.880800286345
762,719.8699785916784
763,719.8599608439503
764,719.8508167239736
765,719.8426156996791
766,719.8354266225324
767,719.8293173306643
768,719.8243542598786
769,719.8206020637546
770,719.8181232451805
771,719.816977803171
772,719.8172228996707
773,719.8189125507507
774,719.8220973454515
775,719.8268241943204
776,719.8331361089929
777,719.8410720138983
778,719.8506665910538
779,719.8619501590543
780,719.8749485880476
781,719.8896832536034
782,719.9061710331349
783,719.9244243479201
784,719.9444512516169
785,719.9662555633706
786,719.989837041213
787,720.0151915899706
788,720.0423114974369
789,720.0711856928666
790,720.101800022215
791,720.1341375344624
792,720.168178772979
793,720.2039020655282
794,720.2412838062986
795,720.2802987232623
796,720.3209201241879
797,720.3631201149099
798,720.4068697840845
799,720.4521393495246
800,720.4988982620877
801,720.5471152639799
802,720.596758399323
803,720.6477949758593
804,720.7001914777253
805,720.7539134303457
806,720.8089252195549
807,720.8651898679308
808,720.9226687722801
809,720.9813214076024
810,721.0411050045682
811,721.1019742090394
812,721.1638807329707
813,721.226773006036
814,721.2905958368628
815,721.3552900921952
816,721.4207924018431
817,721.4870348969831
818,721.553944989274
819,721.6214451979993
820,721.6894530315019
821,721.7578809275772
822,721.8266362560403
823,721.8956213859913
824,721.9647338201876
825,722.0338663987226
826,722.1029075733604
827,722.1717417523747
828,722.240249714065
829,722.3083090857677
830,722.3757948840828
831,722.4425801108321
832,722.5085363978894
833,722.5735346928728
834,722.6374459770902
835,722.700142006983
836,722.7614960702819
837,722.8213837480473
838,722.8796836737945
839,722.9362782811135
840,722.9910545315832
841,723.0439046152097
842,723.0947266159424
843,723.1434251348862
844,723.1899118636554
845,723.2341061002727
846,723.2759352006411
847,723.3153349601902
848,723.3522499225044
849,723.3866336138624
850,723.4184487042328
851,723.4476670963325
852,723.4742699446734
853,723.4982476059032
854,723.519599520428
855,723.5383340240451
856,723.5544680879664
857,723.5680269868345
858,723.5790438971635
859,723.5875594323508
860,723.5936211238994
861,723.5972828609213
862,723.5986043012274
863,723.5976502674965
864,723.5944901410285
865,723.5891972634623
866,723.5818483541966
867,723.5725229491196
868,723.5613028652213
869,723.5482716954903
870,723.5335143383173
871,723.5171165645032
872,723.4991646227564
873,723.4797448820534
874,723.4589435073389
875,723.436846163957
876,723.413537745524
877,723.3891021194515
878,723.3636218843288
879,723.3371781343619
880,723.3098502280263
881,723.2817155604542
882,723.2528493412939
883,723.223324381446
884,723.1932108927357
885,723.1625763039766
886,723.1314850954501
887,723.0999986523873
888,723.0681751370565
889,723.0360693783238
890,723.0037327768622
891,722.9712132237387
892,722.9385550302629
893,722.9057988676245
894,722.872981715356
895,722.8401368175681
896,722.8072936454062
897,722.7744778639018
898,722.7417113018369
899,722.7090119242766
900,722.6763938086527
901,722.6438671263927
902,722.6114381330223
903,722.5791091703892
904,722.5468786850787
905,722.5147412671722
906,722.482687713471
907,722.4507051192388
908,722.4187770017357
909,722.3868834567124
910,722.3550013462102
911,722.3231045135556
912,722.2911640197466
913,722.2591483946272
914,722.2270238968367
915,722.1947547786338
916,722.1623035544504
917,722.1296312742106
