acceleration,velocity,displacement
0.003983225595210835,0.0,0.0
0.004120467738926656,2.0259233335343725e-06,5.064808333835931e-10
0.004261217345441516,4.121344604626415e-06,2.04329781792379e-09
0.0044048551596673965,6.287862730903643e-06,4.645599651806304e-09
0.004550735988900649,8.526760518045654e-06,8.349255464043628e-09
0.004698193743870936,1.083899295123855e-05,1.319069383136468e-08
0.004846547393489119,1.3225178235578563e-05,1.9206736628068958e-08
0.004995107789418014,1.5685592031305348e-05,2.6434429194789935e-08
0.005143185242671043,1.8220165289327613e-05,3.491086852494818e-08
0.0052900976910825745,2.0828486022766017e-05,4.4673031352971585e-08
0.00543517927621524,2.350980526459047e-05,5.575760417481071e-08
0.005577789134719153,2.626304736732407e-05,6.820081733278935e-08
0.005717320203776439,2.9086824701947967e-05,8.203828535010736e-08
0.005853207856739839,3.197945671707703e-05,9.73048557048636e-08
0.005984938213877078,3.493899323473126e-05,1.1403446819281567e-07
0.006112055982484233,3.796324178382159e-05,1.3226002694745387e-07
0.006234171656477159,4.104979869356194e-05,1.5201328706679975e-07
0.006350967874664585,4.4196083576347376e-05,1.7332475763427708e-07
0.006462204736549393,4.739937672915087e-05,1.9622362271065165e-07
0.0065677239132929085,5.065685889161145e-05,2.2073768161584222e-07
0.0066674514480130065,5.396565273193793e-05,2.4689330952172957e-07
0.006761399186687867,5.7322865390613144e-05,2.747154390523673e-07
0.006849664808520309,6.072563138941519e-05,3.042275632473744e-07
0.0069324304453274406,6.417115520287713e-05,3.354517598954475e-07
0.007009959910957574,6.765675279194838e-05,3.6840873689415384e-07
0.007082594604429802,7.117989142079523e-05,4.031178979473397e-07
0.00715074819384053,7.473822712036282e-05,4.3959742758262926e-07
0.007214900228550032,7.832963922596045e-05,4.778643941692101e-07
0.0072755888695510045,8.195226150048571e-05,5.179348693508217e-07
0.007333402971299318,8.56045094606983e-05,5.598240620911177e-07
0.007388973778009985,8.928510364802562e-05,6.035464653682987e-07
0.007442966490483025,9.299308871514887e-05,6.491160134590923e-07
0.007496071901927391,9.672784831325147e-05,6.965462477161924e-07
0.007548998203728399,0.00010048911583966542,7.458504887544216e-07
0.007602462956683098,0.00010427698112976829,7.970420129967801e-07
0.007657185143040249,0.00010809189315469913,8.501342315678969e-07
0.00771387717699707,0.00011193465873470847,9.051408695402489e-07
0.007773236757133227,0.00011580643721824105,9.620761435284863e-07
0.007835938483833115,0.00011970873102848263,1.0209549355901672e-06
0.007902625220566136,0.00012364337195458245,1.0817929613359334e-06
0.007973899230414307,0.00012761250306732755,1.144606930091411e-06
0.008050313155742953,0.00013161855616386687,1.2094146948992095e-06
0.008132360931810705,0.0001356642246857553,1.276235390111615e-06
0.008220468745555718,0.0001397524321050969,1.345089554309328e-06
0.008314986176405616,0.00014388629583558723,1.415999236294499e-06
0.008416177688221352,0.00014806908680174396,1.4889880819538319e-06
0.008524214682120985,0.00015230418489432955,1.5640813998778503e-06
0.008639168369264255,0.00015659503065717587,1.6413062037657267e-06
0.00876100376960818,0.000160945073691894,1.720691229852994e-06
0.008889575157831545,0.00016535771842375393,1.802266927881906e-06
0.009024623233250635,0.00016983626802152447,1.8860654244932256e-06
0.009165774193585585,0.00017438386737823352,1.9721204583431653e-06
0.009312540782566357,0.0001790034461222715,2.0604672867182917e-06
0.009464325284925289,0.00018369766263914443,2.1511425639086457e-06
0.009620424354349956,0.00018846885004896325,2.2441841920806726e-06
0.009780035474355905,0.00019331896500613972,2.3396311458444485e-06
0.009942264787712752,0.0001982495400716569,2.4375232721138977e-06
0.010106136013677594,0.0002032616402720045,2.537901067199813e-06
0.01027060020744183,0.00020835582432728435,2.640805433349635e-06
0.010434546178829352,0.00021353211092385214,2.7462774171624194e-06
0.010596811447140694,0.00021878995033034466,2.8543579324759686e-06
0.010756193648592942,0.00022412820160427806,2.965087470459624e-06
0.010911462333550495,0.00022954511559981393,3.0785057997606472e-06
0.01106137110101777,0.000235038323958456,3.194651659650215e-06
0.011204670016241773,0.00024060483423777088,3.3135624491992717e-06
0.01134011823717635,0.0002462410313011254,3.4352739155839956e-06
0.011466496741731102,0.00025194268504585225,3.55981984467074e-06
0.011582621015290517,0.00025770496448510765,3.6872317570534803e-06
0.011687353538188054,0.0002635224581234773,3.817538612705627e-06
0.011779615903418937,0.00026938920048387904,3.950766527357466e-06
0.011858400382209294,0.0002752987045552861,4.086938503617258e-06
0.011922780736113463,0.0002812439998348668,4.2260741797147955e-06
0.011971922072312326,0.00028721767553697324,4.368189598557756e-06
0.012005089575310574,0.00029321192844887896,4.513296999554219e-06
0.012021656005238315,0.00029921861484401616,4.661404635377443e-06
0.012021107889798238,0.0003052293058177753,4.81251661554289e-06
0.01200305034590008,0.0003112353453766999,4.966632778341509e-06
0.011967210486498797,0.0003172279105847996,5.123748592331884e-06
0.01191343942716385,0.00032319807306321527,5.283855088243888e-06
0.011841712980804308,0.0003291368611652073,5.446938821800994e-06
0.011752131170536192,0.0003350353222030424,5.612981867643056e-06
0.011644916686094735,0.00034088458416720014,5.7819618442356166e-06
0.01152041238069587,0.0003466759164338978,5.953851969385891e-06
0.011379077874605502,0.00035240078899772317,6.128621145743796e-06
0.011221485301388183,0.0003580509297917216,6.306234075441157e-06
0.011048314199314867,0.00036361837966689733,6.486651402805811e-06
0.010860345520904733,0.0003690955445969522,6.669829883871773e-06
0.010658454725074743,0.0003744752446584471,6.855722581185623e-06
0.010443603936941232,0.0003797507593239511,7.0442790821812225e-06
0.010216833195069679,0.00038491586860695383,7.2354457391639485e-06
0.009979250829761156,0.00038996488961316153,7.429165928718978e-06
0.009732023021526396,0.0003948927080759834,7.625380328141264e-06
0.009476362592631946,0.000399694804479523,7.82402720628014e-06
0.009213517106113381,0.00040436727440420936,8.025042726001074e-06
0.0089447563904046,0.0004089068427783389,8.22836125529671e-06
0.008671359660299666,0.00041331087179101493,8.433915683939049e-06
0.008394602446986204,0.0004175773623178364,8.641637742466262e-06
0.00811574357121125,0.00042170494882238575,8.851458320251318e-06
0.007836012394101243,0.00042569288781371385,9.063307779410342e-06
0.007556596561859709,0.00042954104005270407,9.277116261376946e-06
0.007278630426650817,0.0004332498467998317,9.49281398309008e-06
0.007003184284449173,0.0004368203004776067,9.710331519909439e-06
0.0067312545328265545,0.00044025391018192564,9.929600072574322e-06
0.006463754830016616,0.0004435526625226364,1.0150551715750462e-05
0.006201508336198227,0.0004467189783141901,1.0373119625959668e-05
0.005945241126420809,0.0004497556656798449,1.0597238286958177e-05
0.005695576855926793,0.0004526658701754318,1.0822843670921997e-05
0.005453032722092052,0.0004554530225699365,1.1049873394108339e-05
0.005218016724221065,0.0004581207849315148,1.1278266845983701e-05
0.00499082619717405,0.0004606729956618636,1.1507965291132046e-05
0.004771647584678731,0.00046311361410732675,1.1738911943574343e-05
0.004560557408540327,0.00046544666535563154,1.1971052013440082e-05
0.004357524379786234,0.0004676761858027132,1.2204332726229668e-05
0.004162412595311425,0.0004698061700464876,1.2438703315191968e-05
0.003974985773296161,0.00047184051963863947,1.267411498761325e-05
0.0037949124998700903,0.00047378299420693104,1.2910520866074642e-05
0.0036217724751790607,0.00047563716545069335,1.3147875905989047e-05
0.0034550637408395043,0.00047740637450469797,1.3386136790977895e-05
0.003294210835500185,0.0004790936931487829,1.3625261807891265e-05
0.0031385737725229106,0.00048070188930078865,1.3865210703503658e-05
0.0029874576835900576,0.0004822333971648169,1.410594452512006e-05
0.00284012293705074,0.00048369029231997714,1.4347425447491258e-05
0.0026957955163357202,0.0004850742719333238,1.4589616588554583e-05
0.0025536774214288743,0.00048638664016776494,1.4832481816579855e-05
0.0024129568362885306,0.0004876282987321943,1.5075985551304845e-05
0.002272817804368399,0.0004887997423923586,1.5320092561585982e-05
0.0021324491891844214,0.0004899010591407468,1.5564767761969257e-05
0.001991052768269739,0.0004909319346301104,1.580997601041197e-05
0.0018478504019364397,0.0004918916604226619,1.6055681909175164e-05
0.001702090307495977,0.00049277914560002,1.6301849610680835e-05
0.0015530525275499986,0.0004935929313087816,1.6548442629908036e-05
0.0014000536955696102,0.0004943312078645615,1.679542366470137e-05
0.0012424511883116728,0.0004949918340855318,1.7042754425188896e-05
0.0010796467365421787,0.0004955723585667453,1.7290395473351965e-05
0.0009110895498884917,0.000496070042638353,1.753830607365324e-05
0.0007362789912926549,0.0004964818847736482,1.778644405550624e-05
0.0005547668078742108,0.00049680464622344,1.803476568825551e-05
0.0003661588904137745,0.000497034877648012,1.8283225569223372e-05
0.0001701165015588697,0.0004971689464960051,1.8531776525259376e-05
-3.364309768222781e-05,0.0004972030648469744,1.878036952809512e-05
-0.0002453466636629744,0.000497133317406638,1.9028953623658523e-05
-0.0004651656016956391,0.0004969556893402984,1.9277475875345255e-05
-0.0006932171117380598,0.00049666609366194,1.9525881321095815e-05
-0.0009295656942149547,0.0004962603979604517,1.977411294400141e-05
-0.0011742248467275056,0.0004957344503252161,2.0022111656072828e-05
-0.0014271587987829083,0.0004950841044138385,2.026981629475759e-05
-0.0016882841717145798,0.0004943052436712141,2.0517163631778852e-05
-0.001957471509025598,0.000493393804751029,2.0764088393884412e-05
-0.002234546687116036,0.0004923458002019936,2.101052329512267e-05
-0.002519292265729956,0.000491157340463782,2.1256399080289114e-05
-0.0028114488520811147,0.0004898246551843292,2.150164457920114e-05
-0.0031107165303498837,0.0004883441138387215,2.1746186771456904e-05
-0.003416756365083578,0.0004867122456148631,2.19899508613203e-05
-0.003729191940572979,0.000484925758538449,2.2232860362358627e-05
-0.004047610857012897,0.0004829815578390525,2.2474837191453002e-05
-0.004371566074551955,0.0004808767636061613,2.2715801771814307e-05
-0.00470057698893312,0.00047860872784029004,2.2955673144675918e-05
-0.005034130145141442,0.0004761750510567714,2.3194369089400185e-05
-0.005371679545750257,0.0004735735986340485,2.343180625182289e-05
-0.005712646578903864,0.00047080251710288496,2.3667900280757125e-05
-0.00605641965885546,0.0004678602505434451,2.3902565972668707e-05
-0.006402353715513586,0.00046474555719985285,2.413571742460453e-05
-0.006749769678146352,0.0004614575263514379,2.4367268195492354e-05
-0.007097954086411503,0.0004579955954102984,2.4597131475932787e-05
-0.0074461589475461835,0.000454359567151809,2.4825220266573312e-05
-0.007793601947883037,0.00045054962692795173,2.505144756509325e-05
-0.008139467118625529,0.0004465663596613246,2.527572656174057e-05
-0.008482906046459137,0.0004424107663700534,2.5497970843248414e-05
-0.008823039701926294,0.00043808427993295707,2.5718094604824168e-05
-0.009158960928431695,0.0004335887797753676,2.5936012869751248e-05
-0.009489737597602639,0.000428926605143859,2.6151641715981054e-05
-0.009814416403316165,0.0004241005666436293,2.6364898508927925e-05
-0.010132027243635797,0.00041911395573189134,2.6575702139521806e-05
-0.01044158812270026,0.0004139705518903073,2.6783973266427355e-05
-0.010742110486937708,0.00040867462723789784,2.6989634561209407e-05
-0.01103260490046666,0.00040323094839104677,2.7192610955116644e-05
-0.01131208698124435,0.000397644775420619,2.739282988606956e-05
-0.011579583562745408,0.00039192185778462154,2.759022154437087e-05
-0.01183413908613181,0.0003860684271224022,2.7784719115597626e-05
-0.012074822229045478,0.0003800911867936079,2.797625901907663e-05
-0.012300732730545416,0.0003739972980537102,2.816478114028846e-05
-0.012511008305932018,0.0003677943627945908,2.8350229055500534e-05
-0.012704831500848888,0.0003614904028428956,2.8532550246909906e-05
-0.012881436332950224,0.0003550938358844458,2.871169630659174e-05
-0.01304011461180457,0.0003486134481482571,2.8887623127599917e-05
-0.013180221900613477,0.00034205836402015263,2.9060291080642018e-05
-0.013301183153954206,0.0003354380127565107,2.9229665174836182e-05
-0.013402498092344785,0.00032876209244493595,2.9395715201136543e-05
-0.01348374634503456,0.00032204053133559114,2.9558415857081674e-05
-0.013544592336926417,0.00031528344666510087,2.9717746851581847e-05
-0.013584789848918108,0.00030850110111863975,2.987369298852778e-05
-0.013604186151538139,0.0003017038571185257,3.002624422808707e-05
-0.013602725591247512,0.00029490212918282925,3.017539572466241e-05
-0.01358045249183325,0.0002881063346620591,3.0321147840623634e-05
-0.013537513216807198,0.00028132684323489894,3.0463506135097873e-05
-0.013474157220876918,0.0002745739256254779,3.0602481327312964e-05
-0.013390736906384097,0.00026785770209366265,3.0738089234242746e-05
-0.013287706103948296,0.00026118809134107954,3.0870350682601435e-05
-0.013165617018574601,0.0002545747605604488,3.0999291395576816e-05
-0.013025115526823608,0.00024802707742409925,3.112494185507295e-05
-0.012866934788432165,0.0002415540648452853,3.1247337140640296e-05
-0.01269188724895815,0.00023516435933593774,3.13665167466856e-05
-0.012500855234074074,0.00022886617371517968,3.148252437994838e-05
-0.012294780435386895,0.00022266726479781444,3.159540773957663e-05
-0.012074652645046185,0.00021657490652770618,3.170521828240801e-05
-0.011841498116845144,0.00021059586883723333,3.181201097624925e-05
-0.011596367919805109,0.00020473640232807077,3.1915844044040574e-05
-0.011340326604212367,0.0001990022286970664,3.201677870179686e-05
-0.01107444142570885,0.0001933985366895861,3.211487889314352e-05
-0.010799772293907979,0.00018792998325968188,3.221021102313084e-05
-0.0105173625569999,0.00018260069954695492,3.23028436938325e-05
-0.010228230711839011,0.0001774143012297452,3.239284744402667e-05
-0.009933363116550893,0.00017237390277264773,3.248029449502727e-05
-0.009633707750875081,0.00016748213505579125,3.256525850448438e-05
-0.009330169018540582,0.00016274116586343734,3.264781432971418e-05
-0.009023603540909244,0.0001581527227235749,3.2728037801860935e-05
-0.00871481686839481,0.00015371811762124888,3.280600551194714e-05
-0.0084045610316883,0.0001494382731462281,3.2881794609639005e-05
-0.008093532855446612,0.00014531374967444437,3.295548261534417e-05
-0.007782372954613661,0.0001413447732219293,3.3027147246068265e-05
-0.007471665332945107,0.0001375312636500396,3.3096866255286256e-05
-0.007161937517176659,0.00013387286293750918,3.316471728693314e-05
-0.0068536611923979435,0.00013036896326011553,3.3230777743482543e-05
-0.006547253337474044,0.00012701873462764754,3.3295124667954486e-05
-0.006243077865011913,0.00012382115182702606,3.335783463956815e-05
-0.0059414477394588135,0.00012077502042590837,3.341898368263139e-05
-0.005642627508099168,0.00011787900161401887,3.347864718814137e-05
-0.0053468361685775,0.0001151316356948497,3.3536899847468584e-05
-0.005054250312747515,0.00011253136407451844,3.3593815597410926e-05
-0.00476500750698456,0.00011007654961958542,3.364946757583445e-05
-0.0044792098883212565,0.00010776549527075897,3.3703928087057034e-05
-0.004196927983989279,0.00010559646080268134,3.37572685760754e-05
-0.003918204790527442,0.00010356767760905217,3.380955961067833e-05
-0.003643060152569299,0.00010167736137327798,3.386087087042391e-05
-0.0033714954569971914,9.992372247088635e-05,3.391127114138495e-05
-0.0031034986310395835,9.830497394887715e-05,3.3960828315489895e-05
-0.002839049422995902,9.681933693536829e-05,3.4009609393210955e-05
-0.0025781249458638753,9.546504334315335e-05,3.405768048828058e-05
-0.0023207054620975357,9.4240335741163e-05,3.410510683305166e-05
-0.0020667803688554894,9.314346428342475e-05,3.4151952783057805e-05
-0.0018163542967958258,9.217268061701191e-05,3.419828181928292e-05
-0.0015694531680652264,9.132622875079665e-05,3.424415654662487e-05
-0.0013261299989097911,9.060233295905289e-05,3.428963868705233e-05
-0.0010864702101721065,8.999918290678242e-05,3.433478906601879e-05
-0.000850596232595476,8.951491629609051e-05,3.437966759081951e-05
-0.000618671239190165,8.91475994281441e-05,3.442433321975057e-05
-0.00039090186654806115,8.889520615170955e-05,3.4468843921145534e-05
-0.00016753978934047669,8.875559573773742e-05,3.4513256621617897e-05
5.111798337718249e-05,8.87264902862466e-05,3.455762714312389e-05
0.00026473018046048246,8.8805452327206e-05,3.460201012877726e-05
0.00047291371909546567,8.8989863302095e-05,3.464645895768458e-05
0.0006752474500520764,8.927690359438188e-05,3.46910256494087e-05
0.0008712770450593426,8.966353471815974e-05,3.473576075898684e-05
0.0010605208427140978,9.014648419010309e-05,3.47807132637139e-05
0.0012424764656355268,9.072223351719049e-05,3.4825930443140726e-05
0.0014166280289381681,9.138700964083392e-05,3.487145775393023e-05
0.001582453771080101,9.213678009083848e-05,3.491733870136315e-05
0.0017394339419677682,9.296725201910045e-05,3.496361470939064e-05
0.0018870587671656624,9.38738751963838e-05,3.501032499119451e-05
0.002024836275286386,9.485184895699681e-05,3.505750642223286e-05
0.0021522997517034897,9.589613296374428e-05,3.510519341771304e-05
0.0022690145899447495,9.700146154915635e-05,3.5153417816341265e-05
0.0023745843563552174,9.816236128573134e-05,3.520220877204999e-05
0.0024686559472513712,9.937317136163299e-05,3.525159265521183e-05
0.0025509237813393063,0.00010062806629378066,3.530159296462568e-05
0.002621133020341172,0.00010192108049420078,3.535223025132268e-05
0.0026790818387560683,0.00010324613420897509,3.5403522054998474e-05
0.002724622774538931,0.00010459706036229885,3.545548285364129e-05
0.002757663204718819,0.00010596763185711329,3.5508124026696146e-05
0.002778165011961667,0.00010735158891128341,3.556145383188825e-05
0.0027861435304666077,0.00010874266604689048,3.5615477395627794e-05
0.0027816658723732375,0.00011013461839760043,3.5670196716738916e-05
0.002764848740137943,0.00011152124705072823,3.5725610683101e-05
0.0027358558364471057,0.00011289642319487449,3.57817151006624e-05
0.0026948950056762252,0.00011425411090540532,3.5838502734187475e-05
0.0026422152796567837,0.00011558838847673858,3.589596335903301e-05
0.0025781040342162773,0.00011689346830520684,3.59540838232285e-05
0.002502884469255132,0.0001181637154310747,3.601284811916257e-05
0.002416913601905319,0.00011939366494886481,3.607223746425755e-05
0.0023205809187532484,0.00012057803857902945,3.613223039013952e-05
0.002214307773296048,0.00012171176075204178,3.6192802839972286e-05
0.0020985475399585207,0.00012278997458035543,3.6253928273805384e-05
0.001973786454068027,0.00012380805807886208,3.631557778197019e-05
0.0018405449961287747,0.00012476164094141128,3.637772020672526e-05
0.0016993796361703798,0.00012564662209948606,3.644032227248548e-05
0.0015508847386775562,0.00012645918819319805,3.6503348725058656e-05
0.001395694424902138,0.00012719583298409298,3.656676248035298e-05
0.0012344841919743968,0.0001278533776383121,3.663052478300858e-05
0.0010679721056753141,0.00012842899171272454,3.669459537534634e-05
0.0008969194157144344,0.00012892021459307197,3.675893267692279e-05
0.000722130470486792,0.00012932497706462227,3.6823493974837214e-05
0.0005444518131522007,0.00012964162263553203,3.688823562476225e-05
0.00036477032418375313,0.00012986892816986602,3.69531132624636e-05
0.00018401025844171044,0.0001300061233155224,3.7018082025334946e-05
3.129024951095266e-06,0.0001300529081363706,3.708309678319792e-05
-0.00017688841960012926,0.00013000946828770833,3.714811237730394e-05
-0.0003550366395090782,0.00012987648702293103,3.72130838661316e-05
-0.0005302982374903686,0.00012965515330368117,3.727796677621325e-05
-0.0007016536989965439,0.00012934716531955945,3.7342717355869065e-05
-0.0008680923468102426,0.00012895472880810775,3.740729282940098e-05
-0.0010286241270187615,0.0001284805496896505,3.7471651649025425e-05
