frame_number,force
0,721.6976376413049
1,721.7077301112662
2,721.7180805119328
3,721.7286433047174
4,721.73937104364
5,721.7502147460356
6,721.7611243304524
7,721.7720491185149
8,721.7829383920896
9,721.7937419939016
10,721.8044109582607
11,721.814898157558
12,721.8251589497971
13,721.8351518136399
14,721.8448389595587
15,721.8541869063808
16,721.8631670107293
17,721.8717559345957
18,721.8799360362523
19,721.8876956725621
20,721.8950294049072
21,721.9019381044133
22,721.9084289541831
23,721.9145153477696
24,721.920216685433
25,721.9255580728682
26,721.9305699302704
27,721.935287522591
28,721.9397504249453
29,721.9440019403285
30,721.9480884889808
31,721.9520589882313
32,721.9559642374155
33,721.9598563152906
34,721.9637879896187
35,721.9678121326922
36,721.9719811338041
37,721.976346300095
38,721.9809572401175
39,721.985861228565
40,721.9911025544721
41,721.9967218578809
42,722.0027554616481
43,722.0092347065761
44,722.0161852999277
45,722.0236266897638
46,722.0315714805264
47,722.0400249089196
48,722.0489844025918
49,722.0584392452399
50,722.0683703684911
51,722.0787502837898
52,722.0895431594364
53,722.100705040832
54,722.112184205515
55,722.1239216382781
56,722.1358516069274
57,722.147902318034
58,722.1599966346216
59,722.1720528423338
60,722.1839854550273
61,722.1957060536492
62,722.2071241537782
63,722.2181480979664
64,722.2286859689018
65,722.238646517929
66,722.2479401009819
67,722.2564796115938
68,722.2641813991985
69,722.2709661602379
70,722.2767597886677
71,722.2814941710541
72,722.2851079113092
73,722.2875469728003
74,722.2887652297576
75,722.2887249226153
76,722.2873970125839
77,722.2847614321811
78,722.2808072327899
79,722.2755326357477
80,722.2689449965231
81,722.2610606912045
82,722.2519049324247
83,722.2415115195955
84,722.2299225260965
85,722.2171879236012
86,722.2033651415522
87,722.1885185591746
88,722.1727189289248
89,722.1560427328347
90,722.1385714749523
91,722.1203909134962
92,722.101590236612
93,722.0822611872011
94,722.0624971455109
95,722.0423921820399
96,722.0220400964027
97,722.001533459367
98,721.9809626753078
99,721.9604150809811
100,721.9399740940227
101,721.9197184215241
102,721.8997213362592
103,721.8800500265422
104,721.8607650256697
105,721.8419197275222
106,721.8235599942643
107,721.8057238593955
108,721.7884413262412
109,721.7717342601198
110,721.755616371672
111,721.7400932881343
112,721.7251627085881
113,721.7108146390332
114,721.6970317038508
115,721.6837895316312
116,721.6710572144947
117,721.6587978395822
118,721.6469690887965
119,721.6355238989996
120,721.624411171182
121,721.613576514542
122,721.6029630096906
123,721.5925119735514
124,721.5821637070495
125,721.571858206627
126,721.561535823182
127,721.5511378572797
128,721.5406070863265
129,721.5298882259615
130,721.518928332182
131,721.5076771517934
132,721.496087427768
133,721.4841151647695
134,721.4717198589473
135,721.4588646946095
136,721.4455167082756
137,721.4316469180648
138,721.4172304140152
139,721.4022464041551
140,721.3866782133465
141,721.370513236839
142,721.3537428560186
143,721.3363623276732
144,721.3183706592205
145,721.2997704811397
146,721.2805679249053
147,721.2607725104488
148,721.240397042417
149,721.2194575108639
150,721.1979729909351
151,721.1759655377467
152,721.1534600758283
153,721.1304842859209
154,721.1070684949528
155,721.0832455772012
156,721.0590508751919
157,721.0345221472198
158,721.0096995446734
159,720.9846256173307
160,720.9593453397938
161,720.9339061490258
162,720.9083579823184
163,720.8827533058958
164,720.8571471254164
165,720.8315969704188
166,720.8061628453618
167,720.7809071405991
168,720.7558944979248
169,720.7311916275378
170,720.7068670760035
171,720.6829909472503
172,720.659634580332
173,720.6368701889537
174,720.6147704690599
175,720.5934081814777
176,720.5728557153868
177,720.5531846352037
178,720.5344652105161
179,720.5167659286172
180,720.5001529926153
181,720.4846898129337
182,720.4704365032758
183,720.4574493922125
184,720.445780558431
185,720.4354773923235
186,720.4265821814009
187,720.4191317150598
188,720.4131569063934
189,720.4086824328184
190,720.4057264007184
191,720.4043000414657
192,720.4044074476928
193,720.406045359931
194,720.4092030149459
195,720.413862068415
196,720.4199966054849
197,720.427573252501
198,720.4365514015839
199,720.4468835564644
200,720.4585158022705
201,720.4713883936342
202,720.4854364463654
203,720.5005907106403
204,720.5167783994325
205,720.5339240444107
206,720.551950352389
207,720.5707790388004
208,720.5903316201325
209,720.6105301530825
210,720.6312979122368
211,720.6525599996913
212,720.6742438809498
213,720.6962798437738
214,720.718601380404
215,720.7411454968859
216,720.7638529549043
217,720.7866684518609
218,720.8095407448814
219,720.8324227246237
220,720.8552714448019
221,720.8780481123194
222,720.9007180405453
223,720.9232505658176
224,720.9456189268448
225,720.9678001089447
226,720.9897746579219
227,721.0115264691957
228,721.0330425566095
229,721.0543128038502
230,721.0753296999964
231,721.0960880586385
232,721.1165847179107
233,721.1368182184842
234,721.1567884583711
235,721.1764963253751
236,721.1959433087593
237,721.215131091581
238,721.2340611252938
239,721.252734189606
240,721.2711499439898
241,721.2893064821905
242,721.3071999055157
243,721.3248239323144
244,721.3421695593127
245,721.3592247871445
246,721.3759744202328
247,721.3923999510039
248,721.4084795380986
249,721.424188085226
250,721.4394974213615
251,721.4543765761643
252,721.4687921393839
253,721.4827086907542
254,721.4960892866039
255,721.5088959899514
256,721.521090431659
257,721.5326343905065
258,721.5434903788604
259,721.5536222182823
260,721.5629955876575
261,721.5715785270309
262,721.5793418835879
263,721.5862596909
264,721.5923094772253
265,721.597472502346
266,721.6017339244814
267,721.6050828996136
268,721.6075126164635
269,721.6090202719704
270,721.6096069937759
271,721.6092777171515
272,721.6080410241261
273,721.6059089530169
274,721.6028967882186
275,721.5990228429564
276,721.5943082501843
277,721.5887767772758
278,721.5824546784454
279,721.5753705956362
280,721.5675555142102
281,721.5590427742745
282,721.549868132451
283,721.5400698636727
284,721.529688889459
285,721.518768918
286,721.5073565811066
287,721.4955015532761
288,721.4832566394059
289,721.4706778200398
290,721.4578242450991
291,721.4447581674108
292,721.4315448061144
293,721.4182521287756
294,721.4049505410408
295,721.3917124743475
296,721.378611866113
297,721.3657235333816
298,721.353122448896
299,721.3408829355222
300,721.3290777995362
301,721.3177774259867
302,721.3070488608753
303,721.2969549050463
304,721.2875532432595
305,721.2788956294214
306,721.2710271462097
307,721.2639855552304
308,721.2578007529241
309,721.2524943465986
310,721.248079362164
311,721.2445600902614
312,721.24193207276
313,721.2401822285397
314,721.2392891149551
315,721.2392233174284
316,721.2399479539904
317,721.2414192761736
318,721.243587344385
319,721.2463967551861
320,721.2497873989026
321,721.2536952277823
322,721.2580530169735
323,721.2627911031857
324,721.2678380897943
325,721.2731215121897
326,721.2785684614562
327,721.2841061665532
328,721.2896625358261
329,721.2951666596234
330,721.3005492776603
331,721.3057432170161
332,721.3106838087808
333,721.3153092930103
334,721.3195612218902
335,721.3233848685361
336,721.3267296433248
337,721.3295495126437
338,721.331803408955
339,721.3334556177643
340,721.3344761265555
341,721.3348409224835
342,721.334532229061
343,721.3335386760971
344,721.3318554000026
345,721.3294840727144
346,721.3264328581503
347,721.3227162962943
348,721.3183551164568
349,721.3133759825716
350,721.3078111746485
351,721.3016982115752
352,721.2950794211482
353,721.2880014635615
354,721.2805148144522
355,721.2726732128433
356,721.26453307861
357,721.2561529046391
358,721.2475926308206
359,721.2389130091028
360,721.2301749697184
361,721.221438998038
362,721.2127645295893
363,721.2042093683024
364,721.1958291311731
365,721.1876767218469
366,721.1798018356411
367,721.1722504988037
368,721.1650646456253
369,721.1582817386766
370,721.1519344396049
371,721.1460503401421
372,721.1406517648146
373,721.1357556574536
374,721.1313735618264
375,721.1275117023949
376,721.1241711656596
377,721.1213481777152
378,721.119034471002
379,721.1172177329385
380,721.1158821297452
381,721.1150088981889
382,721.1145769949185
383,721.1145637881036
384,721.1149457710341
385,721.1156992739113
386,721.1168011490579
387,721.1182294059925
388,721.1199637759105
389,721.1219861900323
390,721.124281162419
391,721.1268360734474
392,721.1296413538263
393,721.1326905710227
394,721.1359804208616
395,721.139510626695
396,721.1432837470006
397,721.1473048912062
398,721.1515813451451
399,721.1561221121812
400,721.1609373813744
401,721.1660379371664
402,721.1714345252923
403,721.177137188734
404,721.1831545869628
405,721.1894933112574
406,721.1961572081605
407,721.2031467229647
408,721.2104582765883
409,721.2180836921938
410,721.2260096909931
411,721.2342174782838
412,721.2426824400511
413,721.2513739678208
414,721.2602554259603
415,721.2692842718632
416,721.2784123348514
417,721.2875862540662
418,721.2967480701013
419,721.3058359601574
420,721.3147851015999
421,721.3235286440165
422,721.3319987660466
423,721.3401277907805
424,721.3478493324784
425,721.3550994484059
426,721.3618177730875
427,721.3679486168795
428,721.3734420142116
429,721.3782547078756
430,721.3823510546983
431,721.3857038361276
432,721.3882949560954
433,721.3901160089562
434,721.3911687024668
435,721.3914651238587
436,721.3910278400343
437,721.3898898254224
438,721.3880942135298
439,721.3856938714284
440,721.3827508008538
441,721.3793353751921
442,721.3755254273726
443,721.3714052079422
444,721.3670642343717
445,721.3625960523301
446,721.3580969286879
447,721.3536644960681
448,721.3493963706103
449,721.3453887669582
450,721.341735135276
451,721.3385248442647
452,721.3358419332594
453,721.3337639555755
454,721.3323609320928
455,721.3316944278953
456,721.3318167584928
457,721.3327703293772
458,721.3345871136595
459,721.337288274176
460,721.3408839355802
461,721.3453731079894
462,721.3507437587854
463,721.3569730254932
464,721.3640275606999
465,721.3718639986151
466,721.380429531809
467,721.389662586911
468,721.3994935900165
469,721.4098458151467
470,721.4206363108864
471,721.4317769003495
472,721.4431752473931
473,721.4547359778752
474,721.4663618400837
475,721.4779548847247
476,721.4894176425769
477,721.5006542770096
478,721.5115716892262
479,721.5220805565963
480,721.5320962882158
481,721.5415398856553
482,721.550338699915
483,721.5584270775852
484,721.5657468899678
485,721.572247939063
486,721.5778882357467
487,721.582634149831
488,721.5864604382108
489,721.5893501629181
490,721.5912945134022
491,721.5922925473319
492,721.5923508636089
493,721.5914832207176
494,721.5897101120341
495,721.5870583066425
496,721.5835603606209
497,721.5792541016011
498,721.5741820894018
499,721.5683910565817
500,721.5619313330914
501,721.5548562579005
502,721.5472215778491
503,721.5390848313781
504,721.5305047141732
505,721.5215404264432
506,721.5122510065102
507,721.5026946594288
508,721.4929280901179
509,721.4830058486134
510,721.4729796930801
511,721.4628979762314
512,721.4528050630556
513,721.442740790889
514,721.4327399854
515,721.4228320470596
516,721.413040621744
517,721.4033833660452
518,721.3938718128828
519,721.3845113369927
520,721.3753012146625
521,721.3662347697159
522,721.3572995992324
523,721.3484778772115
524,721.3397467404012
525,721.3310787653276
526,721.32244254731
527,721.3138033905238
528,721.3051241139085
529,721.2963659720882
530,721.2874896839618
531,721.2784565543227
532,721.2692296664255
533,721.2597751167627
534,721.2500632581323
535,721.240069913753
536,721.2297775243092
537,721.2191761917206
538,721.2082645877931
539,721.1970507016536
540,721.185552405875
541,721.173797826307
542,721.1618255041187
543,721.1496843409845
544,721.137433321875
545,721.1251410165221
546,721.1128848697641
547,721.1007502998415
548,721.0888296298266
549,721.0772208802119
550,721.0660264511864
551,721.0553517226746
552,721.0453035997097
553,721.0359890301286
554,721.0275135206049
555,721.0199796758268
556,721.0134857844646
557,721.0081244743859
558,721.0039814583172
559,721.0011343900435
560,720.999651850085
561,720.9995924775875
562,721.0010042610567
563,721.0039239952229
564,721.0083769066013
565,721.0143764471412
566,721.0219242527747
567,721.0310102603815
568,721.0416129728771
569,721.0536998590957
570,721.0672278735851
571,721.0821440807451
572,721.0983863669493
573,721.1158842231388
574,721.1345595792444
575,721.154327671198
576,721.1750979215576
577,721.196774816287
578,721.2192587635485
579,721.2424469255639
580,721.266234020414
581,721.2905130951586
582,721.3151762736007
583,721.3401154813215
584,721.3652231480079
585,721.3903928839114
586,721.415520124935
587,721.4405027404046
588,721.465241599379
589,721.4896410947438
590,721.5136096277771
591,721.5370600575752
592,721.5599101183577
593,721.582082803553
594,721.6035067109235
595,721.6241163405165
596,721.6438523377096
597,721.6626616759235
598,721.6804977764878
599,721.6973205662246
600,721.7130964757196
601,721.7277983813249
602,721.7414054910573
603,721.7539031708292
604,721.7652827061777
605,721.7755409971328
606,721.7846801882143
607,721.7927072391728
608,721.799633444457
609,721.8054739117204
610,721.8102470127479
611,721.8139738237227
612,721.8166775749384
613,721.8183831314518
614,721.8191165249469
615,721.8189045545633
616,721.8177744720107
617,721.8157537626782
618,721.8128700278238
619,721.8091509643373
620,721.8046244310938
621,721.7993185870473
622,721.793262086703
623,721.7864843217492
624,721.7790157002394
625,721.7708879549804
626,721.7621344713166
627,721.7527906225386
628,721.7428940988746
629,721.7324852132202
630,721.7216071643857
631,721.7103062384141
632,721.6986319308538
633,721.6866369763011
634,721.6743772746271
635,721.6619117061275
636,721.6493018311542
637,721.6366114734159
638,721.623906189361
639,721.6112526291683
640,721.5987177986918
641,721.5863682361596
642,721.5742691214717
643,721.5624833384436
644,721.5510705108267
645,721.5400860319237
646,721.5295801063847
647,721.5195968225094
648,721.5101732741483
649,721.5013387520532
650,721.4931140244428
651,721.4855107257255
652,721.4785308709638
653,721.4721665115966
654,721.4663995448318
655,721.4612016851482
656,721.4565346025356
657,721.4523502296705
658,721.4485912387929
659,721.4451916865006
660,721.4420778194843
661,721.4391690272782
662,721.4363789217865
663,721.4336165195907
664,721.4307875022724
665,721.4277955307552
666,721.4245435896418
667,721.4209353357778
668,721.4168764235177
669,721.4122757798373
670,721.407046806064
671,721.4011084880354
672,721.3943864014674
673,721.3868136036143
674,721.378331405698
675,721.3688900231801
676,721.3584491030612
677,721.3469781286025
678,721.3344567016816
679,721.3208747020019
680,721.3062323216967
681,721.290539973799
682,721.2738180735666
683,721.2560966929593
684,721.2374150906952
685,721.2178211227401
686,721.197370540177
687,721.176126182943
688,721.1541570790368
689,721.1315374601043
690,721.1083457072076
691,721.0846632460397
692,721.0605734174891
693,721.0361603542068
694,721.0115078946229
695,720.9866985628476
696,720.9618126372476
697,720.936927323958
698,720.9121160457923
699,720.8874478523321
700,720.8629869525549
701,720.8387923668671
702,720.814917691595
703,720.7914109666142
704,720.7683146355856
705,720.74566558719
706,720.7234952642132
707,720.7018298258422
708,720.6806903477443
709,720.6600930445952
710,720.6400495008897
711,720.6205668982718
712,720.6016482306779
713,720.5832925015482
714,720.5654949003326
715,720.5482469586394
716,720.5315366887346
717,720.5153487080687
718,720.4996643538938
719,720.4844617928039
720,720.4697161308185
721,720.455399529682
722,720.441481334511
723,720.4279282174336
724,720.4147043419714
725,720.4017715538107
726,720.3890896048367
727,720.3766164178041
728,720.3643083982638
729,720.3521207986847
730,720.3400081374934
731,720.3279246725825
732,720.3158249242207
733,720.3036642371702
734,720.2913993684145
735,720.2789890863241
736,720.2663947681145
737,720.2535809835757
738,720.240516054831
739,720.2271725852733
740,720.2135279543841
741,720.1995647764387
742,720.185271320202
743,720.1706418858075
744,720.1556771353233
745,720.1403843744749
746,720.1247777836859
747,720.1088785967536
748,720.0927152251037
749,720.0763233241526
750,720.0597457953014
751,720.043032713093
752,720.0262411641238
753,720.0094349847298
754,719.992684389145
755,719.9760654876059
756,719.9596597026431
757,719.9435530997695
758,719.9278356545021
759,719.9126004799103
760,719.8979430370379
761,719.8839603452061
762,719.8707502021892
763,719.8584104181772
764,719.8470380645656
765,719.8367287391292
766,719.8275758505579
767,719.819669925108
768,719.8130979367239
769,719.8079426621375
770,719.8042820652862
771,719.8021887191678
772,719.8017292754355
773,719.8029639913774
774,719.8059463211623
775,719.8107225753505
776,719.8173316510433
777,719.8258048344702
778,719.8361656776319
779,719.8484299510716
780,719.8626056766246
781,719.8786932468519
782,719.896685639803
783,719.9165687363384
784,719.9383217419926
785,719.9619177085237
786,719.9873241444454
787,720.0145037002148
788,720.0434149126532
789,720.074012993949
790,720.1062506515075
791,720.1400789247169
792,720.1754480237422
793,720.2123081545542
794,720.2506103138653
795,720.2903070373819
796,720.3313530848106
797,720.3737060456787
798,720.4173268515228
799,720.462180182073
800,720.5082347551637
801,720.5554634922418
802,720.6038435536977
803,720.6533562407293
804,720.7039867629933
805,720.7557238740177
806,720.8085593789119
807,720.8624875210393
808,720.9175042566549
809,720.9736064299276
810,721.0307908649801
811,721.0890533952943
812,721.1483878528463
813,721.2087850394154
814,721.270231701417
815,721.3327095283231
816,721.3961941936769
817,721.4606544570976
818,721.5260513455489
819,721.5923374316661
820,721.6594562247489
821,721.7273416862466
822,721.79591787815
823,721.8650987511812
824,721.9347880795777
825,722.0048795489304
826,722.0752570016334
827,722.145794840982
828,722.2163585910112
829,722.2868056059957
830,722.3569859209999
831,722.4267432320468
832,722.4959159912314
833,722.5643385993978
834,722.6318426776378
835,722.698258398597
836,722.7634158585892
837,722.8271464714621
838,722.8892843652646
839,722.9496677633012
840,723.0081403320952
841,723.0645524798182
842,723.1187625894853
843,723.1706381712798
844,723.2200569178488
845,723.2669076461766
846,723.3110911110322
847,723.3525206787031
848,723.3911228549931
849,723.4268376664837
850,723.4596188978354
851,723.4894341902972
852,723.5162650071369
853,723.5401064699171
854,723.5609670660482
855,723.5788682246687
856,723.5938437567899
857,723.6059391583977
858,723.6152107819261
859,723.6217248904452
860,723.6255566172758
861,723.6267888595053
862,723.6255111367161
863,723.621818446467
864,723.6158101454544
865,723.6075888798315
866,723.5972595814893
867,723.5849285416822
868,723.5707025706977
869,723.5546882517393
870,723.5369912966419
871,723.5177160081925
872,723.4969648483082
873,723.4748381050784
874,723.4514336469813
875,723.4268467498902
876,723.4011699808324
877,723.3744931212435
878,723.3469031125115
879,723.3184840091054
880,723.2893169294987
881,723.2594800010213
882,723.2290483003519
883,723.1980937955896
884,723.1666852975901
885,723.1348884269042
886,723.102765599257
887,723.0703760291357
888,723.0377757487719
889,723.0050176381758
890,722.972151460343
891,722.9392238948378
892,722.9062785635305
893,722.8733560440443
894,722.8404938679283
895,722.8077265005504
896,722.775085298665
897,722.7425984411487
898,722.7102908296836
899,722.6781839589427
900,722.6462957590511
901,722.6146404160488
902,722.5832281785741
903,722.5520651609586
904,722.521153154158
905,722.4904894563233
906,722.4600667349143
907,722.429872932267
908,722.3998912247537
909,722.3701000406318
910,722.3404731348458
911,722.310979713122
912,722.2815845936308
913,722.2522483926168
914,722.2229277219502
915,722.193575391839
916,722.1641406188056
917,722.13456924445
