frame_number,force
0,643.9841900000184
1,644.142518680137
2,644.2941196922723
3,644.4331725255214
4,644.5554562215104
5,644.6586997866543
6,644.7425824137922
7,644.808467086072
8,644.8589897363133
9,644.8976172416488
10,644.9282518847751
11,644.9549143608775
12,644.9814949828973
13,645.0115419388541
14,645.048065169915
15,645.0933590757653
16,645.1488669103363
17,645.2151188163934
18,645.2917705409886
19,645.3777461279375
20,645.4714568937328
21,645.5710528011155
22,645.6746645263323
23,645.780599489625
24,645.8874565813284
25,645.9941358153666
26,646.0997514199062
27,646.2034973283336
28,646.3045372244975
29,646.4019817915275
30,646.4949781232583
31,646.582890919153
32,646.6655234912612
33,646.7433170368869
34,646.8174744870423
35,646.8899678282188
36,646.963393855551
37,647.0406505608386
38,647.1244370915804
39,647.2166397512117
40,647.3177301410277
41,647.4263359947711
42,647.5391322036658
43,647.651140734365
44,647.7564369988105
45,647.8491547967134
46,647.924590133258
47,647.9801620137926
48,648.0160149042646
49,648.0351298980482
50,648.0429214989165
51,648.0464083127239
52,648.0531343477595
53,648.07006147265
54,648.1026420717426
55,648.1542172321757
56,648.225789025353
57,648.3161198433769
58,648.4220531711944
59,648.5389460826757
60,648.6611404908771
61,648.7824417082187
62,648.8965924986818
63,648.9977306948646
64,649.0808131730946
65,649.1419860298863
66,649.1788809198338
67,649.1908183426434
68,649.1788986683391
69,649.1459635468668
70,649.0964144099546
71,649.035879626198
72,648.9707357853745
73,648.9075197681202
74,648.8523035489796
75,648.8101194195956
76,648.7845135535658
77,648.7772811969862
78,648.7884054114619
79,648.8161885645665
80,648.8575399994933
81,648.9083681240695
82,648.9640186501009
83,649.019706930756
84,649.0709159797605
85,649.1137598198495
86,649.14531965628
87,649.1639397266931
88,649.1694382033467
89,649.1631718834792
90,649.147906082953
91,649.1274805563366
92,649.1063122368628
93,649.0888159816252
94,649.0788421106068
95,649.0792211241128
96,649.0914759634305
97,649.1157226433784
98,649.15074746781
99,649.1942330126487
100,649.2430990110159
101,649.2939110383668
102,649.3432876707245
103,649.3882313546635
104,649.4263377957044
105,649.4558813583993
106,649.4757980576145
107,649.4855969909815
108,649.4852488684814
109,649.4751183352898
110,649.4559874294472
111,649.429154766512
112,649.3965345092439
113,649.3606623451576
114,649.3245397984097
115,649.2912895685354
116,649.2636399873991
117,649.243305811076
118,649.2303823496885
119,649.2229005480773
120,649.2166788776007
121,649.2055555904685
122,649.1820136005251
123,649.1381336795148
124,649.0667367243481
125,648.962519673817
126,648.8229735762743
127,648.6489069933999
128,648.444478441844
129,648.2167441596318
130,647.9748166026961
131,647.7287818033125
132,647.4885412540672
133,647.2627375170277
134,647.0579020947406
135,646.8779356138386
136,646.7239895751277
137,646.5947529654986
138,646.4870595853951
139,646.3966571610587
140,646.3189567857971
141,646.2496189932045
142,646.1849027670243
143,646.1217718809554
144,646.0578048946418
145,645.9909937583844
146,645.9195410873255
147,645.8417628891308
148,645.7561573179032
149,645.6616238563053
150,645.5577500938197
151,645.4450566817451
152,645.3251083513795
153,645.2004416391752
154,645.0743049554234
155,644.9502430531579
156,644.8315921681894
157,644.720987033235
158,644.6199976801273
159,644.5289904611308
160,644.4472486851591
161,644.373319704902
162,644.3054993574933
163,644.2423327878524
164,644.1830104097652
165,644.127570539272
166,644.0768739530494
167,644.0323709105174
168,643.9957270752781
169,643.9684058153772
170,643.9513059679132
171,643.9445160316118
172,643.9471900939752
173,643.9575212194414
174,643.9728035516376
175,643.9896060660071
176,644.0040812662638
177,644.0123878379314
178,644.0111532365336
179,643.9978845624337
180,643.9712625759828
181,643.9312974686666
182,643.8793553272075
183,643.8180750722216
184,643.7512014365795
185,643.6833636028339
186,643.6198170076709
187,643.566138393135
188,643.5278482115414
189,643.5099488745559
190,643.5164042723244
191,643.5496267633863
192,643.6100644989803
193,643.6959803423881
194,643.8034826970451
195,643.9268216408215
196,644.0589167876411
197,644.1920454102242
198,644.318591750583
199,644.4317426313171
200,644.5260218414211
201,644.5975950876259
202,644.6443363200791
203,644.665702917614
204,644.6625066809971
205,644.6366773975487
206,644.5910878360081
207,644.5294546672926
208,644.4562769270282
209,644.3767480113643
210,644.2965877387551
211,644.2217747876848
212,644.1581935522182
213,644.1112321226458
214,644.085383175991
215,644.0839042947923
216,644.1085781162781
217,644.1595800172345
218,644.2354348785369
219,644.3330459224755
220,644.4478068124519
221,644.5738363108939
222,644.7043720934064
223,644.8323228714845
224,644.9509290189277
225,645.0544480560366
226,645.1387758146006
227,645.201930687204
228,645.2443463662644
229,645.2689239784453
230,645.2807992099179
231,645.2868092850591
232,645.2947037307124
233,645.3122038385039
234,645.3460439976719
235,645.4011151344837
236,645.4797968231201
237,645.5815360614532
238,645.7027157710318
239,645.8368449403707
240,645.975083362779
241,646.1070822579051
242,646.2220756810422
243,646.310102049161
244,646.3631904437528
245,646.3763344140762
246,646.3481040494432
247,646.2808111936945
248,646.1802312284299
249,646.0549708820856
250,645.9156217855575
251,645.7738398123404
252,645.6414530137449
253,645.5296518129251
254,645.4482790635038
255,645.4052283722008
256,645.405970374031
257,645.4532369508997
258,645.5468877821605
259,645.6839676592875
260,645.858951137621
261,646.0641658682116
262,646.2903735364735
263,646.5274569001841
264,646.7651272829362
265,646.9935607024081
266,647.2039063781522
267,647.388664152179
268,647.5419553015403
269,647.6596965221645
270,647.7396562266301
271,647.7813710636354
272,647.785941177956
273,647.7557670029796
274,647.6942956558671
275,647.6058138468713
276,647.4952907379845
277,647.3682594320431
278,647.2307229659278
279,647.089061548442
280,646.9498980718813
281,646.8198713731092
282,646.7052961967747
283,646.6117428545606
284,646.5436079514911
285,646.5037529789762
286,646.4932764524415
287,646.5114681916662
288,646.5559620939755
289,646.6230561225302
290,646.7081278743128
291,646.8060662321014
292,646.9116656827592
293,647.0199611844624
294,647.1264895638191
295,647.227456882061
296,647.3197986482157
297,647.4011438372069
298,647.4697129095831
299,647.5241847186151
300,647.5635645263889
301,647.587081176613
302,647.594136992974
303,647.5843280314518
304,647.5575376483064
305,647.5140793631176
306,647.4548410023847
307,647.3813805218517
308,647.2959407043177
309,647.2013675896584
310,647.1009338748044
311,646.9980898896059
312,646.8961836490847
313,646.7981968480341
314,646.7065377433179
315,646.6229203229772
316,646.5483418847717
317,646.4831518110237
318,646.4271914961665
319,646.3799793096811
320,646.3409076169855
321,646.3094106389692
322,646.2850605930364
323,646.2675629912313
324,646.2566532396189
325,646.251936629721
326,646.2527375289684
327,646.2580135559305
328,646.2663580212807
329,646.2760817246002
330,646.2853433495554
331,646.2922869941074
332,646.2951481594976
333,646.2923060435706
334,646.2822814373958
335,646.2636930923225
336,646.2351876333016
337,646.1953592076702
338,646.1426861986574
339,646.0755298457661
340,645.9922462525468
341,645.89144514358
342,645.7723883112077
343,645.6354711685694
344,645.4826849113031
345,645.3179292096645
346,645.1470535605451
347,644.9775546053935
348,644.8179335605283
349,644.6767999985303
350,644.5618705522214
351,644.4790338964461
352,644.4316328988801
353,644.4200635172368
354,644.441729470222
355,644.491343554308
356,644.5615368478715
357,644.6437128755513
358,644.7290538998401
359,644.8095578502257
360,644.8789697561069
361,644.9334733098541
362,644.9720260340634
363,644.9962651608121
364,645.0099881097896
365,645.0183037578836
366,645.026620754607
367,645.0396580006797
368,645.0606302950515
369,645.0907080674997
370,645.1288073753221
371,645.1717368096915
372,645.2146862173215
373,645.2519818789528
374,645.2779807726873
375,645.2879582391208
376,645.278857437468
377,645.2497955047755
378,645.2022499936002
379,645.1398935874493
380,645.0681140345209
381,644.9933240340262
382,644.9221955690857
383,644.8609369060866
384,644.814690128082
385,644.7870886724295
386,644.779991403132
387,644.7934011308289
388,644.8255702389329
389,644.8732846748845
390,644.9323000760269
391,644.9978836547677
392,645.0653934294429
393,645.1308079669736
394,645.1911178086368
395,645.2445124406012
396,645.2903411991266
397,645.3288806244188
398,645.3609829650574
399,645.3876918582966
400,645.4098957308828
401,645.4280677863379
402,645.4421228219483
403,645.4513992167666
404,645.4547501727047
405,645.4507181139759
406,645.4377771080153
407,645.4146378929848
408,645.3805925781046
409,645.3358408327158
410,645.2817215995594
411,645.2207908054928
412,645.1567214244105
413,645.0940370104515
414,645.0377147146837
415,644.9927054026549
416,644.9634149504385
417,644.9531821657572
418,644.9637968365749
419,644.9951329930154
420,645.044999084075
421,645.1092885908715
422,645.1824448467062
423,645.2581678975723
424,645.3302318108776
425,645.39326387518
426,645.4433555420637
427,645.4784210467636
428,645.4982835141908
429,645.5045221357537
430,645.500130030786
431,645.489021904814
432,645.4754343099263
433,645.4632940197781
434,645.45565987863
435,645.4543339099189
436,645.4596898312387
437,645.4707120545847
438,645.4852004672972
439,645.5000815692945
440,645.511771820227
441,645.516556882892
442,645.5109668393916
443,645.4921300560524
444,645.4580781470728
445,645.407964075087
446,645.3421593002573
447,645.2622211113245
448,645.1707568252949
449,645.0712303303785
450,644.9677443141205
451,644.8648070609128
452,644.7670817681756
453,644.679121728828
454,644.6051048199494
455,644.5485879502535
456,644.5123027428303
457,644.4980057317504
458,644.5063835721379
459,644.5370050338037
460,644.5883140238333
461,644.657670773256
462,644.7414607462757
463,644.8352908948978
464,644.9342819523425
465,645.033453486042
466,645.12818547312
467,645.2147183178878
468,645.2906241285145
469,645.3551589831992
470,645.4094056664703
471,645.4561527646916
472,645.499523351306
473,645.544428337254
474,645.595938183338
475,645.6586461364567
476,645.7360740086372
477,645.8301697716178
478,645.940955063354
479,646.0663849797979
480,646.202474060503
481,646.343710961617
482,646.4837273564742
483,646.6161220771328
484,646.7352932670864
485,646.8371154390438
486,646.9193268132458
487,646.9815665554172
488,647.0250990420598
489,647.0523430490435
490,647.0663539896892
491,647.070380925147
492,647.0675600858981
493,647.0607447972914
494,647.0524303937934
495,647.0447231239677
496,647.0393216111265
497,647.0375071572089
498,647.0401494002605
499,647.0477200621326
500,647.0602883226478
501,647.0774748377185
502,647.0983775742023
503,647.1215233218477
504,647.144902665277
505,647.1661107796424
506,647.1825775287648
507,647.1918493997026
508,647.1918723231253
509,647.1812126133925
510,647.1591599754184
511,647.1256931740304
512,647.0813387396936
513,647.0269847269682
514,646.963706496842
515,646.892629757663
516,646.8148281009422
517,646.7312475454386
518,646.6426593826926
519,646.5496482630307
520,646.4526458021043
521,646.3520241179518
522,646.2482559635939
523,646.1421202963337
524,646.0349011985065
525,645.9285179281175
526,645.8255412031353
527,645.7290862513222
528,645.6426064020601
529,645.5696187356813
530,645.5133771303601
531,645.4765017983815
532,645.460601685787
533,645.4659680201918
534,645.4914338654731
535,645.5344607128484
536,645.5914363303311
537,645.6580898150844
538,645.72990105049
539,645.8024191131942
540,645.8714742482194
541,645.9333203851004
542,645.984754688845
543,646.023236989179
544,646.0469975935416
545,646.0550945075665
546,646.0473747996872
547,646.0243190337901
548,645.9867920106262
549,645.9357604327543
550,645.8720522394523
551,645.7962261828163
552,645.7085955199217
553,645.6094051942212
554,645.4991144320933
555,645.3787146498095
556,645.2500188455152
557,645.1158653121649
558,644.9801701867201
559,644.8477632273153
560,644.7239794861498
561,644.6140531787023
562,644.5224347782402
563,644.4521911876348
564,644.4046314058675
565,644.379230028473
566,644.3738283566688
567,644.385021812191
568,644.4086200861989
569,644.4400854210857
570,644.4748899077557
571,644.5087697300926
572,644.5378875203091
573,644.5589355337602
574,644.5692157736207
575,644.5667210002566
576,644.5502221453852
577,644.5193551405937
578,644.474699136621
579,644.417838263733
580,644.3513870913179
581,644.2789414181061
582,644.2049110490685
583,644.1342096966891
584,644.0718098645204
585,644.0222031650695
586,643.988833268988
587,643.9735885651579
588,643.9764480340957
589,643.995358731488
590,644.0263867072877
591,644.0641320533424
592,644.1023453058042
593,644.1346440232517
594,644.1552167699464
595,644.1594157674267
596,644.1441721945525
597,644.1082103066562
598,644.0520725547786
599,643.9779837546126
600,643.8895833866226
601,643.7915596628148
602,643.6892289347807
603,643.5881022300878
604,643.4934644948739
605,643.4099841612893
606,643.3413852524346
607,643.29023168984
608,643.2578642106498
609,643.2444935938612
610,643.249414328575
611,643.2712790410817
612,643.3083693481582
613,643.3588098348773
614,643.4206911578185
615,643.4920900874737
616,643.5709987732614
617,643.6551988773297
618,643.7421269318075
619,643.8287731009915
620,643.911650238318
621,643.9868698905881
622,644.0503520360296
623,644.0981637880456
624,644.1269400753002
625,644.1343093371539
626,644.119243192112
627,644.0822660822321
628,644.0254852161348
629,643.9524293248728
630,643.8677249460045
631,643.7766849156459
632,643.6849033155344
633,643.5979218055694
634,643.5209782415955
635,643.4588145834075
636,643.4155197973882
637,643.3943963917991
638,643.397853900032
639,643.4273441479295
640,643.4833491973872
641,643.5654100591271
642,643.6721627756499
643,643.8013480396784
644,643.9497809238055
645,644.1133014205458
646,644.2867640634992
647,644.4641409520136
648,644.6387858914378
649,644.8038524800035
650,644.9528106033933
651,645.0799780626916
652,645.1809742627236
653,645.2530217308647
654,645.2950747975411
655,645.3078090903878
656,645.2935188125919
657,645.2559470109131
658,645.2000548916426
659,645.1317376983984
660,645.0575068295417
661,644.9841640194663
662,644.9184819940393
663,644.8668787482419
664,644.8350504083025
665,644.8275382368861
666,644.847255697262
667,644.8950635060429
668,644.9695111510351
669,645.0668424342799
670,645.1813060413358
671,645.305746285311
672,645.432387827167
673,645.5536809755595
674,645.6630604681784
675,645.7555052920582
676,645.827853812717
677,645.8788853013039
678,645.9091992824967
679,645.9209207334469
680,645.9172609750568
681,645.9019833727824
682,645.8788507229631
683,645.8511474026865
684,645.8213550605674
685,645.7910185946644
686,645.7607959550382
687,645.7306578778596
688,645.7001833847737
689,645.6688777868718
690,645.6364380827814
691,645.602921886621
692,645.5688271364455
693,645.5351250472208
694,645.5032829638643
695,645.4752725965561
696,645.4535147848127
697,645.4407035318678
698,645.4394942242966
699,645.4521057937073
700,645.4799276754164
701,645.5232192446396
702,645.5809598164897
703,645.6508763754053
704,645.7296468119866
705,645.8132399655391
706,645.8973182992451
707,645.977619171659
708,646.0502573760906
709,646.1119344241588
710,646.160067976387
711,646.1928571726025
712,646.2092875126618
713,646.2090691020645
714,646.1925081179104
715,646.160334819407
716,646.1135343409096
717,646.0532278321028
718,645.9806310970775
719,645.8970904832157
720,645.8041698766721
721,645.7037417544534
722,645.5980295412941
723,645.4895659525621
724,645.3810634496214
725,645.2752219521511
726,645.1745191171591
727,645.0810391713011
728,644.996392454784
729,644.921754385476
730,644.8580099361111
731,644.8059375279831
732,644.7663313620185
733,644.7399759919017
734,644.7274523547009
735,644.7288303798842
736,644.7433456522149
737,644.7691538685766
738,644.8032271539998
739,644.8414302911935
740,644.8788012453385
741,644.9100382022709
742,644.9301461006454
743,644.9351353567477
744,644.9226314973207
745,644.8922686831669
746,644.8457956697137
747,644.7868962757931
748,644.7207906021895
749,644.6537109027827
750,644.592325240997
751,644.5431388472017
752,644.5118867798377
753,644.502960012889
754,644.5189446413677
755,644.5603566664927
756,644.6256193451584
757,644.7112833051978
758,644.8124497450234
759,644.9233247938199
760,645.0378124887078
761,645.150056176968
762,645.2548637952598
763,645.3479888554373
764,645.4262772348304
765,645.487723106545
766,645.5314875198887
767,645.5579066235977
768,645.5684722487719
769,645.5657455223459
770,645.553181216477
771,645.5348727962994
772,645.5152431686812
773,645.4987020990882
774,645.4892915004928
775,645.4903536851963
776,645.504267929798
777,645.532292665581
778,645.5745313965128
779,645.6300218010851
780,645.6969293409425
781,645.7728071118042
782,645.8548712342474
783,645.9402463602274
784,646.0261557863209
785,646.1100522767632
786,646.189701753914
787,646.2632423827
788,646.3292450991423
789,646.3867938318238
790,646.4355801178845
791,646.4759736699033
792,646.5090108309088
793,646.5362577168445
794,646.5595477745416
795,646.5806363344093
796,646.6008354173497
797,646.6206913487836
798,646.6397605574213
799,646.6565322194391
800,646.668533702572
801,646.6726302647678
802,646.6654938322047
803,646.6441703529786
804,646.6066366453819
805,646.5522304028369
806,646.4818703529934
807,646.3980405991783
808,646.3045695552398
809,646.2062729071772
810,646.1085403485919
811,646.0169281634389
812,645.9367942297073
813,645.8729966504029
814,645.8296664778587
815,645.810045979742
816,645.8163607716833
817,645.8496867737784
818,645.9097967200353
819,645.9950160155704
820,646.1021507727534
821,646.2265468950145
822,646.3623040675604
823,646.5026252759802
824,646.6402507204865
825,646.7679167298005
826,646.8787938584032
827,646.9668759583799
828,647.02729954009
829,647.0565775703313
830,647.0527462109071
831,647.0154390660807
832,646.9459029779025
833,646.8469511344246
834,646.7228323876286
835,646.578998256193
836,646.4217713676227
837,646.2579452391451
838,646.0943594003985
839,645.9374955404226
840,645.7931385849538
841,645.6661387099691
842,645.5602850779068
843,645.4782665625997
844,645.4216743877109
845,645.3910096430932
846,645.3856842625839
847,645.404028065699
848,645.4433222440794
849,645.4998697591114
850,645.5691035181615
851,645.645743780532
852,645.7240369139695
853,645.7981039673733
854,645.8623879316158
855,645.9121432972715
856,645.9438948626795
857,645.955805770312
858,645.9479140019
859,645.9222074091799
860,645.8825168469358
861,645.834223012828
862,645.7837878417849
863,645.7381314656311
864,645.7038951460191
865,645.6866686170758
866,645.690298337062
867,645.7164023353971
868,645.7641827897445
869,645.8305529912876
870,645.9105113305515
871,645.997652339438
872,646.0847279715038
873,646.1642293282722
874,646.2289996272282
875,646.272890742623
876,646.2914426366921
877,646.2825137561059
878,646.2467480446568
879,646.187758765936
880,646.1119491221101
881,646.0279596782145
882,645.9458086146387
883,645.875849350527
884,645.8276931271847
885,645.8092276451999
886,645.825823471884
887,645.8797872573459
888,645.9701114076364
889,646.0925651003921
890,646.2401371372752
891,646.4037762220488
892,646.5733161482372
893,646.7384496673272
894,646.8896208575188
895,647.0187280547524
896,647.1195635370051
897,647.187964920018
898,647.2217174242288
899,647.2203104958273
900,647.1846826349047
901,647.1170602516562
902,647.0209239648883
903,646.9010567232224
904,646.7635710574518
905,646.6157954159852
906,646.4659358521959
907,646.322510025811
908,646.1936330186928
909,646.0862761671314
910,646.0056141896774
911,645.9545441224003
912,645.9334222809432
913,645.9400344320891
914,645.9697997516324
915,646.0162073310075
916,646.0714710217329
917,646.1273504419329
918,646.1760414842549
