acceleration,velocity,displacement
0.058148070212451504,0.0,0.0
0.0562216733524753,2.85924358912317e-05,7.148108972807925e-09
0.05429891269939579,5.622258240419947e-05,2.8351863546665714e-08
0.05238340300860925,8.289316133120074e-05,6.313079948051577e-08
0.050478716518517784,0.0001086086912129825,1.1100626261656157e-07
0.04858836261343507,0.0001333754609959707,1.7150230066879988e-07
0.04671576849028481,0.0001572014937719007,2.441465393607677e-07
0.044864261038254236,0.00018009650115403546,3.284710380922517e-07
0.043037050083680854,0.00020207182893451924,4.240131206143904e-07
0.041237213099089134,0.00022314039473021174,5.303161765305731e-07
0.03946768142292294,0.00024331661836071475,6.469304298033047e-07
0.03773122799428265,0.00026261634571501615,7.734136708222374e-07
0.03603045658469382,0.0002810567668597603,9.093319489659316e-07
0.03436779250617196,0.0002986563291324767,1.0542602229639908e-06
0.032745474780599346,0.0003154346459541695,1.2077829667356523e-06
0.031165549754765765,0.0003314124020880108,1.3694947287461974e-06
0.02962986612870649,0.00034661125605887883,1.53900064328292e-06
0.02814007133604646,0.0003610537404250671,1.7159168924039064e-06
0.026697609189145148,0.000374763160556365,1.8998711176492645e-06
0.0253037186922013,0.0003877634925267016,2.090502780920031e-06
0.02395943393527126,0.0004000792806835698,2.287463474222599e-06
0.0226655850078426,0.0004117355354193482,2.4904171782483286e-06
0.02142279990422184,0.00042275763164736435,2.699040470015007e-06
0.020231507422417697,0.00043317120847902424,2.913022680046604e-06
0.01909194107460955,0.00044300207060328105,3.1320659998171806e-06
0.01800414403160559,0.00045227609187983484,3.3558855404379596e-06
0.01696797511859385,0.0004610191216673847,3.5842093438247645e-06
0.01598311586026541,0.0004692568944120995,3.816778347844636e-06
0.015049078535069062,0.0004770149430109331,4.053346307200394e-06
0.014165215147356613,0.00048431851643153953,4.293679672061012e-06
0.013330727177760874,0.0004911925020128189,4.537557426672101e-06
0.012544675939965302,0.0004976613527922504,4.784770890373368e-06
0.011805993360413485,0.0005037490201173451,5.0351234836007675e-06
0.011113492999273838,0.000509478891707267,5.28843046155692e-06
0.010465881136476998,0.0005148737352412047,5.544518618294038e-06
0.009861767754703394,0.0005199556474639998,5.803225963970339e-06
0.009299677266922216,0.0005247460087194063,6.064401378016191e-06
0.008778058860628688,0.000529265442751294,6.3279042408838655e-06
0.008295296360941845,0.0005335337815566867,6.593604046960861e-06
0.007849717549255302,0.000537570035034236,6.861380001108592e-06
0.007439602915867984,0.0005413923651505167,7.13112060115478e-06
0.007063193874227689,0.0005450180643480407,7.402723208529419e-06
0.006718700513569189,0.0005484635379449899,7.676093609102677e-06
0.006404309003994696,0.0005517442903243808,7.95114556617002e-06
0.0061181887833575,0.0005548749147712189,8.227800367443919e-06
0.005858499645384275,0.0005578690868784043,8.505986367856324e-06
0.005623398814985105,0.0005607395614934966,8.7856385299493e-06
0.005411048049531292,0.0005634981732096257,9.06669796362508e-06
0.0052196207612302085,0.0005661558404123161,9.349111467030565e-06
0.005047309128755487,0.0005687225728848125,9.632831070354848e-06
0.004892331152647051,0.0005712074829551632,9.917813584314842e-06
0.004752937595809321,0.0005736188001422772,1.0204020155089202e-05
0.004627418732064376,0.0005759638892242456,1.0491415827430833e-05
0.004514110805947857,0.0005782492716087487,1.0779969117639082e-05
0.00441140209119329,0.000580480649833034,1.1069651597999527e-05
0.004317738426732736,0.0005826629349625156,1.1360437494198415e-05
0.0042316281093134085,0.000584800276596527,1.1652303297088175e-05
0.004151646032754333,0.000586896095132044,1.1945227390020318e-05
0.004076436988312816,0.0005889531158873108,1.2239189692775157e-05
0.004004718081373947,0.0005909734046547325,1.2534171322910667e-05
0.0039352802711420335,0.0005929584042428615,1.2830154275135065e-05
0.003866989087151232,0.0005949089715824348,1.312712111909139e-05
0.0037987846040169262,0.0005968254150052268,1.3425054715738306e-05
0.003729680758487091,0.0005987075313458528,1.3723937952326075e-05
0.0036587640776889435,0.0006005546425548969,1.4023753495801263e-05
0.003585191870300123,0.0006023656315418942,1.432448356432546e-05
0.0035081899265262478,0.0006041389769911008,1.4626109716458709e-05
0.0034270497770694914,0.0006058727869169997,1.4928612657435734e-05
0.00334112556447026,0.0006075648307523846,1.5231972061853081e-05
0.0032498305801877086,0.0006092125697885492,1.5536166411988314e-05
0.003152633528481184,0.0006108131858157164,1.584117285088938e-05
0.0030490545991332246,0.00061236360784762,1.6146967049305215e-05
0.0029386614544277983,0.0006138605368610102,1.6453523085482372e-05
0.002821065247230625,0.0006153004685364249,1.676081333683173e-05
0.0026959167836269116,0.0006166797140441392,1.7068808382476874e-05
0.0025629029310128715,0.0006179944189727991,1.737747691573111e-05
0.002421743358813931,0.0006192405805452558,1.7686785665610623e-05
0.002272187690172236,0.0006204140633075024,1.7996699326573814e-05
0.002114013135110798,0.0006215106135138231,1.8307180495779147e-05
0.0019470226547991026,0.0006225258724613005,1.8618189617272927e-05
0.0017710436679345234,0.0006234553890419839,1.8929684932648746e-05
0.0015859272731226148,0.0006242946317772482,1.9241622437853556e-05
0.0013915479463391454,0.0006250390005821137,1.9553955845943395e-05
0.0011878036743015348,0.0006256838384872738,1.9866636555710743e-05
0.0009746164790446611,0.0006262244435256103,2.0179613626213963e-05
0.000751933267330969,0.0006266560809622042,2.0492833757335917e-05
0.0005197269149699389,0.0006269739960077795,2.0806241276578412e-05
0.00027799748711394487,0.0006271734271083004,2.1119778132357433e-05
2.677350219061586e-05,0.0006272496198556265,2.1433383894098415e-05
-0.00023388684309196375,0.0006271978415204012,2.1746995759442422e-05
-0.0005038945667678212,0.0006270133961679363,2.2060548568864506e-05
-0.0007831289891284429,0.0006266916402789622,2.2373974827976232e-05
-0.0010714370800937155,0.0006262279987616566,2.2687204737736386e-05
-0.0013686331166782573,0.0006256179812124637,2.3000166232729916e-05
-0.0016744986962020948,0.0006248571982592436,2.331278502759784e-05
-0.0019887831593857555,0.0006239413777953466,2.362498467161149e-05
-0.002311204483388707,0.0006228663808846529,2.3936686611281488e-05
-0.0026414506896432874,0.0006216282170913949,2.42478102607755e-05
-0.0029791817700881556,0.0006202230589764621,2.4558273079792467e-05
-0.00332403208062572,0.0006186472555137836,2.486799065841503e-05
-0.003675613103575451,0.0006168973442177332,2.517687680834791e-05
-0.004033516454661594,0.0006149700618281739,2.5484843659859386e-05
-0.004397317002865734,0.0006128623534637921,2.5791801763682376e-05
-0.004766575974817192,0.0006105713802193714,2.6097660197103167e-05
-0.005140843925035608,0.0006080945252444082,2.640232667346911e-05
-0.0055196634679931566,0.000605429398396151,2.670570765437925e-05
-0.005902571686476387,0.0006025738396075337,2.7007708463880173e-05
-0.006289102153998539,0.0005995259211474149,2.730823340406891e-05
-0.006678786538873104,0.000596283948974197,2.7607185871599313e-05
-0.007071155791746556,0.0005928464633915421,2.7904468474690748e-05
-0.007465740951106354,0.0005892122392058288,2.819998315034009e-05
-0.007862073627646519,0.0005853802855611406,2.8493631281531833e-05
-0.008259686243986451,0.0005813498455932324,2.8785313814320426e-05
-0.008658112108682182,0.0005771203960050652,2.907493137472e-05
-0.00905688539436317,0.0005726916466293039,2.9362384385378593e-05
-0.009455541070132292,0.0005680635400131801,2.9647573182039215e-05
-0.009853614808643682,0.0005632362510434861,2.9930398129803383e-05
-0.010250642857422235,0.0005582101866269696,3.0210759739220998e-05
-0.010646161845273885,0.0005529859854512955,3.0488558782240565e-05
-0.01103970849409427,0.0005475645178664534,3.076369640807e-05
-0.011430819220017048,0.0005419468859379256,3.10360742590211e-05
-0.011819029628408938,0.0005361344237258191,3.130559458643703e-05
-0.012203873923700231,0.0005301286978377918,3.157216036682793e-05
-0.012584884257141871,0.0005239315082925813,3.1835675418360526e-05
-0.012961590023646488,0.0005175448897223842,3.209604451786427e-05
-0.013333517103668013,0.0005109711129405556,3.235317351853e-05
-0.013700187036474064,0.0005042126869055201,3.260696946849152e-05
-0.01406111611006601,0.000497272361118885,3.285734073049762e-05
-0.014415814359357786,0.0004901531285015291,3.3104197102902725e-05
-0.014763784473040458,0.00048285822879342953,3.3347449942226466e-05
-0.015104520616769633,0.000475391152520977,3.358701228755507e-05
-0.015437507186940633,0.00046775564557004944,3.382279898707783e-05
-0.015762217519589054,0.000459955714393417,3.4054726827068695e-05
-0.01607811259496812,0.0004519956318647777,3.4282714663633246e-05
-0.016384639798382766,0.00044387994376644,3.450668355754105e-05
-0.016681231816953128,0.000435613475862606,3.472655691244831e-05
-0.016967305764978284,0.0004272013414671231,3.4942260616780745e-05
-0.01724226263279404,0.00041864894936768004,3.515372318948945e-05
-0.017505487144109478,0.0004099620119234542,3.536087592981223e-05
-0.01775634809022316,0.00040114655311487103,3.5563653071071815e-05
-0.017994199194911773,0.0003922089162935873,3.576199193842393e-05
-0.01821838055034031,0.00038315577135727426,3.595583311033664e-05
-0.018428220643476812,0.00037399412105882,3.614512058344067e-05
-0.018623038966175485,0.0003647313061564069,3.632980194024447e-05
-0.018802149185892195,0.00035537500911838997,3.650982851906317e-05
-0.018964862859380028,0.0003459332561070719,3.668515558536954e-05
-0.019110493690858366,0.0003364144169695123,3.6855742503638684e-05
-0.019238362348376985,0.0003268272029597035,3.702155290862099e-05
-0.019347801842404127,0.0003171806619120082,3.718255487483892e-05
-0.019438163439528658,0.00030748417059152497,3.73387210829648e-05
-0.01950882304312883,0.0002977474239708606,3.74900289816054e-05
-0.019559187934931884,0.00028798042122634543,3.76364609429047e-05
-0.019588703747345816,0.000278193448305776,3.777800441028773e-05
-0.01959686153356967,0.0002683970569855471,3.791465203661056e-05
-0.019583204818598907,0.000258602040397505,3.804640181095632e-05
-0.01954733653391709,0.00024881940505937596,3.8173257172320544e-05
-0.019488925746020576,0.00023906033948939155,3.829522710845774e-05
-0.019407714083894616,0.00022933617953191276,3.8412326238213064e-05
-0.019303521764413807,0.00021965837056983566,3.8524574875738503e-05
-0.01917625311445169,0.00021003842685011928,3.863199907509349e-05
-0.01902590149378836,0.00020048788819805927,3.873463065385554e-05
-0.018852553529673605,0.0001910182744421938,3.8832507194515604e-05
-0.018656392579544098,0.00018164103791488937,3.892567202260487e-05
-0.018437701344565485,0.00017236751443386198,3.901417416069206e-05
-0.018196863567684386,0.0001632088732057995,3.909806825760198e-05
-0.017934364767758715,0.00015417606612193872,3.9177414492433914e-05
-0.017650791984415503,0.00014527977693389515,3.9252278453197874e-05
-0.017346832534384037,0.00013653037080419526,3.93227309901324e-05
-0.017023271804409896,0.00012793784471949678,3.938884804401332e-05
-0.016680990118050736,0.00011951177923888162,3.9450710450002915e-05
-0.016320958707707205,0.00011126129203244214,3.9508403717820745e-05
-0.01594423480903675,0.00010319499365325615,3.956201778924217e-05
-0.015551955889824979,9.532094597854073e-05,3.961164677415012e-05
-0.015145333036303582,8.764662374700859e-05,3.965738866658151e-05
-0.014725643542859967,8.01788796022177e-05,3.969934504241881e-05
-0.014294222779617753,7.292391302159827e-05,3.973762074057477e-05
-0.01385245543606718,6.588724346767704e-05,3.977232352969709e-05
-0.013401766245356174,5.90736880473212e-05,3.980356376257584e-05
-0.012943610281639173,5.2487343915572365e-05,3.9831454020566564e-05
-0.012479462906958921,4.613157561842284e-05,3.9856108750450064e-05
-0.012010809438354503,4.0009007532094485e-05,3.987764389623769e-05
-0.01153913460909859,3.412152152023121e-05,3.989617652850077e-05
-0.011065911904841871,2.8470259891746094e-05,3.991182447385377e-05
-0.01059259286933166,2.305563369820271e-05,3.992470594725126e-05
-0.01012059649967544,1.7877336355950933e-05,3.99349391897648e-05
-0.009651298879703039,1.2934362511106313e-05,3.9942642114481566e-05
-0.009186023216080754,8.225031987160364e-06,3.994793196310613e-05
-0.008726030437777275,3.7470185736958564e-06,3.995092497574634e-05
-0.008272510498984812,-5.026166604946655e-07,3.995173607622464e-05
-0.007826574497618668,-4.527387909645536e-06,3.9950478575082106e-05
-0.007389247691811809,-8.331343457003156e-06,3.9947263892240446e-05
-0.0069614634660641805,-1.1919021246472154e-05,3.9942201301064574e-05
-0.006544058267044625,-1.5295401679749356e-05,3.993539769533302e-05
-0.006137767501369467,-1.846585812185288e-05,3.992695738038262e-05
-0.005743222371800848,-2.143610559014546e-05,3.9916981889454626e-05
-0.005360947628193473,-2.421214809014404e-05,3.9905569826034555e-05
-0.0049913602190249555,-2.680022505194865e-05,3.989281673274903e-05
-0.004634768834936916,-2.9206757315439117e-05,3.987881498715718e-05
-0.004291374329572458,-3.143829310656646e-05,3.986365372455168e-05
-0.003961270991801464,-3.350145443690994e-05,3.984741878766581e-05
-0.00364444863951674,-3.540288434473949e-05,3.983019270297039e-05
-0.0033407955102570403,-3.714919538218294e-05,3.981205468303866e-05
-0.003050101927259593,-3.87469197415621e-05,3.9793080654257724e-05
-0.002772064711809596,-4.0202461401329394e-05,3.9773343308972e-05
-0.002506292294836148,-4.152205065299083e-05,3.975291218095842e-05
-0.0022523104592209187,-4.271170134150509e-05,3.9731853742959794e-05
-0.0020095686246230787,-4.377717111246609e-05,3.97102315248463e-05
-0.0017774465749415566,-4.472392491235725e-05,3.96881062508401e-05
-0.001555261531606485,-4.5557101938994265e-05,3.966553599412726e-05
-0.0013422754927431653,-4.628148619508168e-05,3.9642576347093746e-05
-0.0011377027779718733,-4.690148076276044e-05,3.961928060535429e-05
-0.0009407177340710393,-4.7421085890771165e-05,3.959569996369091e-05
-0.000750462570436447,-4.784388096689804e-05,3.957188372197649e-05
-0.0005660553100020673,-4.817301043700767e-05,3.954787949912551e-05
-0.00038659786008261323,-4.841117372952884e-05,3.952373345308388e-05
-0.00021118422174023075,-4.856061924998455e-05,3.9499490504839e-05
-3.890885617966711e-05,-4.8623142519464524e-05,3.9475194564396635e-05
0.00013112478928033587,-4.8600088536189355e-05,3.945088875663272e-05
0.00029979561614149015,-4.84923584348339e-05,3.9426615644889965e-05
0.00046795611493622477,-4.830042050206447e-05,3.940241745015574e-05
0.0006364235837381982,-4.802432557739587e-05,3.9378336263635875e-05
0.0008059714334248241,-4.7663726823105114e-05,3.9354414250535746e-05
0.0009773207209026198,-4.721790378452325e-05,3.933069384288384e-05
0.0011511320713548919,-4.668579058645887e-05,3.9307217919291094e-05
0.0013279981567679879,-4.606600802942815e-05,3.928402996963712e-05
0.0015084368941288492,-4.535689926670394e-05,3.926117424281309e-05
0.0016928855154944992,-4.45565686642981e-05,3.923869587583034e-05
0.0018816956462204095,-4.3662923373869373e-05,3.92166410028208e-05
0.0020751295070136925,-4.267371708556085e-05,3.9195056842705944e-05
0.0022733573303306037,-4.158659537622477e-05,3.9173991764590495e-05
0.002476456059987129,-4.039914202864534e-05,3.915349533023928e-05
0.0026844093911301665,-3.910892566586601e-05,3.913361831331565e-05
0.0028971091950618674,-3.7713546019318006e-05,3.911441269539435e-05
0.0031143583388608923,-3.6210679135837316e-05,3.909593163910556e-05
0.003335874850110385,-3.45981208385945e-05,3.907822943911195e-05
0.0035612973130526027,-3.287382779780375e-05,3.906136145195285e-05
0.003790191336356991,-3.103595563545135e-05,3.904538400609454e-05
0.004022056910508584,-2.9082893573734955e-05,3.903035429379224e-05
0.004256336470682476,-2.701329522843719e-05,3.90163302465917e-05
0.004492423494450456,-2.4826105237153958e-05,3.90033703964753e-05
0.004729671487643697,-2.252058149163042e-05,3.89915337247931e-05
0.004967403235544503,-2.0096312810833367e-05,3.898087950121748e-05
0.0052049202048281016,-1.7553231950740217e-05,3.897146711502709e-05
0.005441511965189676,-1.4891623908235771e-05,3.8963355901062344e-05
0.0056764654673456625,-1.2112129550101937e-05,3.895660496269776e-05
0.0059090739873581995,-9.215744686425972e-06,3.895127299413863e-05
0.006138645538987758,-6.203814804839483e-06,3.8947418104265814e-05
0.006364510560674234,-3.078025779923985e-06,3.8945097644119624e-05
0.006586028693833538,1.5960903370295833e-07,3.894436803993307e-05
0.006802594492625841,3.506764830317803e-06,3.894528463339907e-05
0.007013641956163447,6.960823942515125e-06,3.894790153059228e-05
0.007218647845859496,1.0518896393020861e-05,3.8952271460676165e-05
0.007417133817303385,1.4177841808811582e-05,3.895844564522662e-05
0.007608667442043023,1.7934292123648183e-05,3.896647367870974e-05
0.007792862228267125,2.178467454122572e-05,3.8976403420375957e-05
0.007969376780766792,2.57252342934842e-05,3.898828089758463e-05
0.00813791326260887,2.9752056804328113e-05,3.9002150220359085e-05
0.008298215322459312,3.386108895059516e-05,3.901805350679781e-05
0.008450065637916363,3.804815919068908e-05,3.903603081883313e-05
0.008593283213727064,4.230899640359994e-05,3.90561201077317e-05
0.008727720575605493,4.6639247350933076e-05,3.907835716867034e-05
0.008853261010351715,5.103449274742238e-05,3.910277560369493e-05
0.00896981600101311,5.5490262000263585e-05,3.912940679238185e-05
0.009077322973963516,6.000204674400774e-05,3.915827986956792e-05
0.009175743419477186,6.456531334236791e-05,3.918942170958951e-05
0.00926506139635011,6.917551454632474e-05,3.922285691656169e-05
0.009345282406234367,7.382810049697086e-05,3.925860782032251e-05
0.009416432620145469,7.851852925356583e-05,3.929669447776015e-05
0.009478558436801636,8.32422770178026e-05,3.933713467932799e-05
0.009531726336924295,8.799484821123409e-05,3.9379943960635254e-05
0.009576022976746626,9.277178553965182e-05,3.9425135619072975e-05
0.009611555454151679,9.75686801473764e-05,3.9472720735494734e-05
0.009638451685640427,0.00010238118193232444,3.952270820101466e-05
0.009656860838551344,0.00010720501006337238,3.957510474901359e-05
0.009666953759242808,0.00011203596371282091,3.962991499245764e-05
0.009668923331771339,0.00011686993298557445,3.968714146663224e-05
0.009662984708353129,0.00012170290999560557,3.974678467737753e-05
0.009649375372628596,0.000126531000015851,3.9808843154880396e-05
0.009628355014338707,0.00013135043261259282,3.987331351303751e-05
0.009600205201379036,0.00013615757266652225,3.994019051435729e-05
0.0095652288432657,0.00014094893117768344,4.000946714031834e-05
0.009523749461291477,0.00014572117575382273,4.008113466705122e-05
0.009476110309210852,0.0001504711406964483,4.015518274616379e-05
0.009422673405961509,0.0001551958366252414,4.023159949049421e-05
0.009363818539866195,0.00015989245961169833,4.031037156455344e-05
0.009299942286012575,0.00016455839981816803,4.039148427941091e-05
0.00923145705126396,0.00016919124965248717,4.0474921691778576e-05
0.009158790130010593,0.0001737888114478058,4.056066670705365e-05
0.009082382725543764,0.0001783491046616944,4.064870118608103e-05
0.009002688870919684,0.00018287037256081026,4.073900605538665e-05
0.00892017416896009,0.0001873510883207802,4.083156142060705e-05
0.00883531426687476,0.00019178996042973893,4.0926346682794676e-05
0.008748592994171148,0.0001961859372450004,4.102334065721336e-05
0.008660500122202567,0.00020053821052409381,4.112252169415563e-05
0.008571528737401154,0.00020484621773899473,4.122386780122141e-05
0.008482172245012338,0.0002091096429845981,4.132735676640231e-05
0.0083929210320997,0.0002133284163038761,4.143296628122443e-05
0.008304258822131828,0.00021750271126743398,4.154067406311725e-05
0.008216658757183248,0.00022163294066226275,4.165045797609967e-05
0.008130579254965463,0.00022571975016529993,4.1762296148806566e-05
0.008046459707064255,0.00022976400990580735,4.187616708882434e-05
0.007964716104769582,0.00023376680385876582,4.1992049792265485e-05
