frame_number,force
0,647.6884100000871
1,647.8122201657955
2,647.9361267944199
3,648.0596645449245
4,648.181380480917
5,648.2986448469976
6,648.4077408976657
7,648.5042159189072
8,648.5834253288655
9,648.6411636308035
10,648.674257837838
11,648.6810146951215
12,648.6614616266276
13,648.6173784751162
14,648.5521535179964
15,648.4705051518973
16,648.3781081154206
17,648.2811668165978
18,648.1859793684564
19,648.0985175794423
20,648.0240209442429
21,647.966599613994
22,647.9288754036616
23,647.9117336630403
24,647.9142717698589
25,647.9339963059267
26,647.9672558104706
27,648.009826867941
28,648.0575252719391
29,648.1067107931709
30,648.1545932920674
31,648.1993065033497
32,648.2397654798374
33,648.2753527637676
34,648.3054977487811
35,648.3292363328127
36,648.3448566872618
37,648.34973410778
38,648.3404259181855
39,648.3130401057465
40,648.2638212385546
41,648.1898372561326
42,648.0896239785759
43,647.9636571878539
44,647.8145631985618
45,647.6470292411848
46,647.4674210993926
47,647.2831558408908
48,647.1019171054838
49,646.9308354925356
50,646.7757735018469
51,646.6408426600053
52,646.528236039653
53,646.4383861233931
54,646.3703766652006
55,646.3224791664635
56,646.2926669406231
57,646.2789800016428
58,646.2796647264063
59,646.2930813353842
60,646.3174369866352
61,646.350445343771
62,646.3890354810599
63,646.4292316753242
64,646.4662827009298
65,646.4950315289938
66,646.5104236292099
67,646.5080102492882
68,646.4843331970297
69,646.4371512532746
70,646.365537730703
71,646.2699140232382
72,646.1520802660172
73,646.0152657948777
74,645.8641618082015
75,645.7048515786918
76,645.5445620205542
77,645.3912264075085
78,645.2529171639211
79,645.1372234225466
80,645.0506155970705
81,644.9978144818874
82,644.9812042088047
83,645.0003800774678
84,645.0519533765539
85,645.1297069165369
86,645.2251114526432
87,645.3281186818934
88,645.4280880671059
89,645.514699953357
90,645.5787444495626
91,645.6127292439216
92,645.6112955763332
93,645.5714571463275
94,645.4926832870875
95,645.3768423634295
96,645.2280084595544
97,645.0521201638704
98,644.8564784594683
99,644.6490937994953
100,644.4379356402876
101,644.2301796085189
102,644.0315696078549
103,643.8460114872132
104,643.6754926653027
105,643.5203715193811
106,643.3799969275863
107,643.2535211423019
108,643.1407024432883
109,643.0424959661387
110,642.9612980469333
111,642.9008020193656
112,642.8655053766009
113,642.8599648889751
114,642.8879258830676
115,642.9514591383987
116,643.050232834333
117,643.1810330959959
118,643.337621132704
119,643.5109723892152
120,643.6898874843821
121,643.8619066384326
122,644.0144084689574
123,644.1357400838051
124,644.216218143529
125,644.2488668659654
126,644.2298209448043
127,644.1584055716985
128,644.0369739965031
129,643.8705964559174
130,643.6666533478823
131,643.4343338747411
132,643.1840250785858
133,642.9266038910682
134,642.6726876281776
135,642.4319210352265
136,642.2123664723117
137,642.0200308453088
138,641.8585358616812
139,641.7289365912677
140,641.6297098262322
141,641.5569422889844
142,641.5047337899728
143,641.4657986513591
144,641.4322114859518
145,641.3962069736742
146,641.3509214789964
147,641.2909770252971
148,641.2128538577625
149,641.1150481198472
150,640.998041130479
151,640.864115458258
152,640.717052840381
153,640.5617506463062
154,640.4038002039587
155,640.2490759094815
156,640.1033776960758
157,639.9721469112955
158,639.860248849637
159,639.7718024444983
160,639.710041341679
161,639.6771978247476
162,639.6744059997321
163,639.7016270534414
164,639.757604575342
165,639.8398529116091
166,639.9446678472699
167,640.067145321597
168,640.2012170460083
169,640.3397505965871
170,640.4747819833289
171,640.5979267025588
172,640.7009572868241
173,640.7764729823514
174,640.8185548178946
175,640.8233095926271
176,640.7892411789765
177,640.7174166499677
178,640.6114061896432
179,640.4769842753166
180,640.3216045040299
181,640.1537027110004
182,639.9819228309146
183,639.8143727289341
184,639.6579950499533
185,639.5180957477173
186,639.3980357717927
187,639.2990782588155
188,639.2203940538091
189,639.1592442987866
190,639.1113606834812
191,639.071524818707
192,639.0343112663047
193,638.9949096129161
194,638.9498920275009
195,638.8977693999728
196,638.8392057908192
197,638.7768377127517
198,638.7147440356543
199,638.657696014746
200,638.6103570014707
201,638.5765929175009
202,638.559013380153
203,638.5588066684295
204,638.5758680598989
205,638.609160956238
206,638.6572091490787
207,638.7186030943049
208,638.7924079621131
209,638.8783846387859
210,638.976980356335
211,639.0891033961343
212,639.2157405635833
213,639.3574928943048
214,639.5141061402867
215,639.684072169316
216,639.8643727672353
217,640.0504212147483
218,640.2362321000627
219,640.4148222723122
220,640.5788153030468
221,640.7211859235684
222,640.8360456626762
223,640.9193504632301
224,640.9694162585408
225,640.9871596620868
226,640.9760311102605
227,640.9416650061803
228,640.8913171340967
229,640.8331773363662
230,640.7756363196183
231,640.7265681961096
232,640.6926821537891
233,640.6789990018634
234,640.6885109674549
235,640.7220734346454
236,640.7785477119847
237,640.855170122699
238,640.9480821592208
239,641.0529312234642
240,641.1654419028284
241,641.2818654852605
242,641.3992465187941
243,641.5154947853536
244,641.6292980218902
245,641.73993368083
246,641.8470334882815
247,641.9503387716898
248,642.0494758827327
249,642.1437810638979
250,642.2322000293866
251,642.3132709591914
252,642.3851760519209
253,642.4458303968595
254,642.4929801392788
255,642.5243038930896
256,642.5375334171517
257,642.5306092867801
258,642.5018626980967
259,642.4501900715659
260,642.3751881918656
261,642.2772413137417
262,642.1575709679222
263,642.018256068437
264,641.8622162331936
265,641.6931473728424
266,641.515407764764
267,641.333855434689
268,641.1536268127435
269,640.9798458146395
270,640.8172826329204
271,640.6700254810089
272,640.5412468786326
273,640.4331174617124
274,640.3468576532074
275,640.2828575527595
276,640.2407759915516
277,640.2195642591098
278,640.2174261023908
279,640.2317786748296
280,640.2592833011579
281,640.2959720842695
282,640.3374452432689
283,640.379092152512
284,640.4162999413599
285,640.4446367004049
286,640.4600157173334
287,640.4588588193133
288,640.4382789631278
289,640.3962911350554
290,640.3320370646334
291,640.2459822773495
292,640.1400298050148
293,640.017507427564
294,639.8830197376652
295,639.7421870855558
296,639.601301352318
297,639.4669227149036
298,639.3454434111165
299,639.2426562007746
300,639.1633683407953
301,639.1110863238222
302,639.0877770897645
303,639.0937078171792
304,639.1273800882818
305,639.1855900010004
306,639.2636441480441
307,639.3557302288976
308,639.4553903884319
309,639.5560064622364
310,639.6512084306131
311,639.7351643394926
312,639.8027741487268
313,639.8498309736699
314,639.873209265047
315,639.8710991617087
316,639.8432530348925
317,639.79116749141
318,639.7181101600885
319,639.6289244087448
320,639.529601107527
321,639.4266731523473
322,639.3265370897228
323,639.2348193043961
324,639.155884752141
325,639.0925470751079
326,639.0459915489855
327,639.0158803746342
328,639.0005896127809
329,638.9975305701698
330,639.0035181838081
331,639.0151507950768
332,639.0291659250998
333,639.0427475115368
334,639.0537774132466
335,639.0610307026
336,639.0643059313204
337,639.0644744976524
338,639.063439739791
339,639.0640093508742
340,639.0696922558988
341,639.0844278683995
342,639.1122445540117
343,639.1568407563889
344,639.2211043108626
345,639.3066285775894
346,639.4133181087425
347,639.5391734914725
348,639.6803059969773
349,639.8311806827096
350,639.9850406904172
351,640.1344385809488
352,640.2718045487513
353,640.3900098611834
354,640.4829068067535
355,640.5458220520338
356,640.5759591023694
357,640.5726537557173
358,640.5374398696904
359,640.4739197072054
360,640.3874761941519
361,640.2848871348768
362,640.1738902377376
363,640.0627196304569
364,639.9596178530268
365,639.8723304641162
366,639.8076020082755
367,639.7707015326358
368,639.7650119471662
369,639.7917251910977
370,639.8496950532831
371,639.9354991760906
372,640.0437369965825
373,640.1675460052332
374,640.2992773971986
375,640.4312507783629
376,640.5565028522665
377,640.6694481915987
378,640.7663854853954
379,640.8458145556414
380,640.9085624926594
381,640.957730567326
382,640.9984639570963
383,641.0375253790584
384,641.0826434049907
385,641.1416369581355
386,641.2213969682311
387,641.326890444657
388,641.460379915866
389,641.6210066582171
390,641.8048060866187
391,642.0051474797006
392,642.2135274758587
393,642.420592642034
394,642.6172291472984
395,642.7955567180243
396,642.9497019844721
397,643.076279712419
398,643.1745587018472
399,643.2463324853254
400,643.2955547273025
401,643.3278210506392
402,643.3497689992895
403,643.3684362770263
404,643.3905946918902
405,643.4220849337304
406,643.4672077650926
407,643.52825257198
408,643.6052408874779
409,643.6959278914684
410,643.7960583860239
411,643.8998400280458
412,644.0005803835866
413,644.0914171698807
414,644.1660423146863
415,644.2193020988755
416,644.2475807111985
417,644.248945214948
418,644.2231076377257
419,644.1712975371989
420,644.0961187311685
421,644.0014089549292
422,643.892072512585
423,643.7738460621606
424,643.6529858050638
425,643.5358963064655
426,643.4287290350038
427,643.3369745652805
428,643.2650810027783
429,643.2161458842492
430,643.1917233786606
431,643.19175905163
432,643.214633491075
433,643.2572846988187
434,643.3153899166865
435,643.3836108104459
436,643.4559272556472
437,643.5260856023339
438,643.5881543507128
439,643.6371255131612
440,643.6694568476854
441,643.6834444980301
442,643.6793474672451
443,643.6592378229623
444,643.6266058491316
445,643.5857941723041
446,643.5413588821522
447,643.4974557767763
448,643.4573341084905
449,643.4229994357331
450,643.395084480936
451,643.372939248756
452,643.3549182100988
453,643.3388068267506
454,643.322300060161
455,643.3034361664189
456,643.2809117500638
457,643.2542473984738
458,643.223809438966
459,643.190713144182
460,643.1566479527442
461,643.123675993345
462,643.0940470037317
463,643.0700453938152
464,643.053856659145
465,643.0474266892408
466,643.0522929011939
467,643.0693851953569
468,643.0988174547817
469,643.1397078408934
470,643.1900744661954
471,643.2468510527241
472,643.3060530927753
473,643.3630982387166
474,643.4132504110303
475,643.4521241282578
476,643.4761613883878
477,643.4829871923441
478,643.4715720348871
479,643.4421782947254
480,643.3961187620162
481,643.3353847296207
482,643.2622093022769
483,643.178636375967
484,643.0861713904083
485,642.985586688729
486,642.8769355525178
487,642.7597925402296
488,642.6336836863524
489,642.4986093777939
490,642.3555192148956
491,642.206595360011
492,642.0552453487431
493,641.9057820817771
494,641.7628522501986
495,641.6307403624436
496,641.5127009476407
497,641.4104428048124
498,641.3238242772437
499,641.2507634756515
500,641.1873517128649
501,641.1281671194246
502,641.0667858875132
503,640.9964695671993
504,640.910977967812
505,640.8054243728809
506,640.6770526167334
507,640.5257873697456
508,640.354418216442
509,640.1683443157871
510,639.9749179770496
511,639.7825356088034
512,639.5996754688415
513,639.4340520743121
514,639.2919838508913
515,639.1780089053129
516,639.0947506497068
517,639.0430087140154
518,639.0220200221042
519,639.0298163759571
520,639.063607978105
521,639.1201346904195
522,639.1959384029664
523,639.287525152356
524,639.3914084995711
525,639.5040504265452
526,639.6217381037528
527,639.7404545324173
528,639.8558101360594
529,639.9630894584981
530,640.0574374320972
531,640.1341768091315
532,640.1892163445814
533,640.2194809024675
534,640.2232783017284
535,640.2005187014056
536,640.1527240632829
537,640.0828116573825
538,639.9946958134636
539,639.8927960997901
540,639.7815443246644
541,639.664955794658
542,639.546305309455
543,639.4279474429418
544,639.3113304408708
545,639.1972411450669
546,639.0862672547877
547,638.9793862671648
548,638.8785244114488
549,638.7869119983533
550,638.7091075879091
551,638.6506536735607
552,638.6174253468095
553,638.6148053880036
554,638.6468441267853
555,638.7155463505329
556,638.820394150896
557,638.9581799106682
558,639.1231872343856
559,639.3077145246608
560,639.5028867110796
561,639.6996520480428
562,639.8898229097831
563,640.0670033153609
564,640.2272590814899
565,640.3694267780854
566,640.4950161281414
567,640.6077298231388
568,640.7126957342929
569,640.8155589943248
570,640.9215921543213
571,641.0349479877435
572,641.1581279923496
573,641.2917016898156
574,641.4342942813457
575,641.5828458943695
576,641.7331183352254
577,641.8803855031657
578,642.0202044718353
579,642.1491416832528
580,642.2653327253279
581,642.3687825343312
582,642.4613579040355
583,642.546481846754
584,642.6285996693123
585,642.7125254472606
586,642.8027767062638
587,642.9029756969451
588,643.0153688702593
589,643.1405120137551
590,643.2771770079282
591,643.4225273523276
592,643.5725628761659
593,643.722760675051
594,643.8687766731415
595,644.0070559568429
596,644.1352392167727
597,644.2523241584169
598,644.3586060556908
599,644.4554537941126
600,644.5449769240307
601,644.6296264929265
602,644.7117683239517
603,644.7932736907734
604,644.8751769732763
605,644.9574454851758
606,645.038893688613
607,645.1172533508503
608,645.1893860368493
609,645.2516026746949
610,645.3000432260409
611,645.3310687463335
612,645.3416265013075
613,645.3295617198271
614,645.2938589283418
615,645.2347968941914
616,645.1539994286504
617,645.0543695758676
618,644.9399100061626
619,644.8154501486982
620,644.6863089874681
621,644.5579187547269
622,644.4354316571647
623,644.3233410276704
624,644.2251624526649
625,644.1432235920313
626,644.0785987357126
627,644.031200420818
628,644.0000116887726
629,643.983414291288
630,643.9795451800926
631,643.9866024505105
632,644.0030309336438
633,644.0275486624971
634,644.0590192717709
635,644.096220040353
636,644.1375921613281
637,644.1810773178931
638,644.2241259499492
639,644.263902430568
640,644.2976336058043
641,644.3229918649157
642,644.3384020095613
643,644.3432053245815
644,644.3376690418728
645,644.3228661406057
646,644.3004660719265
647,644.2724829606221
648,644.2410326223368
649,644.2081490412025
650,644.1756902390316
651,644.1453208817645
652,644.1185213441904
653,644.0965699776268
654,644.0804749698412
655,644.0708682879031
656,644.0678960809817
657,644.071141854249
658,644.0796059504928
659,644.0917515079122
660,644.1056228273325
661,644.119036740497
662,644.1298275477666
663,644.136101604748
664,644.1364478527672
665,644.1300573270315
666,644.1167255944741
667,644.0967500513847
668,644.0707729878235
669,644.0396296959777
670,644.004232766237
671,643.965488171047
672,643.9242267571566
673,643.881152544941
674,643.8368344498992
675,643.7917680313323
676,643.7465011854432
677,643.7017803938785
678,643.6586590790637
679,643.6185161698106
680,643.5829534691121
681,643.5535766986675
682,643.5317105194565
683,643.5181281062495
684,643.5128720940048
685,643.5152109459715
686,643.523733179789
687,643.5365502726444
688,643.5515663166126
689,643.5667741832345
690,643.5805403386034
691,643.5918345383164
692,643.600353781115
693,643.6064990184311
694,643.6111962710179
695,643.615599662695
696,643.620746583896
697,643.6272350497397
698,643.6349682986418
699,643.6429888582737
700,643.6494181776769
701,643.6515198587238
702,643.6459013977402
703,643.6288580152931
704,643.5968430429688
705,643.5470194397211
706,643.477809687684
707,643.3893333814924
708,643.283621937835
709,643.164535534719
710,643.0373696950481
711,642.9082057257956
712,642.7831120839174
713,642.6673349367318
714,642.564616660715
715,642.4767467026519
716,642.4033978238188
717,642.3422556398014
718,642.2894160864878
719,642.2399977189285
720,642.188888844399
721,642.1315249958501
722,642.064579219679
723,641.9864563328052
724,641.8975171265522
725,641.8000141280405
726,641.6977770882135
727,641.5957192861026
728,641.4992388232469
729,641.4135771740335
730,641.3431877300482
731,641.2911684267758
732,641.2588224928322
733,641.2454169789779
734,641.2481943292793
735,641.262653206925
736,641.2830625248162
737,641.3031258452742
738,641.3166873534495
739,641.318372866938
740,641.304085737426
741,641.2713140253269
742,641.2192403126949
743,641.1486765628694
744,641.0618710456364
745,640.9622439745932
746,640.8540974435066
747,640.742318473113
748,640.6320675423597
749,640.5284395015076
750,640.436104760256
751,640.3589645564551
752,640.2998590239773
753,640.2603505724029
754,640.2405888540433
755,640.2392627388755
756,640.2536573649188
757,640.2798464233705
758,640.3130419709258
759,640.3480884406902
760,640.3800448339266
761,640.404778158387
762,640.4194936839916
763,640.4231351841155
764,640.416596324057
765,640.4027052083312
766,640.3859811399337
767,640.3721994664588
768,640.3678205694365
769,640.3793434284389
770,640.4126447996673
771,640.4723699701751
772,640.561445976998
773,640.6807812446259
774,640.8291896638964
775,641.0035355118508
776,641.1990514652942
777,641.4097548328049
778,641.6288901747619
779,641.8493535096486
780,642.0640844133037
781,642.2664317758675
782,642.4505030794699
783,642.611499007116
784,642.7460193025886
785,642.8523049322325
786,642.9303612550458
787,642.9819049697973
788,643.0101146991069
789,643.0192317847456
790,643.014109570256
791,642.9998092169394
792,642.9812933380108
793,642.9632100530022
794,642.9497222081663
795,642.9443325050562
796,642.9496755358139
797,642.9672747092566
798,642.9972909880674
799,643.0383243213171
800,643.0873547244768
801,643.1399009760642
802,643.1904210124625
803,643.2329026847143
804,643.2615357144604
805,643.2713457589945
806,643.2587116674697
807,643.2217420087579
808,643.1605107284447
809,643.0771373734741
810,642.9756824292399
811,642.8618441335311
812,642.742480676022
813,642.6250153690088
814,642.5168001357561
815,642.4245139069408
816,642.3536585368763
817,642.3081896258562
818,642.2902900973809
819,642.3002712968452
820,642.3365837248925
821,642.3959377098724
822,642.473550555211
823,642.5635308196225
824,642.6593859676044
825,642.7546085110447
826,642.8432678470074
827,642.9205253123706
828,642.9830058247957
829,643.0289860930582
830,643.058383176364
831,643.0725563969105
832,643.0739750990107
833,643.0658342170158
834,643.0516998962186
835,643.0352450133996
836,643.0201025425278
837,643.0098244571013
838,643.0078899136198
839,643.0176789171675
840,643.0423354455274
841,643.0844881531914
842,643.1458603043994
843,643.2268547649761
844,643.3262189520452
845,643.4408752789269
846,643.5659615009348
847,643.6950779089716
848,643.8206964998639
849,643.9346691241869
850,644.0287848792389
851,644.0953495499201
852,644.1277623476176
853,644.1210472643407
854,644.0722824178821
855,643.9808775137884
856,643.8486728747162
857,643.679861582571
858,643.4807619515901
859,643.2594841819736
860,643.0255324240165
861,642.789359681574
862,642.5618634662843
863,642.3537964246889
864,642.1750791490011
865,642.0340365074599
866,641.9366183143301
867,641.8856959590437
868,641.8805453076756
869,641.9166346507333
870,641.9858225207921
871,642.0770088579516
872,642.1771780197741
873,642.2726758166357
874,642.3505258998904
875,642.3996130051079
876,642.4116091773818
877,642.3815710253662
878,642.3081841422185
879,642.1936727537186
880,642.0434255590379
881,641.865406429575
882,641.6694180671997
883,641.4662792377381
884,641.266975800798
885,641.081848583536
886,640.9198752358071
887,640.7880892494144
888,640.6911659071404
889,640.6311960339677
890,640.6076640325666
891,640.6176424469639
892,640.6562001889528
893,640.7169883782677
894,640.7929261778322
895,640.8768814961963
896,640.9622470485477
897,641.0433529893168
898,641.1157128898279
899,641.1761389568152
900,641.2227672103251
901,641.2550123968455
902,641.273449526954
903,641.2796136926298
904,641.2757270586757
905,641.2643913181831
906,641.2483051070358
907,641.2300611291487
908,641.2120471637435
909,641.1964361047626
910,641.1852211768605
911,641.1802432812992
912,641.1831701652894
913,641.1954151343336
914,641.2180107852056
915,641.2514674671786
916,641.2956465997217
917,641.3496721059859
