frame_number,force
0,641.8666400000421
1,641.5984518193333
2,641.3430725694853
3,641.1120989149068
4,640.9147891641321
5,640.7571221032587
6,640.64114350941
7,640.5646856849062
8,640.521516447943
9,640.5019423573476
10,640.4938455990016
11,640.4840649861836
12,640.4599517229865
13,640.4108675661744
14,640.3293752632703
15,640.2119224234997
16,640.0589413784352
17,639.8744335963387
18,639.6652055772535
19,639.4399374662235
20,639.2082230557446
21,638.9796713385269
22,638.7631311681223
23,638.5660856691879
24,638.3942483940785
25,638.2513766729535
26,638.1393011904032
27,638.0581512431492
28,638.0067301671514
29,637.9829700866394
30,637.984380028622
31,638.0084089892953
32,638.0526796486366
33,638.1150950874858
34,638.1938548721687
35,638.2874193095483
36,638.3944349355962
37,638.5136073635022
38,638.6435072327995
39,638.7823261564519
40,638.9276428744
41,639.0762832895285
42,639.2243401055329
43,639.3673690370159
44,639.5007284727285
45,639.6199965191997
46,639.7213886291726
47,639.8021111004801
48,639.8606138642768
49,639.8967359077977
50,639.911754236916
51,639.9083487565342
52,639.8904913965382
53,639.8632659733147
54,639.8326179837235
55,639.8050214405755
56,639.7870564333215
57,639.7849251761432
58,639.8039658163297
59,639.8482245975757
60,639.9201298770581
61,640.0203013002691
62,640.1475256226881
63,640.2989204876429
64,640.4702825206235
65,640.6565858154995
66,640.852568022204
67,641.0533161978113
68,641.2547569037163
69,641.4539786025753
70,641.6493568575165
71,641.8404857909011
72,642.0279352798656
73,642.212871164268
74,642.3966058575465
75,642.5801700412692
76,642.7639876049672
77,642.9476993798146
78,643.1301436708435
79,643.3094793905387
80,643.4834241898192
81,643.6495645978717
82,643.8056785340351
83,643.9500046076818
84,644.0814091075193
85,644.1994356863576
86,644.3042541068069
87,644.3965407231424
88,644.4773297473329
89,644.5478732369584
90,644.6095305710062
91,644.6636775306333
92,644.7116031137573
93,644.7543658459628
94,644.7926077490791
95,644.8263599447952
96,644.8548987224746
97,644.8767031840906
98,644.8895277128
99,644.8905672802614
100,644.8766893996268
101,644.8447275158965
102,644.7918472327207
103,644.7159858865751
104,644.6163290493548
105,644.4937466007343
106,644.3510911738415
107,644.1932748531013
108,644.0270799058527
109,643.8607116484841
110,643.7031546797476
111,643.5634349884841
112,643.4499009091447
113,643.3696080843106
114,643.3278468657613
115,643.3278115316322
116,643.3703913523581
117,643.4540657404344
118,643.5749032816661
119,643.7266803913491
120,643.9011373958796
121,644.0883820453815
122,644.2774404792802
123,644.4569434078866
124,644.6159173043646
125,644.7446263784814
126,644.8353846974998
127,644.8832362401679
128,644.8863960386778
129,644.8463710095737
130,644.767735566293
131,644.657606569876
132,644.5249170444317
133,644.3796076451947
134,644.2318383668634
135,644.0912881248846
136,643.9665730730079
137,643.8647813394026
138,643.7911024959814
139,643.7485405588283
140,643.7377326400339
141,643.7569188127004
142,643.8021020101398
143,643.8674082063231
144,643.9456248454317
145,644.0288739854158
146,644.1093679374029
147,644.1801848062331
148,644.2359826633722
149,644.273563179814
150,644.2922128932684
151,644.29377831271
152,644.2824550693338
153,644.2643007163969
154,644.2465220338272
155,644.2366229223774
156,644.2415145688313
157,644.2666967407844
158,644.3156240284727
159,644.3893569543156
160,644.4865553708196
161,644.6038129624466
162,644.7362722625627
163,644.8784093132972
164,645.0248447111414
165,645.1710308777293
166,645.3136932924048
167,645.4509688377414
168,645.5822644967127
169,645.7079164808728
170,645.828746488396
171,645.9456035162905
172,646.0589692219629
173,646.1686965895835
174,646.2739332682551
175,646.3732440331215
176,646.464897909922
177,646.5472405561787
178,646.6190492759707
179,646.6797769363174
180,646.7296246693209
181,646.7694240544881
182,646.8003513482088
183,646.8235435509108
184,646.8397282986913
185,646.8489881824746
186,646.8507387447876
187,646.8439251234702
188,646.8273718345605
189,646.8001804733867
190,646.7620651055355
191,646.7135396726857
192,646.6559233481048
193,646.5911955145234
194,646.5217820986436
195,646.450364320193
196,646.3797683693728
197,646.3129400928641
198,646.2529610630421
199,646.2030426804566
200,646.166443302127
201,646.1462747356877
202,646.1451895591159
203,646.164971940042
204,646.2060919808445
205,646.2673161453923
206,646.3454781720447
207,646.4354978372132
208,646.530694514766
209,646.6233882557206
210,646.7057175376192
211,646.7705391814836
212,646.8122362719496
213,646.8272707526019
214,646.8143849197858
215,646.7744552299872
216,646.7100887145929
217,646.6250934935091
218,646.5239469620107
219,646.4113470253931
220,646.2918853505565
221,646.1698420353797
222,646.0490756088844
223,645.9329721503603
224,645.8244186573733
225,645.7257720059492
226,645.6388039098363
227,645.5646167043024
228,645.5035395011581
229,645.4550190315106
230,645.4175202569019
231,645.3884674220745
232,645.3642834910323
233,645.3405933558594
234,645.3126228903069
235,645.2757645659316
236,645.2262190871351
237,645.1615845374232
238,645.0812641617808
239,644.9866037996638
240,644.8807374963914
241,644.76818849176
242,644.6543122127797
243,644.5446670267221
244,644.4443793116673
245,644.3575610108488
246,644.2868448648463
247,644.2331108485473
248,644.1954707716249
249,644.1715408753978
250,644.1579624756203
251,644.1510587333572
252,644.1474876156911
253,644.1447829612123
254,644.141734201648
255,644.1385907984544
256,644.1370758004718
257,644.140191343213
258,644.1518324454574
259,644.1762721438652
260,644.2175954024572
261,644.2791415641485
262,644.363003323462
263,644.4696393433875
264,644.5976645074974
265,644.7438629754265
266,644.903429995807
267,645.0704106109213
268,645.2382770094878
269,645.4005655089505
270,645.5514792009548
271,645.6863681743279
272,645.8020335335457
273,645.8968480406382
274,645.9707217801982
275,646.0249563267248
276,646.0620281403885
277,646.0853287213973
278,646.0988788889684
279,646.1070377878119
280,646.1142353663295
281,646.1247531318005
282,646.1425605410814
283,646.1711966395529
284,646.2136784702875
285,646.2724195597342
286,646.3491498317866
287,646.4448405953602
288,646.5596513866456
289,646.6929188295068
290,646.8431917651426
291,647.0082908509321
292,647.1853593765198
293,647.3708887338244
294,647.5607341884852
295,647.7501598844698
296,647.9339522079706
297,648.1066206525304
298,648.262677815728
299,648.3969687928486
300,648.5050124163653
301,648.5833199109593
302,648.6296659445195
303,648.6433018001518
304,648.625112661105
305,648.5777168927423
306,648.5054865030197
307,648.4144541239334
308,648.3120755968425
309,648.2068343429071
310,648.1076948945679
311,648.0234338003114
312,647.9618972460445
313,647.9292558926202
314,647.9293419348954
315,647.9631546021197
316,648.0286110456316
317,648.1206046084969
318,648.2314052685323
319,648.3513879024857
320,648.4700101853466
321,648.5769053542026
322,648.6629249773922
323,648.7209757711129
324,648.7465459209345
325,648.7378927282641
326,648.6959300219634
327,648.62388510974
328,648.526792896208
329,648.4108812448742
330,648.2828971121969
331,648.1494311831077
332,648.0163110414812
333,647.8881387229246
334,647.7680369639736
335,647.6576310862812
336,647.5572381365193
337,647.4661916967383
338,647.383225206877
339,647.3068567350745
340,647.2357291075735
341,647.1688508441385
342,647.1056797040309
343,647.0460162843463
344,646.9897270020066
345,646.9363674808172
346,646.8848031406296
347,646.8329168427225
348,646.7774631686106
349,646.7140922408123
350,646.6375431958027
351,646.5420092441464
352,646.421686344375
353,646.2715008496634
354,646.08795373023
355,645.8699493742444
356,645.6194408916905
357,645.3417417309964
358,645.0454135841978
359,644.7417169210712
360,644.4436787045355
361,644.16488188746
362,643.9181189623798
363,643.7140781570567
364,643.560230821909
365,643.4600546490042
366,643.4126765327219
367,643.4129718283382
368,643.452114699041
369,643.5185228372152
370,643.5990734703636
371,643.6804090316989
372,643.7501361547694
373,643.7977638785412
374,643.815307741874
375,643.7975711641623
376,643.7421675345681
377,643.6493502816544
378,643.5216958699735
379,643.3636704841108
380,643.1811160655906
381,642.9807038002366
382,642.7694096522105
383,642.5540610351135
384,642.3409863806347
385,642.1357748054824
386,641.9431292449797
387,641.7667819449438
388,641.6094422735373
389,641.4727631950348
390,641.3573330634041
391,641.2627082222524
392,641.1874962709112
393,641.1294900776705
394,641.0858479954846
395,641.0533179937721
396,641.0285091066042
397,641.0082155109025
398,640.9897882763084
399,640.9715258083285
400,640.953027118144
401,640.9354369362652
402,640.9215133421536
403,640.9154632094255
404,640.9225152889986
405,640.9482363993627
406,640.9976467748045
407,641.0742551011863
408,641.1791922852141
409,641.3106374624027
410,641.4636764564813
411,641.630634619107
412,641.8018334516805
413,641.9666613584421
414,642.1148148723141
415,642.2375472506707
416,642.3287630243108
417,642.385825665235
418,642.4099912146144
419,642.4064259631376
420,642.3838007496064
421,642.3534835347942
422,642.3283885269657
423,642.3215846733015
424,642.3448055131153
425,642.4070290750556
426,642.5133118341855
427,642.6640557364985
428,642.8548438172927
429,643.0768955169376
430,643.3180901568745
431,643.5644147344731
432,643.8016263391304
433,644.0168857671249
434,644.2001208872508
435,644.3449200008143
436,644.4488378306457
437,644.5131087464144
438,644.541876804763
439,644.5411390622078
440,644.5176335101714
441,644.477875823034
442,644.427472803104
443,644.3707495475614
444,644.3106575418941
445,644.2488994709438
446,644.1862074396248
447,644.1227201909803
448,644.0583989719978
449,643.9934035937579
450,643.9283455630235
451,643.8643628111115
452,643.8030131784639
453,643.7460353828998
454,643.6950511110512
455,643.6512722229733
456,643.6152485567325
457,643.5866708041374
458,643.5642427369479
459,643.5456471497656
460,643.5276326480731
461,643.5062409749197
462,643.4771820379187
463,643.4363401839828
464,643.3803510625096
465,643.3071375687516
466,643.2162767679602
467,643.1091155321569
468,642.9886361495022
469,642.8591372446779
470,642.7258098327883
471,642.5942694476904
472,642.4700838462755
473,642.3583267925741
474,642.2631882963026
475,642.1876722201807
476,642.133410823854
477,642.1006197573699
478,642.0881981031256
479,642.0939471058413
480,642.1148563502787
481,642.1474041432477
482,642.1878368764907
483,642.2324109523378
484,642.277583668463
485,642.3201315249706
486,642.357175832072
487,642.3861145103789
488,642.4044890116168
489,642.4098473340373
490,642.3996849931926
491,642.3715396036534
492,642.3232753574295
493,642.253530615343
494,642.1622378059319
495,642.0510874261856
496,641.9238131302171
497,641.7862158191942
498,641.645897225252
499,641.5117140301527
500,641.392986558483
501,641.2985175270192
502,641.2355123426576
503,641.2085336271268
504,641.2186442427274
505,641.2628876412358
506,641.334229481137
507,641.4220345862082
508,641.5130658052209
509,641.5928803905764
510,641.6474114379848
511,641.6644991708116
512,641.6351790239189
513,641.5545997744637
514,641.4224981226529
515,641.2431927675112
516,641.0250976049514
517,640.7798015989108
518,640.5208208888755
519,640.2621853533717
520,640.0170583835894
521,639.7965822548085
522,639.6090824713123
523,639.4596800272667
524,639.350296403384
525,639.2800039487464
526,639.2456499637243
527,639.2426546910358
528,639.2658630089437
529,639.3103237776792
530,639.3718799051296
531,639.447485669246
532,639.5352317782913
533,639.6341316582159
534,639.7437658048707
535,639.8638769305281
536,639.9939767340012
537,640.1329997704869
538,640.2790379475954
539,640.4292000612826
540,640.5796419628359
541,640.7257918378
542,640.8627588319114
543,640.9858781421389
544,641.0913176030426
545,641.176645874887
546,641.2412476262527
547,641.2864870399729
548,641.3155761484759
549,641.3331797867254
550,641.3448504439765
551,641.3564085089794
552,641.3733659544554
553,641.4004577708317
554,641.4413164916532
555,641.4983002499582
556,641.5724584217575
557,641.6636005344182
558,641.7704338523114
559,641.8907424858768
560,642.0215782710625
561,642.1594268091565
562,642.3003258442417
563,642.4399509079823
564,642.5737151208434
565,642.6969317789087
566,642.8050642433831
567,642.89405122828
568,642.9606572382087
569,643.0027754169063
570,643.0196206221019
571,643.0117856757328
572,642.981165664026
573,642.930770650054
574,642.8644530243074
575,642.7865758971861
576,642.7016421576529
577,642.613898190109
578,642.5269360934215
579,642.4433465134385
580,642.3645012349103
581,642.2905395280824
582,642.2205845907076
583,642.1531507343989
584,642.0866513045366
585,642.0198955118849
586,641.9524695530223
587,641.8849344631208
588,641.818830013979
589,641.7565159368813
590,641.7008820979471
591,641.6549443596871
592,641.6213634239801
593,641.6019789698458
594,641.5974820505885
595,641.6073122264381
596,641.6297850758658
597,641.6623896491728
598,641.7021780894011
599,641.7461852847241
600,641.7918298470388
601,641.837245542412
602,641.8814860918443
603,641.924550243116
604,641.9671980495656
605,642.0105796540583
606,642.0557642435857
607,642.1033075429505
608,642.1529985050331
609,642.2038695849901
610,642.2544611510975
611,642.3032403813527
612,642.349025879002
613,642.3912783347246
614,642.430178044134
615,642.466491979997
616,642.5012951530625
617,642.5356282683208
618,642.5701587194001
619,642.6048993513409
620,642.6390441548451
621,642.6709832052339
622,642.6985366851027
623,642.7193948658002
624,642.7316806756728
625,642.7344917951527
626,642.7282643519662
627,642.7148460956752
628,642.697253916631
629,642.6791775838
630,642.6643454547153
631,642.6558815054236
632,642.6557695526108
633,642.6645146872007
634,642.6810563825462
635,642.7029363868523
636,642.726662242305
637,642.7481623859801
638,642.7632303226089
639,642.7678985756507
640,642.7587329474733
641,642.7330656759949
642,642.6891917882298
643,642.6265480658068
644,642.5458810099366
645,642.449387144562
646,642.3407861814032
647,642.2252824592304
648,642.109387812622
649,642.0006056520828
650,641.9069915278976
651,641.8366050594677
652,641.7968672237084
653,641.7938494861148
654,641.8315448127427
655,641.9111982068544
656,642.0308002381508
657,642.1848590120503
658,642.3645516680297
659,642.5583122590086
660,642.7528415757487
661,642.9344384439092
662,643.0904778457535
663,643.2108252999255
664,643.2889865884952
665,643.3228359057168
666,643.3148295834324
667,643.2716895100584
668,643.2036208824628
669,643.1231905208718
670,643.0440142089876
671,642.9793908214274
672,642.9410027441584
673,642.9377913015579
674,642.9751109286597
675,643.0542579843647
676,643.1724453695297
677,643.3232442329368
678,643.4974508840187
679,643.684277873755
680,643.8727192201607
681,644.0529080080375
682,644.2172819985752
683,644.3613995386795
684,644.4842918114729
685,644.5882912585603
686,644.6783465197973
687,644.7609282649134
688,644.8427271481921
689,644.9293989302136
690,645.024595455535
691,645.1294450779794
692,645.2425361951496
693,645.3603387721038
694,645.4779091926894
695,645.5896931182366
696,645.6902633002833
697,645.7748791477217
698,645.8398144503695
699,645.8824572797273
700,645.9012312984844
701,645.8954158451506
702,645.8649503129506
703,645.8102927167698
704,645.7323666478861
705,645.6325879741516
706,645.512929220251
707,645.3759699813702
708,645.224896675432
709,645.0634396834907
710,644.8957565647152
711,644.7262792881671
712,644.5595348853549
713,644.3999274273755
714,644.2514613203689
715,644.1174150249392
716,644.0000249395067
717,643.9002666497282
718,643.8177998570135
719,643.7510920643272
720,643.6976905489109
721,643.6545916415286
722,643.6186553304074
723,643.5870168285722
724,643.5574468127204
725,643.5286107385343
726,643.5001843870097
727,643.4728059478543
728,643.4478798312135
729,643.4272803778157
730,643.4130274765449
731,643.4070139446602
732,643.4108396961084
733,643.4257483576789
734,643.4526039971452
735,643.4918328800172
736,643.5432936121969
737,643.6060948779038
738,643.6784161429115
739,643.757393502786
740,643.839124957376
741,643.9188370460425
742,643.991230098488
743,644.0509750729406
744,644.0932836416912
745,644.1144415290516
746,644.1122034077376
747,644.0859934710485
748,644.0369135637866
749,643.9675989967096
750,643.8819681352705
751,643.784900954808
752,643.6818758028576
753,643.5785953023741
754,643.4806316968553
755,643.3931139510315
756,643.3204636607815
757,643.2661699057641
758,643.2325897139575
759,643.2207791694148
760,643.230383615524
761,643.2596175041509
762,643.3053427354563
763,643.3632367113868
764,643.4280510301094
765,643.4939808932716
766,643.5551548097274
767,643.6062094299074
768,643.6428699158122
769,643.6624407730466
770,643.664129294978
771,643.6491611358858
772,643.6206819077987
773,643.583455518596
774,643.5433787691815
775,643.5068468480415
776,643.4800279184511
777,643.468134320941
778,643.4748037766874
779,643.5017050732481
780,643.5484462841232
781,643.6128036194827
782,643.6912282154984
783,643.779537290486
784,643.8736621176835
785,643.9703171302634
786,644.0674709674302
787,644.1645328190335
788,644.2622176816049
789,644.3621281411653
790,644.4661702577577
791,644.5759630811424
792,644.6923773357321
793,644.8152701419464
794,644.943416180241
795,645.0745991532283
796,645.2058179874175
797,645.3335647867525
798,645.4541363828366
799,645.5639482657463
800,645.6598282419167
801,645.7392686368596
802,645.8006045305838
803,645.843074223608
804,645.8667304236028
805,645.8722139735514
806,645.8604546953394
807,645.8323933479329
808,645.7888089243648
809,645.7302975621905
810,645.6574083595615
811,645.570911301978
812,645.4721431653942
813,645.3633376685743
814,645.2478148948591
815,645.1299170766587
816,645.014643729125
817,644.9070324519763
818,644.8114109161193
819,644.7306798832528
820,644.6657746393527
821,644.6154157790139
822,644.5762162515564
823,644.5431542505178
824,644.5103494425359
825,644.4720159051651
826,644.4234314938368
827,644.3617588696445
828,644.2865716220458
829,644.1999870404607
830,644.1063855181272
831,644.0117813336046
832,643.922971250552
833,643.8466103939269
834,643.7883483614195
835,643.752119268945
836,643.7396442340482
837,643.7501838691805
838,643.7805615014291
839,643.8254601908151
840,643.8779836509863
841,643.9304588634924
842,643.9754300880674
843,644.0067432516438
844,644.0205647485013
845,644.0161485885939
846,643.9961784118941
847,643.9665750880072
848,643.9357761111604
849,643.9136262682273
850,643.9101087744629
851,643.9341545346592
852,643.9927074235761
853,644.0901329691375
854,644.2279686316193
855,644.404949488289
856,644.6172217635195
857,644.8586794199562
858,645.1213995941716
859,645.3961776288623
860,645.6731614832962
861,645.9425671387456
862,646.1954280777279
863,646.4242996648742
864,646.6238180704643
865,646.7910168984824
866,646.9253390070323
867,647.0283453258598
868,647.1031961667838
869,647.1540242602312
870,647.1853141382021
871,647.2013718439545
872,647.2059402681857
873,647.2019930016164
874,647.1917152907951
875,647.1766502422907
876,647.157955305035
877,647.1366897753019
878,647.114051710947
879,647.0915043149937
880,647.0707660624323
881,647.053671906526
882,647.0419384968633
883,647.0368836566554
884,647.0391577039428
885,647.048537533068
886,647.0638142464318
887,647.0827832626928
888,647.1023364240813
889,647.1186591726964
890,647.1275384000327
891,647.1247734279542
892,647.1066517526297
893,647.0704176721338
894,647.0146456937362
895,646.9394391095941
896,646.846403621139
897,646.7383936332384
898,646.6190866772513
899,646.4924845260977
900,646.3624464295281
901,646.2323388266872
902,646.1048583823572
903,645.9820528009777
904,645.8655151283701
905,645.7566704777726
906,645.6570405990204
907,645.5683817387678
908,645.4926342686684
909,645.4316771905623
910,645.3869342763151
911,645.3589216886073
912,645.3468469997093
913,645.3483582534268
914,645.3595040188167
915,645.3749211610748
916,645.3882360707195
917,645.3926453817722
