acceleration,velocity,displacement
-0.032583976342859984,0.0,0.0
-0.0366692290293343,-3.4626602686097145e-05,-1.7313301343048573e-08
-0.040559366035944316,-7.324090021873647e-05,-7.124705279546538e-08
-0.04407773787611118,-0.00011555945217476422,-1.6564722899221573e-07
-0.047083314733709344,-0.00016113997847967449,-3.039969443194351e-07
-0.04948502305023269,-0.0002094241473716455,-4.892790072450951e-07
-0.05125169994420147,-0.0002597925088688626,-7.238873353653491e-07
-0.05241636548662206,-0.00031162654158427435,-1.0095968605919177e-06
-0.05307395315812492,-0.0003643717009066478,-1.3475959818373788e-06
-0.05337212105642179,-0.00041759473801392116,-1.7385792012976633e-06
-0.05349545722916965,-0.0004710285271567169,-2.1828908338829823e-06
-0.05364444319374249,-0.000524598477368173,-2.680704336145427e-06
-0.05401175532880895,-0.0005784265766294488,-3.232216863144238e-06
-0.05475944369803535,-0.0006328121761428709,-3.837836239530397e-06
-0.05600079836357578,-0.0006881922971736764,-4.498338476188671e-06
-0.05778993212755729,-0.0007450876624192429,-5.21497845598513e-06
-0.060120259376422305,-0.0008040427581712328,-5.989543666280368e-06
-0.06293082660758349,-0.0008655683011632357,-6.824349195947602e-06
-0.06611795187460444,-0.0009300926904043296,-7.722179691731384e-06
-0.06954941240105211,-0.0009979263725421578,-8.686189223204628e-06
-0.0730790680160066,-0.0010692406127506872,-9.71977271585105e-06
-0.07656054700696686,-0.001144060420262174,-1.0826423232357482e-05
-0.07985905669720353,-0.0012222702221142592,-1.2009588553545699e-05
-0.08286060826353853,-0.0013036300545946303,-1.3272538691900143e-05
-0.08547816839583654,-0.0013877994429243178,-1.4618253440659618e-05
-0.0876545024945452,-0.0014743657783695087,-1.604933605130653e-05
-0.0893617241363274,-0.0015628738916849448,-1.7567955886333757e-05
-0.0905978637721258,-0.0016528536856391714,-1.9175819674995815e-05
-0.09138114992704077,-0.0017438431924887547,-2.0874168114059776e-05
-0.09174308210647562,-0.0018354053085055128,-2.266379236455691e-05
-0.09172160476449498,-0.0019271376519409981,-2.4545063844780163e-05
-0.09135557679158371,-0.0020186762427190376,-2.6517970792110183e-05
-0.09068121139066186,-0.0021096946368101602,-2.8582156231874783e-05
-0.08973045047882015,-0.0021999004677449013,-3.073695378415232e-05
-0.08853071967371323,-0.002289031052821168,-3.2981419544435354e-05
-0.08710547278865897,-0.002376849149052354,-3.531435964537211e-05
-0.08547532684915012,-0.002463139548871259,-3.7734353994333915e-05
-0.08365999897016023,-0.002547707211780914,-4.0239777374660004e-05
-0.08168126229124727,-0.002630377842411618,-4.282881990175627e-05
-0.07956666358191819,-0.0027110018053482007,-4.549950972563618e-05
-0.07735308537419028,-0.0027894616798262548,-4.8249741468223407e-05
-0.07508887800450915,-0.0028656826615156045,-5.1077313638894335e-05
-0.07283356047435637,-0.002939643880755037,-5.3979976910029656e-05
-0.07065483162418754,-0.003011388076804309,-5.695549288880933e-05
-0.06862339611658436,-0.003081027190674695,-6.0001700522548833e-05
-0.0668066117006221,-0.003148742194583298,-6.311658521517783e-05
-0.06526212756802918,-0.003214776564217624,-6.629834459457829e-05
-0.06403249958108177,-0.0032794238777921793,-6.95454448155832e-05
-0.06314133960402796,-0.003343010797384734,-7.285666215317166e-05
-0.06259110030957207,-0.0034058770173415343,-7.62311060605348e-05
-0.062362329342803904,-0.0034683537321677223,-7.966822143528943e-05
-0.062414204290616386,-0.0035307419989844325,-8.316776930086551e-05
-0.06268622160213337,-0.003593292211930807,-8.672978640632313e-05
-0.06310094059933254,-0.0036561857930315403,-9.035452540880431e-05
-0.06356779481148168,-0.0037195201607369477,-9.404237838568855e-05
-0.06398816699840913,-0.003783298141641893,-9.779378753687797e-05
-0.06426182407737893,-0.003847423137179787,-0.00010160914817628881
-0.06429428905808739,-0.00391170119374752,-0.00010548871034175246
-0.06400424709476114,-0.003975850461823944,-0.0001094324861695382
-0.0633300626303016,-0.004039517616686476,-0.00011344017020879341
-0.06223474502383329,-0.004102300020513543,-0.00011751107902739343
-0.06070885534928065,-0.0041637718207001,-0.00012164411494800024
-0.05877087469862949,-0.004223511685724055,-0.00012583775670121233
-0.05646470938910611,-0.004281129477767922,-0.00013009007728295832
-0.053854388517607266,-0.004336289026721279,-0.00013439878653520292
-0.05101647062771592,-0.00438872445629394,-0.00013876129327671053
-0.04803111596247936,-0.0044382482495890375,-0.00014317477962965202
-0.04497316232135644,-0.004484750388730955,-0.00014763627894881203
-0.041904659515646626,-0.004528189299649457,-0.00015214274879300223
-0.03886995836544512,-0.0045685766085900035,-0.00015669113174712195
-0.03589380356709522,-0.004605958489556273,-0.0001612783992961951
-0.032982377767090114,-0.004640396580223366,-0.00016590157683108491
-0.030127000149976973,-0.0046719512691819,-0.00017055775075578753
-0.02730991172876643,-0.004700669725121271,-0.00017524406125293913
-0.024511120792749988,-0.00472658024138203,-0.00017995768623619077
-0.021714927192005847,-0.004749693265374408,-0.00018469582298956898
-0.018914873908772365,-0.004770008165924797,-0.0001894556737052186
-0.01611643208427169,-0.00478752381892132,-0.00019423443969764166
-0.013337297567278214,-0.004802250683747095,-0.00019902932694897588
-0.01060551524663562,-0.004814222090154052,-0.00020383756333592644
-0.007955851653406608,-0.004823502773604073,-0.0002086564257678055
-0.005425070667702122,-0.004830193234764627,-0.00021348327377198985
-0.0030470207647506726,-0.004834429280480853,-0.00021831558502961258
-0.0008485328279041489,-0.004836377057277181,-0.0002231509881984916
0.0011531235633556384,-0.004836224761909455,-0.0002279872891080849
0.0029509969707510212,-0.004834172701642402,-0.00023282248783986083
0.004547673351494852,-0.004830423366481279,-0.00023765478587392267
0.00595345546431488,-0.004825172802073374,-0.0002424825839582
0.007184097236966768,-0.004818604025722733,-0.00024730447237209804
0.008258670992395061,-0.004810882641608052,-0.00025211921570576345
0.00919788385738384,-0.004802154364183162,-0.00025692573420865906
0.01002269280942816,-0.004792544075849756,-0.00026172308342867554
0.010752732875662765,-0.004782156363007211,-0.00026651043364810405
0.011404128347907593,-0.004771077932395426,-0.0002712870507958054
0.011986659006153479,-0.004759382538718396,-0.0002760522810313623
0.012500798920369203,-0.004747138809755134,-0.00028080554170559907
0.012935523962596054,-0.0047344206483136515,-0.0002855463214346335
0.013267666621376448,-0.004721319053021665,-0.00029027419128530116
0.013463019899900607,-0.004707953709761027,-0.0002949888276666925
0.013478855406719269,-0.004694482772107717,-0.00029969004590762685
0.01326745664561356,-0.0046811096160815505,-0.00030437784210172146
0.01278058816755837,-0.004668085593674965,-0.0003090524397065997
0.0119750742245709,-0.004655707762478901,-0.00031371433638467666
0.010819494708272228,-0.004644310478012479,-0.0003183643455049224
0.009301443611077159,-0.004634250008852804,-0.000323003625748355
0.007434171622364394,-0.004625882201236084,-0.00032763369185339947
0.005261132287023061,-0.00461953454928139,-0.0003322564002286582
0.0028571503271578678,-0.004615475407974299,-0.0003368739052072861
0.00032553855764822084,-0.004613884063531896,-0.0003414885849430392
-0.002208713207521765,-0.004614825650856833,-0.00034610293980023355
-0.00460874451427824,-0.0046182343797177335,-0.00035071946981552084
-0.006737064422258134,-0.004623907284186002,-0.0003553405406474727
-0.008466504554189621,-0.004631509068674226,-0.0003599682488239028
-0.009689587829117295,-0.00464058711486588,-0.00036460429691567286
-0.010325727459946062,-0.004650594772510412,-0.000369249887859361
-0.010326265697111163,-0.00466092076908894,-0.00037390564563016067
-0.009677656475965343,-0.004670922730175478,-0.00037857156737979285
-0.008403062577850525,-0.004679963089702387,-0.00038324701028973177
-0.006562370386871171,-0.004687445806184748,-0.00038793071473767533
-0.00425038242588563,-0.004692852182591126,-0.00039262086373206324
-0.001592916520607269,-0.004695773832064373,-0.000397315176739391
0.0012593408211739438,-0.004695940619914089,-0.00040201103396538023
0.004139227149288197,-0.0046932413359288576,-0.0004067056249433017
0.006873556527192546,-0.004687734944090617,-0.00041139611308331145
0.00929517158848912,-0.004679650580032777,-0.00041607980584537315
0.011255769141368461,-0.004669375109667848,-0.0004207543186902235
0.01263827103093628,-0.004657428089581695,-0.00042541772028984826
0.013367183254883654,-0.004644425362438785,-0.0004300686470158585
0.013415315783757193,-0.004631034112919465,-0.00043470637675353764
0.012805623152106196,-0.004617923643451533,-0.0004393308556317231
0.011607786412749586,-0.004605716938669105,-0.0004439426759227834
0.009930215174217055,-0.004594947937875622,-0.0004485430083610558
0.007908984265176977,-0.004586028338155925,-0.00045313349649907155
0.005695517541796632,-0.004579226087252438,-0.00045771612371177573
0.0034445800109709325,-0.004574656038476055,-0.00046229306477464
0.0013036085031637847,-0.004572281944218987,-0.0004668665337659875
-0.00059614897077263,-0.004571928214452792,-0.0004714386388453234
-0.0021467204839271305,-0.004573299649180141,-0.00047601125277713986
-0.0032690544071722985,-0.004576007536625691,-0.0004805859063700428
-0.003917391211712472,-0.004579600759435133,-0.0004851637105180732
-0.004082025906549909,-0.004583600467994264,-0.0004897453111317878
-0.0037897670783571323,-0.004587536364486717,-0.0004943308795480283
-0.003101501181496844,-0.004590981998616644,-0.00049892013872958
-0.0021067059869579992,-0.004593586102200872,-0.0005035124227799888
-0.0009152488011846657,-0.004595097079594944,-0.0005081067643708867
0.0003528673845018311,-0.004595378270303285,-0.0005127020020458358
0.0015790143859513355,-0.004594412329418058,-0.0005172968973456964
0.0026577524678146384,-0.004592293945991175,-0.0005218902504834011
0.0035077091854235983,-0.004589211215164556,-0.000526481003063979
0.004080165083171589,-0.004585417278030258,-0.0005310683173105764
0.004364252143943557,-0.0045811950694167,-0.0005356516234842998
0.004388097840507484,-0.0045768188944244744,-0.0005402306304662204
0.004215613317513661,-0.004572517038845464,-0.0005448052984328553
0.003939071976613941,-0.004568439696198401,-0.0005493757768003772
0.0036682531413554918,-0.004564636033639416,-0.0005539423146652962
0.0035174621126931663,-0.004561043176012392,-0.0005585051542701221
0.0035919755075959595,-0.004557488457202248,-0.0005630644200867295
0.003975570099089186,-0.004553704684398905,-0.0005676200166575301
0.004720868914802772,-0.004549356464891959,-0.0005721715472321755
0.005844026663907425,-0.004544074017102604,-0.0005767182624731728
0.00732462916881357,-0.004537489689186244,-0.0005812590443263172
0.00911078875995389,-0.004529271980221861,-0.0005857924251610213
0.011128512696249634,-0.004519152329493759,-0.0005903166373158791
0.013293655719427816,-0.0045069412452859205,-0.000594829684103269
0.015524274536621396,-0.004492532280157896,-0.0005993294208659909
0.017751096867866512,-0.004475894594455652,-0.0006038136343032977
0.019924242646592753,-0.004457056924698422,-0.0006082801100628748
0.022015331407071386,-0.00443608713767159,-0.0006127266820940598
0.024015329848901784,-0.004413071807043604,-0.0006171512615664174
0.02592935941013731,-0.004388099462414085,-0.0006215518472011463
0.027769936841760323,-0.004361249814288136,-0.0006259265218394974
0.029549994731998718,-0.004332589848501257,-0.000630273441670892
0.03127687006419358,-0.00430217641610316,-0.0006345908248031943
0.03294832337793413,-0.004270063819382096,-0.0006388769449209369
0.034551370995924396,-0.004236313972195167,-0.0006431301338167255
0.03606415044762935,-0.004201006211473389,-0.0006473487939085597
0.03746029417564618,-0.004164243989161751,-0.0006515314190088773
0.038714601937988945,-0.004126156541104934,-0.0006556766192740107
0.03980844867152919,-0.004086895015800175,-0.0006597831450524633
0.040733500017634816,-0.004046624041455593,-0.0006638499045810911
0.04149281977821842,-0.004005510881557667,-0.0006678759720425977
0.04209907522446836,-0.003963714934056323,-0.0006718605849504048
0.0425701840161523,-0.003921380304436012,-0.0006758031325696509
0.04292346583544542,-0.0038786334795102135,-0.000679703139461624
0.04317000460600315,-0.003835586744289489,-0.0006835602495735239
0.04331105841755553,-0.0037923462127777098,-0.0006873742160520575
0.04333772435552853,-0.0037490218213911677,-0.0006911449000691419
0.04323393393225941,-0.003705735992247274,-0.0006948722789759612
0.042981781254205154,-0.0036626281346540416,-0.0006985564610394119
0.04256758111685961,-0.0036198534534685094,-0.0007021977018334732
0.04198697794300395,-0.003577576173938578,-0.0007057964166471767
0.04124780049533229,-0.0035359587847194097,-0.0007093531841265056
0.040370143455575366,-0.003495149812743956,-0.0007128687384252373
0.03938415833375106,-0.0034552726618492925,-0.0007163439496625339
0.03832679874784087,-0.0034164171833084966,-0.0007197797945851128
0.037238907139395636,-0.0033786343303648784,-0.0007231773203419495
0.03616353425390805,-0.0033419331096682264,-0.000726537604061966
0.035145553538211236,-0.0033062785657721667,-0.0007298617098996862
0.03423190591934623,-0.003271589836043388,-0.0007331506441005939
0.03347150996892539,-0.003237738128099252,-0.0007364053080826653
0.032913999536329085,-0.003204545373346625,-0.0007396264498333882
0.03260677611577842,-0.0031717849855205714,-0.0007428146150128218
0.032590245855222216,-0.003139186474535071,-0.0007459701007428496
0.0328915865951822,-0.0031064455583098686,-0.000749092916759272
0.033517959303748124,-0.0030732407853604035,-0.0007521827599311072
0.03445057379121438,-0.0030392565188129225,-0.0007552390085831938
0.03564119907722839,-0.0030042106323787013,-0.0007582607421587897
0.037012449212088995,-0.0029678838082340428,-0.0007612467893790961
0.03846255965949124,-0.002930146303798253,-0.0007641958044351122
0.039874543413783325,-0.0028909777522616157,-0.0007671063664631422
0.041128647599742996,-0.0028504761567548524,-0.0007699770934176505
0.042116061713366154,-0.002808853802098298,-0.000772806758397077
0.04275122449493979,-0.002766420158994145,-0.0007755943953776232
0.042980241494541,-0.0027235544259994046,-0.00077833938267012
0.042783954383788125,-0.00268067232806024,-0.0007810414960471498
0.042175714035207264,-0.002638192493850742,-0.0007837009284581052
0.04119523279536038,-0.0025965070204354585,-0.0007863182782152483
0.039900518933056045,-0.0025559591445712504,-0.0007888945112977517
0.038359775644372034,-0.0025168289972825365,-0.0007914309053686786
0.0366445651069503,-0.0024793268269068755,-0.0007939289832807733
0.03482483119188087,-0.00244359212875746,-0.0007963904427586054
0.03296577170658024,-0.0024096968273082295,-0.0007988170872366382
0.031126162791035812,-0.0023776508600594215,-0.000801210761080322
0.029357583860410263,-0.0023474089867336983,-0.0008035732910037185
0.027704011925661007,-0.0023188781888406626,-0.0008059064345915057
0.026201348770720813,-0.002291925508492472,-0.0008082118364401723
0.024876582528808255,-0.0022663865428427074,-0.00081049099246584
0.023746504835196355,-0.0022420749991607053,-0.0008127452232368417
0.022816128979079916,-0.002218793682253567,-0.0008149756575775488
0.022077027134797717,-0.0021963471041966283,-0.000817183227970774
0.021505816392755325,-0.002174555682432852,-0.0008193686793640886
0.021063260828918358,-0.002153271143822015,-0.0008215325927772161
0.020694872225816674,-0.0021323920772946476,-0.0008236754243877744
0.02033400550863903,-0.0021118776384274197,-0.0008257975592456354
0.019907937442409786,-0.0020917566669518954,-0.0008278993763983252
0.019346482540574805,-0.002072129456960403,-0.0008299813194602813
0.018591766953105108,-0.002053160332213563,-0.0008320439643548683
0.01760720280433659,-0.0020350608473348425,-0.0008340880749446425
0.016383699853892174,-0.002018065396005728,-0.0008361146380663128
0.014941758983795149,-0.0020024026665868846,-0.0008381248720976091
0.013329120430120502,-0.001988267226879927,-0.0008401202070443425
0.011614685728655339,-0.001975795323800539,-0.0008421022383196827
0.009880032943433823,-0.0019650479644644945,-0.0008440726599638152
0.008209831483709374,-0.001956003032250923,-0.0008460331854621729
0.006682170360593487,-0.0019485570313287715,-0.0008479854654939627
0.005359685918079374,-0.001942536103189435,-0.0008499310120612218
0.0042824821253163795,-0.001937715019167737,-0.0008518711376224004
0.0034639634498833728,-0.0019338417963801371,-0.0008538069160301743
0.002890600280186162,-0.0019306645145151023,-0.0008557391691856219
0.002526081334607546,-0.0019279561737077055,-0.0008576684795297333
0.0023192445007746386,-0.0019255335107900143,-0.0008595952243719821
0.0022140812845872575,-0.0019232668478973334,-0.0008615196245513258
0.0021596832197640207,-0.0019210799656451578,-0.0008634417979580971
0.002118483801704098,-0.0019189408821344237,-0.0008653618083819869
0.0020720427051293617,-0.001916845618881007,-0.0008672797016324946
0.0020241599225724076,-0.001914797517567156,-0.0008691955232007187
0.0020010822852139245,-0.0019127848964632628,-0.0008711093144077339
0.0020485406755111775,-0.0019107600849829003,-0.0008730210868984569
0.0022258670740566266,-0.0019086228811081164,-0.0008749307783815025
0.0025981517262469297,-0.0019062108717079647,-0.0008768381952579105
0.00322762000755087,-0.0019032979858410659,-0.000878742949686685
0.0041651394080225845,-0.001899601606133279,-0.0008806443994826722
0.0054425874917603725,-0.0018947977426833876,-0.0008825415991570805
0.007066950973119747,-0.0018885429734509475,-0.0008844332695151477
0.009017130672440542,-0.0018805009326281674,-0.0008863177914681873
0.011244140387362626,-0.0018703702970982658,-0.0008881932270830505
0.01367479037707846,-0.0018579108317160452,-0.0008900573676474577
0.01621837005565265,-0.0018429642514996797,-0.0008919078051890655
0.018775442682417657,-0.0018254673451306444,-0.0008937420209873807
0.021247548375747303,-0.001805455849601562,-0.0008955574825847467
0.023546384081543227,-0.0017830588833729166,-0.000897351739951234
0.025601118706282105,-0.0017584851319790039,-0.00089912251195891
0.02736302416470918,-0.0017320030605435081,-0.0009008677560551712
0.02880731309195727,-0.0017039178919151749,-0.0009025857165314005
0.02993261582602868,-0.001674547927456182,-0.0009042749494410862
0.030758758970412463,-0.0016442022400579613,-0.0009059343245248434
0.03132346590851041,-0.0016131611276184999,-0.0009075630062086816
0.03167839863116454,-0.0015816601953486623,-0.0009091604168701651
0.031884805409888875,-0.0015498785933281355,-0.0009107261862645035
0.032009088155425545,-0.0015179316465454783,-0.0009122600913844404
0.032118727315873265,-0.001485867738809829,-0.0009137619910771181
0.03227894216774588,-0.0014536689040680194,-0.000915231759398557
0.03255019859079743,-0.0014212543336887477,-0.0009166692210174354
0.032986406099651436,-0.0013884860313435232,-0.0009180740911999515
0.0336335226604038,-0.0013551760669634955,-0.0009194459222491051
0.034528313000657646,-0.0013210951491329649,-0.0009207840578571533
0.035697128677796425,-0.001285982428293738,-0.0009220875966458666
0.037154765430940345,-0.0012495564812393695,-0.0009233553661006332
0.0389036534404524,-0.001211527271803673,-0.0009245859079771546
0.04093368764080114,-0.0011716086012630463,-0.000925777475913688
0.04322276284310114,-0.0011295303760210952,-0.0009269280454023302
0.045737681591471305,-0.001085050153803809,-0.0009280353356672426
0.04843492823349468,-0.001037963848891326,-0.0009290968426685902
0.051261056899361904,-0.0009881158563248976,-0.0009301098825211983
0.05415293174492035,-0.0009354088620027565,-0.0009310716448803621
0.05703841249714027,-0.0008798131898817261,-0.0009319792559063044
0.05983808130189701,-0.0008213749429822074,-0.0009328298499727363
0.06246830245908142,-0.0007602217511017182,-0.0009336206483197783
0.064845487551696,-0.0006965648560963295,-0.0009343490416233774
0.06689111302855742,-0.0006306965558062027,-0.0009350126723293286
