acceleration,velocity,displacement
0.5496415869120074,0.0,0.0
0.5414136043846073,0.00027276379782415367,6.819094945603841e-08
0.533125791062298,0.00054139864668588,2.7173156058354684e-07
0.524780442189472,0.0008058752049988224,6.085500235047224e-07
0.5163798575870963,0.0010661652799429644,1.0765601447401692e-06
0.5079263455631668,0.0013222418307305302,1.673661922408543e-06
0.4994222267349875,0.0015740789738050687,2.397742123542443e-06
0.49086983774836007,0.0018216519899259057,3.2466748644751864e-06
0.4822715348808156,0.0020649373330831997,4.218322195227462e-06
0.47362969751792433,0.0023039126411828845,5.310534688793983e-06
0.46494673148755034,0.0025385567484342533,6.521152036198268e-06
0.45622507223063546,0.0027688496993638,7.848003648147782e-06
0.44746718778698374,0.0029947727643682047,9.288909264080783e-06
0.4386755815820931,0.003216308456710474,1.0841679569350452e-05
0.4298527950103023,0.0034334405508585726,1.2504116821242713e-05
0.42100140981188305,0.003646154102064119,1.4274015484473386e-05
0.41212405023334037,0.0038544354670754246,1.614916287675827e-05
0.40322338494644283,0.0040582723258703705,1.812733982499472e-05
0.39430212869263437,0.0042576537042801395,2.020632133253235e-05
0.38536304362084345,0.004452569997358509,2.238387725794201e-05
0.37640894029587885,0.00464301299333769,2.465777300561606e-05
0.3674426783646865,0.004828975898002831,2.7025770228451192e-05
0.3584671668725845,0.005010453359312148,2.9485627542779937e-05
0.34948536421931536,0.005187441492085124,3.2035101255629255e-05
0.34050027773951086,0.00535993790257483,3.467194610429424e-05
0.33151496288811266,0.005527941712731736,3.739391600812088e-05
0.32253252200998905,0.005691453583956262,4.019876483229288e-05
0.3135561026747285,0.005850475740127441,4.3084247163313805e-05
0.30458889556145946,0.006005011989686488,4.604811909576729e-05
0.2956341318812553,0.006155067746547167,4.9088139029825706e-05
0.2866950803242981,0.006300650049598556,5.2202068478862134e-05
0.27777504351906607,0.006441767580559397,5.5387672886401624e-05
0.2688773539985595,0.006578430679938803,5.864272245152617e-05
0.26000536968809645,0.006710651360860467,6.196499296172599e-05
0.25116246895769373,0.006838443320521915,6.535226663207159e-05
0.2423520453119782,0.006961821949089333,6.88023329494744e-05
0.23357750181447007,0.007080804335870945,7.231298952071447e-05
0.2248422453554926,0.007195409272663436,7.588204292284806e-05
0.21614968087112524,0.00730565725422009,7.950730955456895e-05
0.20750320560549718,0.007411570475839246,8.318661648708378e-05
0.1989062034882914,0.007513172828112693,8.691780231307177e-05
0.19036203968381485,0.00761048988890572,9.069871799232638e-05
0.18187405536099907,0.007703548912666923,9.452722769271954e-05
0.1734455627302427,0.007792378817189733,9.84012096251837e-05
0.16507984038743187,0.007877010167969153,0.00010231855687147342
0.1567801289975231,0.007957475160315391,0.00010627717820354456
0.14854962734265675,0.008033807599400436,0.00011027499889347352
0.1403914887554817,0.00810604287842497,0.00011430996151292987
0.13230881795870436,0.008174217955103518,0.00011838002672131199
0.12430466833631956,0.008238371326677273,0.0001224831740417572
0.11638203966839714,0.008298543003678452,0.00012661740262434612
0.10854387636843171,0.00835477448268766,0.00013078073199593765
0.1007930662683105,0.008407108718346845,0.0001349712027961963
0.09313243999528996,0.008455590094912745,0.0001391868774995112
0.08556477097308657,0.008500264397654838,0.00014342584112265309
0.07809277605741198,0.008541178784412464,0.0001476862019181699
0.07071911679113568,0.008578381757624601,0.00015196609205367917
0.0634464012410781,0.008611923137132655,0.0001562636682773685
0.056277186361795066,0.008641854034033373,0.00016057711257016
0.049213980823284494,0.008668226825829642,0.00016490463278512576
0.04225924823569859,0.008691095133094387,0.00016924446327485677
0.03541541069990738,0.00871051379782829,0.00017359486550758745
0.028684852606397106,0.008726538863654865,0.00017795412867295824
0.02206992459641701,0.00873922755795557,0.00018232057027836086
0.015572947588501307,0.008748638276001799,0.0001866925367368502
0.00919621676233592,0.008754830567089509,0.000191068403947623
0.0029420053827988965,0.008757865122625793,0.00019544657787005183
-0.0031874316582905073,0.00875780376605692,0.0001998254950922225
-0.009189854702875396,0.00875470944446663,0.0002042036233948534
-0.01506303669497984,0.008748646221617166,0.00020857946231137435
-0.020804761135860834,0.008739679272159457,0.0002129515436848185
-0.026412820679145507,0.008727874876705705,0.0002173184322220348
-0.031885016403706265,0.008713300417434991,0.00022167872604557
-0.037219157800221996,0.008696024373884009,0.00022603105724339974
-0.04241306351378284,0.008676116318555508,0.00023037409241650963
-0.047464562892806865,0.00865364691195386,0.00023470653322413696
-0.05237149840174081,0.008628687896630224,0.00023902711692628297
-0.05713172896141444,0.008601312089789436,0.00024333461692288788
-0.06174313428195062,0.008571593373978595,0.00024762784328882987
-0.06620362024422746,0.00853960668534705,0.0002519056433036613
-0.07051112537118269,0.008505427998943197,0.00025616690197473383
-0.07466362841728882,0.008469134310496078,0.0002604105425520937
-0.07865915709072073,0.008430803614119076,0.00026463552703324744
-0.08249579789806469,0.008390514875371879,0.0002688408566556202
-0.08617170706425316,0.0083483479991313,0.000273025572374246
-0.0896851224430062,0.008304383791754485,0.00027718875532196745
-0.09303437630751568,0.008258703917066854,0.0002813295272491728
-0.0962179088958797,0.008211390845766005,0.000285447050939881
-0.09923428257204694,0.008162527797899024,0.00028954053060079726
-0.10208219644685623,0.008112198678144299,0.0002936092122198081
-0.10476050128870754,0.008060488003710408,0.00029765238389027176
-0.10726821454411199,0.008007480824752203,0.0003016693760973874
-0.1096045352852524,0.007953262637294862,0.0003056595619628992
-0.11176885890094802,0.007897919288748311,0.00030962235744440997
-0.11376079134580092,0.007841536876186625,0.0003135572214856437
-0.11558016276154101,0.007784201637659789,0.0003174636561141053
-0.11722704029041224,0.007725999836896801,0.0003213412064827444
-0.11870173991716541,0.007667017641844906,0.0003251894608524299
-0.1200048372032277,0.007607340997564807,0.0003290080505122823
-0.12113717680725164,0.007547055494062187,0.000332796649635189
-0.12209988071102126,0.0074862462296826195,0.0003365549750661252
-0.12289435508203109,0.007424997670734356,0.00034028278604122947
-0.1235222957059421,0.007363393508037362,0.00034397988383592237
-0.12398569192130472,0.00730151651113055,0.00034764611134071433
-0.12428682899241113,0.007239448380902121,0.0003512813525637225
-0.12442828886700416,0.007177269601437267,0.00035488553205930735
-0.12441294928398296,0.00711505929189952,0.00035845861428264155
-0.12424398121867498,0.007052895059273856,0.0003620006028704349
-0.12392484467407602,0.006990852852800668,0.00036551153984845354
-0.12345928284127555,0.00692900682092183,0.00036899150476688415
-0.12285131466055797,0.006867429171546372,0.0003724406137650012
-0.12210522581853502,0.006806190036426599,0.00037585901856699444
-0.12122555821976778,0.006745357340417023,0.00037924690541120534
-0.12021709797576127,0.006684996676368141,0.0003826044939154016
-0.11908486195945316,0.006625171186384337,0.00038593203588108973
-0.11783408298009898,0.006565941450149449,0.0003892298140402232
-0.11647019364504668,0.0065073653809931626,0.00039249814074800886
-0.11499880899265656,0.0064494981303337365,0.0003957373566258406
-0.11342570800041253,0.00639239200108547,0.0003989478291586954
-0.11175681408857686,0.006336096370563222,0.0004021299512516076
-0.10999817474996969,0.006280657623353585,0.0004052841397500868
-0.10815594044088818,0.0062261190945558705,0.00040841083392956413
-0.10623634286707179,0.00617252102372888,0.00041151049395913534
-0.1042456727914238,0.006119900519814256,0.0004145835993450211
-0.10219025747814944,0.006068291537246862,0.0004176306473592864
-0.10007643787617351,0.006017724863408282,0.00042065215145945016
-0.09791054563983763,0.005968228117529279,0.00042364863970468456
-0.09569888008972037,0.00591982576109689,0.0004266206531743411
-0.093447685229537,0.005872539119767075,0.00042956874439455713
-0.09116312695184807,0.0058263864167217285,0.00043249347577867936
-0.08885127057957645,0.005781382817338873,0.0004353954180871945
-0.08651805889729355,0.005737540484969655,0.00043827514891277167
-0.08416929082490106,0.005694868647539106,0.00044113325119589885
-0.08181060087999047,0.0056533736746128835,0.00044397031177643683
-0.0794474395697714,0.005613059164500443,0.00044678691998621515
-0.07708505485189289,0.005573926040895027,0.000449583666287564
-0.07472847480173186,0.005535972658481621,0.00045236114096240817
-0.07238249161492477,0.0054991949168774566,0.00045511993285624795
-0.07005164705461664,0.005463586382210071,0.0004578606281810198
-0.06774021942399557,0.005429138415590418,0.00046058380938046996
-0.06545221211139486,0.00539584030770657,0.0004632900540612942
-0.0631913437265872,0.005363679418747075,0.00046597993399290764
-0.06096103983230679,0.005332641322857351,0.00046865401417830874
-0.05876442627779307,0.005302709956329826,0.0004713128519981055
-0.05660432415418511,0.005273867768721832,0.0004739569964293684
-0.05448324640141952,0.00524609587608293,0.00047658698734056963
-0.05240339609317175,0.005219374215459282,0.0004792033548634552
-0.05036666640949484,0.005193681699833615,0.0004818066188422784
-0.048374642281024526,0.005168996372660985,0.00048439728836040203
-0.04642860366025722,0.005145295561175664,0.0004869758613438612
-0.04452953034963603,0.005122556027673191,0.0004895428242410734
-0.04267810829473429,0.005100754118012099,0.0004920986517774948
-0.04087473723399397,0.005079865906629917,0.0004946438067836553
-0.039119539586023905,0.005059867337424913,0.0004971787400946691
-0.03741237045393626,0.005040734359914922,0.000499703890519004
-0.03575282863156024,0.005022443060143548,0.0005022196848740186
-0.03414026850266262,0.005004969785859992,0.0005047265380855195
-0.032573812726599614,0.004988291265552677,0.0005072248533483727
-0.03105236560231252,0.004972384720970449,0.0005097150223450034
-0.029574627001913885,0.0049572279728193926,0.0005121974255184509
-0.028139106769904353,0.004942799539376438,0.0005146724323964999
-0.026744139494836627,0.004929078727810253,0.0005171404019632965
-0.025387899573016067,0.00491604571804329,0.0005196016830747599
-0.024068416494627133,0.004903681639026379,0.0005220566149140274
-0.022783590289677084,0.004891968637330302,0.0005245055274831165
-0.02153120707461425,0.004880889937989229,0.0005269487421269464
-0.020308954640096022,0.004870429897560552,0.0005293865720858339
-0.019114438016690823,0.004860574049396355,0.000531819323072573
-0.01794519495160608,0.004851309141154281,0.0005342472938702107
-0.016798711231545454,0.0048426231646084925,0.0005366707769466514
-0.01567243579826004,0.0048345053778510415,0.0005390900590822663
-0.014563795623298488,0.004826946319995652,0.000541505422006728
-0.013470210333438157,0.004819937818506467,0.0005439171430413536
-0.0123891066031819,0.004813472989272313,0.0005463254957432983
-0.011317932346999076,0.004807546229534767,0.000548730750548
-0.010254170744578142,0.004802153203761873,0.0005511331754063242
-0.00919535411940568,0.004797290822545877,0.0005535330364129012
-0.008139077673873958,0.004792957214597557,0.0005559305984221871
-0.00708301306904736,0.004789151691911827,0.0005583261256488144
-0.0060249218233165,0.004785874708188736,0.0005607198822488395
-0.004962668488671976,0.004783127810610739,0.0005631121328785394
-0.0038942335451015017,0.004780913585102296,0.0005655031432274676
-0.0028177259340624403,0.004779235595232505,0.0005678931805225513
-0.0017313951373846212,0.0047780983149646435,0.0005702825140001006
-0.0006336427052112706,0.004777507055503995,0.0005726714153427178
0.00047696685693587794,0.004777467886541926,0.0005750601590782293
0.0016016959283294398,0.004777987552238243,0.0005774490229379243
0.0027416244341391307,0.00477907338232886,0.0005798382881715661
0.003897641434071206,0.004780733198795913,0.0005822282398168473
0.0050704377509340785,0.0047829752185921635,0.0005846191669211943
0.00626049974235153,0.004785807952965485,0.0005870113627140837
0.0074681042962107735,0.0047892401039751255,0.0005894051247283189
0.008693315100090351,0.0047932804588242004,0.0005918007548690187
0.009935980202195367,0.004797937782649772,0.0005941985594293872
0.011195730849460335,0.004803220710412686,0.0005965988490526529
0.012471981561027653,0.004809137638515307,0.0005990019386398848
0.01376393137530436,0.004815696616749391,0.000601408147203701
0.015070566197707592,0.004822905241142644,0.000603817797668174
0.016390662175875072,0.00483077054823604,0.0006062312166155186
0.017722790041848534,0.004839298911290471,0.0006086487339804003
0.019065320383321385,0.004848495938896763,0.0006110706826929471
0.02041642982803395,0.004858366376449602,0.0006134973982717837
0.021774108139575442,0.004868914010941504,0.0006159292183686314
0.023136166231615664,0.004880141579534302,0.0006183664822662503
0.024500245114852867,0.004892050682370919,0.0006208095303317266
0.025863825792231752,0.004904641700097689,0.0006232587034273437
0.0272242401052541,0.004917913716572061,0.0006257143422815112
0.028578682508278476,0.0049318644472254435,0.0006281767868224605
0.02992422272035217,0.004946490173532601,0.0006306463754776501
0.03125781918645053,0.004961785684009302,0.0006331234444420356
0.03257633327297333,0.004977744222124158,0.0006356083269185689
0.03387654412080852,0.004994357441472603,0.0006381013523344681
0.035155164080070606,0.005011615368522823,0.0006406028455369669
0.03640885465197964,0.005029506373205836,0.0006431131259723991
0.03763424286228176,0.0050480171475844006,0.0006456325068525967
0.03882793798514181,0.005067132692796256,0.0006481612943126919
0.039986548526127645,0.0050868363144240735,0.000650699786564497
0.04110669935888574,0.0051071096263953265,0.0006532482730497019
0.04218504889665982,0.005127932563459213,0.0006558070335971655
0.04321830617327686,0.005149283402226697,0.000658376337588587
0.044203247713535114,0.0051711387906984005,0.0006609564431368182
0.04513673409023838,0.005193473786149344,0.0006635475962810302
0.046015726088992175,0.005216261901194152,0.000666150030202866
0.046837300423689096,0.005239475157822322,0.0006687639644676202
0.0475986649588565,0.005263084149167959,0.0006713896042943678
0.04829717339843603,0.005287058108757282,0.0006740271398588491
0.04893033939586559,0.005311364986955857,0.0006766767456327774
0.049495850031247055,0.005335971534312635,0.0006793385797630946
0.049991578594377105,0.005360843391469041,0.0006820127834945399
0.05041559661244299,0.005385945185270746,0.0006846994806387249
0.0507661850682719,0.005411240630690925,0.0006873987770927152
0.05104184476625773,0.005436692638149557,0.0006901107604099253
0.05124130581524074,0.005462263425794932,0.0006928354994259115
0.05136353620791998,0.005487914636300722,0.0006955730439414353
0.051407749483306384,0.005513607457723529,0.0006983234244649414
0.051373411461955044,0.005539302747959844,0.0007010866520163623
0.05126024604317971,0.005564961162336127,0.0007038627179939363
0.051068240050321796,0.005590543283859503,0.0007066515941054852
0.050797647107690566,0.005616009755649006,0.0007094532323653623
0.0504489905309032,0.0056413214150586545,0.0007122675651580392
0.050023065205646734,0.005666439428992792,0.000715094505369052
0.04952093841541897,0.005691325429898059,0.0007179339465837747
0.04894394956298264,0.005715941651892659,0.0007207857633542224
0.04829370872459082,0.005740251066464553,0.0007236498115338118
0.04757209398692973,0.0057642175171424325,0.0007265259286797135
0.046781247541417194,0.005787805852524519,0.0007294139345221303
0.045923570539664706,0.005810982057044789,0.0007323136314995227
0.04500171673629028,0.005833713378863778,0.0007352248053584998
0.04401858495513305,0.005855968454286634,0.0007381472258167873
0.042977310416970484,0.0058777174281296595,0.0007410806472873914
0.04188125497152111,0.005898932069476783,0.000744024809661793
0.040733996289186836,0.00591958588229196,0.0007469794391497353
0.03953931608358364,0.005939654210385152,0.0007499442491729045
0.03830118744486159,0.005959114336267263,0.0007529189413095676
0.03702376136135146,0.005977945573468816,0.0007559032062870016
0.03571135249656537,0.005996129351933295,0.0007588967250183521
0.034368424277266094,0.006013649296126753,0.0007618991696803671
0.032999573339911575,0.006030491295531047,0.0007649102048282816
0.031609513373903525,0.006046643567209501,0.0007679294885439667
0.03020305838723577,0.006062096710149786,0.0007709566736133065
0.028785105406161,0.006076843751098135,0.0007739914087286185
0.02736061661113032,0.006090880181602458,0.0007770333397117936
0.025934600908066863,0.0061042039859822575,0.0007800821107536898
0.02451209493610331,0.0061168156599433,0.0007831373656651713
0.02309814351921963,0.00612871821955713,0.0007861987491350464
0.021697779577062065,0.0061399172003312,0.0007892659079900185
0.020316003518022152,0.006150420646104972,0.0007923384924516275
0.018957762149066536,0.006160239087521744,0.0007954161573850342
0.017627927157553527,0.006169385509848399,0.0007984985635343767
0.01633127325025712,0.006177875309950352,0.0008015853787393264
0.015072456066257319,0.00618572624227948,0.0008046762791273839
0.01385599000336826,0.006192958353796887,0.000807770950276403
0.012686226107317936,0.006199593907824558,0.0008108690883418083
0.011567330170338804,0.006205657296893973,0.000813970401142988
0.010503261174302173,0.006211174944730133,0.000817074609203394
0.009497750199299944,0.006216175197573534,0.0008201814467389699
0.008554279911861227,0.006220688205101324,0.0008232906625896386
0.007676064755300032,0.006224745791268115,0.000826402021088731
0.0068660319836647225,0.0062283813154528555,0.0008295153028654112
0.006126803698732038,0.006231629524373455,0.0008326303055753677
0.0054606800599735624,0.006234526395313132,0.0008357468445552894
0.004869623841893405,0.006237108971288599,0.0008388647533969398
0.004355246513714407,0.006239415188877501,0.0008419838844369814
0.003918796010666015,0.006241483699508596,0.0008451041091590779
0.0035611463502192957,0.006243353685098817,0.0008482253185052298
0.003282789222097944,0.006245064668991896,0.0008513474230937524
0.003083827654825184,0.006246656323211127,0.0008544703533418032
0.0029639718395875034,0.00624816827308473,0.0008575940594908771
0.0029225371725027953,0.006249639900337753,0.0008607185115342327
0.0029584445529896274,0.006251110145769126,0.0008638436990457594
0.003070222944708085,0.00625261731264355,0.0008669696309103626
0.003256014170149591,0.006254198871922264,0.000870096334956504
0.003513579881394548,0.00625589127043515,0.0008732238574920934
0.003840310638443661,0.0062577297430651095,0.0008763522627454684
0.004233237033933993,0.006259748129983204,0.0008794816322137306
0.004689042817347634,0.006261978699946024,0.0008826120639212129
0.005204079978435616,0.0062644519806449705,0.0008857436715913607
0.005774385741736384,0.006267196597075014,0.0008888765837357906
0.006395701404905163,0.006270239118861674,0.0008920109426647748
0.007063492930047145,0.006273603917445412,0.0008951469034238517
0.007772973174539136,0.006277313033971559,0.0008982846326617059
0.008519125627275472,0.0062813860586720125,0.0009014243074348668
0.009296729498977897,0.0062858400224535755,0.0009045661139551481
0.010100386003902413,0.006290689301329295,0.0009077102462860939
0.010924545666411043,0.006295945534246873,0.000910856904994988
0.011763536486952874,0.006301617554785214,0.000914006295767246
0.012611592803883829,0.006307711337107923,0.0009171586279902192
0.013462884687165973,0.006314229956480686,0.0009203141133136164
0.014311547694320055,0.006321173564576057,0.0009234729641938806
0.015151712806645354,0.006328539379701298,0.00092663539242995
0.01597753634800172,0.00633632169198996,0.0009298016076978728
0.016783229674402808,0.006344511883495561,0.0009329718160917442
0.017563088413523532,0.0063530984630175424,0.0009361462186783725
