acceleration,velocity,displacement
0.5504690907426901,0.0,0.0
0.5421906414980393,0.00027316493306018234,6.829123326504559e-08
0.5338501979852025,0.0005421751429309928,2.7212625226283935e-07
0.5254505285372963,0.0008070003245616176,6.09420119135992e-07
0.5169943959467539,0.0010676115556826301,1.078073089197054e-06
0.508484558196926,0.00132398129421855,1.675971301672349e-06
0.49992376933871935,0.0015760833761024613,2.400987469252602e-06
0.49131478049988603,0.0018238930135621126,3.2509815666687454e-06
0.48266034101480204,0.0020673867939407847,4.223801518544469e-06
0.4739631996628307,0.002306542679110193,5.317283886807213e-06
0.4652261060008109,0.0025413400055261035,6.529254557966287e-06
0.45645181177176786,0.0027717594849692483,7.857529430590125e-06
0.4476430723714495,0.002997783206005053,9.299915103333701e-06
0.4388026483573697,0.003219394636187258,1.085420956388178e-05
0.4299333069889684,0.003436578625023842,1.2518202879184555e-05
0.42103782378826615,0.003649321407718151,1.4289677887370052e-05
0.41211898410633346,0.003857610609691801,1.616641089172254e-05
0.4031795846743356,0.004061435251886968,1.814617235711723e-05
0.3942224351137129,0.0042607857568339805,2.0226727609297468e-05
0.38525035938057867,0.004455653955457554,2.2405837537370352e-05
0.3762661971236545,0.004646033094583612,2.4681259299880643e-05
0.3672728049397324,0.004831917845099458,2.705074703480141e-05
0.35827305751292926,0.005013304310712624,2.951205257375443e-05
0.3492698486230301,0.005190190037246614,3.206292616074424e-05
0.3402660920059782,0.005362574022403865,3.470111717565686e-05
0.331264722047778,0.005530456725917304,3.742437486273715e-05
0.32226869429267635,0.005693840080002417,4.023044906421708e-05
0.3132809857475325,0.005852727500012469,4.31170909592208e-05
0.3043045949662474,0.006007123895190914,4.608205380802165e-05
0.2953425418996724,0.006157035679407394,4.912309370167122e-05
0.28639786749648083,0.006302470781756432,5.223797031696218e-05
0.27747363304075595,0.006443438656890742,5.542444767662397e-05
0.26857291921600634,0.006579950294954932,5.868029491458539e-05
0.2596988248945445,0.00671201823098257,6.200328704606977e-05
0.2508544656646816,0.006839656553622377,6.5391205742221e-05
0.24204297212231446,0.006962880913069126,6.884184010889387e-05
0.233267487964822,0.00708170852809091,7.235298746918388e-05
0.2245311679312765,0.007196158192064935,7.592245414922285e-05
0.21583717563236618,0.007306250277955846,7.954805626672804e-05
0.20718868130684487,0.007412006742190649,8.322762052176466e-05
0.19858885953211156,0.007513451127400388,8.695898498916242e-05
0.1900408869097195,0.0076106085640108454,9.073999991201523e-05
0.1815479397436674,0.007703505770674192,9.45685284956865e-05
0.1731131917280965,0.007792171053542133,9.844244770174058e-05
0.16473981165872162,0.007876634304388837,0.00010235964904122333
0.1564309611789857,0.007956926997598264,0.0001063180393667201
0.14818979256886922,0.008033082186035228,0.00011031554166262846
0.1400194465825848,0.008105134495823091,0.00011435009583309305
0.1319230503419326,0.00817312012005422,0.00011841965948706238
0.12390371529451721,0.008237076811463333,0.00012252220871994176
0.11596453524932472,0.008297043874099293,0.0001266557388913324
0.10810858450587327,0.008353062154038093,0.00013081826539836674
0.10033891609634811,0.008405174029188648,0.00013500782444417342
0.09265856016022617,0.008453423398252792,0.00013922247380103377
0.0850705224656764,0.008497855668909267,0.00014346029356782428
0.07757778308238629,0.008538517745296282,0.00014771938692137568
0.0701832951993429,0.008575458014866715,0.00015199788086141643
0.06288998407086506,0.008608726334684267,0.00015629392694880418
0.055700746067015076,0.008638374017218738,0.00016060570203677992
0.04861844780120044,0.008664453815685792,0.00016493140899500605
0.041645925306523876,0.008687019908962723,0.0001692692774261682
0.03478598323107937,0.008706127886097124,0.00017361756437493314
0.02804139402006544,0.008721834730409909,0.0001779745550290599
0.021414897049290404,0.008734198803177247,0.00018233856341245668
0.014909197670281123,0.00874327982685714,0.00018670793306996527
0.008526966122709886,0.008749138867805387,0.0001910810377436309
0.0022708362663504396,0.008751838318402651,0.00019545628204018292
-0.003856595916979699,0.008751441878489993,0.0001998321020894061
-0.009852774099306927,0.00874801453598592,0.00020420696619302507
-0.015715183700315816,0.008741622546536015,0.00020857937546365555
-0.02144135432654467,0.0087323334120293,0.00021294786445329687
-0.027028862570603683,0.008720215857805013,0.00021731100177075545
-0.03247533517727359,0.008705339808368044,0.00022166739068729872
-0.037778452581769456,0.008687776361428283,0.0002260156697297478
-0.04293595282779069,0.008667597760075892,0.00023035451326012385
-0.04794563587596575,0.008644877362899954,0.0002346826320408678
-0.052805368315974245,0.008619689611851968,0.00023899877378455578
-0.057513088498052575,0.008592109997648461,0.00024330172368693088
-0.062066812099452626,0.008562215022499084,0.0002475903049419678
-0.06646463813685853,0.008530082159940007,0.00025186337923757755
-0.07070475542850056,0.008495789811548667,0.0002561198472304497
-0.074785449503323,0.00845941726031571,0.0002603586489984158
-0.07870510994785868,0.008421044620452916,0.00026457876446860795
-0.08246223816980619,0.0083807527834235,0.00026877921381957703
-0.08605545553992691,0.008338623359996066,0.0002729590578554319
-0.08948351185652796,0.008294738618146951,0.00027711739834996766
-0.09274529406492137,0.00824918141666659,0.000281253378358671
-0.09583983515734108,0.008202035134361024,0.0002853661824964279
-0.09876632317256065,0.008153383594778548,0.0002894550371787128
-0.10152411020727761,0.008103310986433588,0.0002935192108240158
-0.10411272134469568,0.008051901778545595,0.0002975580140152606
-0.10653186340191968,0.00799924063235894,0.0003015707996179867
-0.10878143339688649,0.007945412308159238,0.00030555696285311626
-0.11086152663587785,0.007890501568151046,0.0003095159413221938
-0.11277244432265779,0.007834593075411412,0.0003134472149830844
-0.11451470059079048,0.00777777128918305,0.000317350306074233
-0.11608902886433732,0.007720120356819268,0.0003212247789857336
-0.11749638746090861,0.0076617240027379565,0.0003250702400756229
-0.11873796436462858,0.007602665414781573,0.0003288863374300028
-0.11981518111200752,0.007543027128412413,0.0003326727605658013
-0.12072969574643175,0.007482890909197804,0.00033642924007520387
-0.12148340480405567,0.007422337634060182,0.0003401555472110184
-0.12207844429621283,0.007361447171785115,0.0003438514934124797
-0.12251718965457915,0.007300298263297417,0.00034751692977125036
-0.12280225460850863,0.007238968402231645,0.00035115174643763264
-0.12293648897054842,0.00717753371633688,0.00035475587196727475
-0.12292297531632826,0.007116068850265161,0.00035832927260892524
-0.1227650245570404,0.0070546468502968186,0.0003618719515340657
-0.12246617041401739,0.006993339051554054,0.00036538394800952846
-0.12203016281348127,0.006932214968247179,0.0003688653365144788
-0.12146096022506805,0.006871342187487542,0.00037231622580341246
-0.12076272097115068,0.006810786267188488,0.00037573675791708147
-0.1199397935370841,0.006750610638561429,0.00037912710714351893
-0.11899670591622243,0.006690876513698102,0.00038248747893158383
-0.11793815402746038,0.0066316427987121816,0.0003858181087596864
-0.11676898924779203,0.006572966012893368,0.00038911926096258775
-0.11549420510915609,0.006514900214304131,0.00039239122751938714
-0.11411892321845993,0.006457496932222227,0.00039563432680601873
-0.11264837847010628,0.006400805106800086,0.00039884890231577433
-0.11108790362912449,0.006344871036275278,0.00040203532135154316
-0.10944291336884308,0.006289738332025787,0.00040519397369361844
-0.10771888785009656,0.006235447881721052,0.00040832527024705517
-0.10592135592933287,0.006182037820776195,0.0004114296416726795
-0.10405587808044965,0.006129543512273749,0.000414507537005942
-0.10212802911027395,0.006077997535476068,0.0004175594222678794
-0.10014338074264728,0.006027429683012837,0.0004205857790725017
-0.09810748414423391,0.005977866966791117,0.00042358710323495266
-0.09602585246762134,0.005929333632638153,0.00042656390338480997
-0.09390394349345055,0.005881851183647885,0.00042951669958888147
-0.09174714246101634,0.005835438412159268,0.0004324460219878333
-0.08956074518321752,0.005790111440248209,0.00043535240945093514
-0.0873499415445929,0.005745883768566257,0.00043823640825313876
-0.08511979948007636,0.005702766333310089,0.0004410985707786078
-0.08287524952856198,0.00566076757105793,0.00044393945425469985
-0.08062107005213268,0.005619893491162756,0.000446759619520255
-0.0783618732101784,0.005580147755347179,0.0004495596298318825
-0.07610209177575512,0.005541531764100696,0.00045234004971174446
-0.07384596687635893,0.005504044749437667,0.00045510144384012906
-0.07159753673108427,0.005467683873535806,0.0004578443759958724
-0.06936062644136377,0.005432444332742694,0.00046056940804744206
-0.06713883887560476,0.0053983194664134525,0.0004632770989972311
-0.06493554667321653,0.005365300870026247,0.00046596800408134104
-0.06275388538506327,0.005333378512011678,0.00046864267392685054
-0.06059674776686117,0.0053025408537236965,0.0004713016537682844
-0.05846677924627132,0.005272774971970413,0.0004739454827247079
-0.056366374587011506,0.005244066683512093,0.0004765746931385785
-0.054297675769933836,0.005216400670922857,0.00047918980997718725
-0.05226257110117617,0.0051897606092050795,0.0004817913502972192
-0.05026269554354693,0.005164129292543899,0.00048437982277265643
-0.048299432252142914,0.005139488760594976,0.0004869557272859412
-0.04637391528119274,0.005115820423711642,0.0004895195545820178
-0.044487033417089254,0.005093105186537072,0.00049207178598458
-0.04263943508277669,0.005071323569412105,0.0004946128931735673
-0.04083153425174745,0.005050455827078474,0.0004971433380226899
-0.03906351730715631,0.005030482064188748,0.0004996635724955067
-0.037335350782090125,0.005011382347166436,0.0005021740385983455
-0.03564678991794527,0.004993136811991428,0.000504675168388135
-0.03399738797711608,0.0049757257675176626,0.0005071673840330123
-0.03238650624366113,0.004959129793962468,0.0005096510979233824
-0.030813324643541994,0.004943329836240668,0.0005121267128309332
-0.029276852916637404,0.0049283072918506225,0.000514594622112956
-0.02777594227612903,0.004914044093052431,0.0005170552099591818
-0.026309297495355898,0.004900522783109559,0.0005195088516782222
-0.02487548936578867,0.004887726586394273,0.0005219559140205982
-0.023472967471859358,0.004875639472184861,0.000524396755535243
-0.022100073228835306,0.004864246212009688,0.0005268317269562917
-0.0207550531286995,0.004853532430420304,0.0005292611716168991
-0.01943607213653394,0.004843484649103996,0.0005316854258867802
-0.018141227177338008,0.0048340903242755275,0.0005341048196301251
-0.016868560653650576,0.004825337877317781,0.0005365196766805235
-0.015616073939087111,0.004817216718669596,0.0005389303153295204
-0.014381740801848866,0.004809717264984362,0.0005413370488254338
-0.01316352072358871,0.004802830949603003,0.0005437401858790807
-0.011959372090495022,0.004796550226399483,0.0005461400311730813
-0.01076726524106312,0.004790868567066593,0.0005485368858714479
-0.00958519535556578,0.004785780451917436,0.000550931048126194
-0.008411195166594762,0.004781281354286896,0.0005533228135777451
-0.007243347462646568,0.004777367718629586,0.0005557124758459742
-0.006079797350407355,0.0047740369324263225,0.0005581003270087381
-0.004918764235737961,0.0047712872920297866,0.0005604866580648521
-0.0037585534771457144,0.004769117962601566,0.0005628717593785099
-0.00259756765805948,0.004767528932317765,0.0005652559211022397
-0.0014343174164006846,0.00476652096104915,0.0005676394335755815
-0.0002674317644307376,0.004766095523753942,0.0005700225876967822
0.0009043321680237955,0.00476625474885484,0.0005724056752649344
0.0020820800294103093,0.004767001351904198,0.0005747889892901241
0.0032667718405714427,0.004768338564871694,0.0005771728242693181
0.004459214348085096,0.004770270061418858,0.0005795574764258908
0.005660054201981053,0.004772799878556375,0.0005819432439108846
0.006869772023842312,0.004775932335112831,0.0005843304269643019
0.008088677425205856,0.004779671947475093,0.0005867193280349489
0.009316905023725544,0.004784023343087326,0.0005891102518575895
0.010554411488556091,0.004788991172215397,0.0005915035054864152
0.011800973629228884,0.004794580018494843,0.0005938993982840927
0.01305618752555737,0.00480079430878354,0.0005962982418659123
0.014319468681253823,0.004807638222835243,0.000598700349998817
0.015590053172601516,0.004815115603298707,0.0006011060384553505
0.016866999756330475,0.00482322986653094,0.0006035156248228079
0.018149192898539907,0.0048319839146946575,0.0006059294282681143
0.019435346690328807,0.004841380049591875,0.0006083477692591859
0.02072400962412558,0.004851419888670489,0.0006107709692437515
0.02201357021288122,0.00486210428362974,0.0006131993502868266
0.023302263438850997,0.004873433242042673,0.0006156332346682447
0.024588178020763404,0.004885405852407577,0.0006180729444418572
0.025869264489680386,0.004898020213035188,0.0006205188009582179
0.027143344062597247,0.004911273365173257,0.00062297112435277
0.028408118295244488,0.004925161230762717,0.000625430233001754
0.029661179481902143,0.004939678555207004,0.0006278964429482464
0.030900021755810362,0.004954818855516432,0.0006303700673009273
0.03212205283420598,0.004970574374163936,0.0006328514156083474
0.03332460634733186,0.004986936038959321,0.0006353407932116282
0.034504954688886015,0.005003893429218376,0.0006378385005786726
0.035660322324570164,0.00502143474847174,0.0006403448326230952
0.03678789949504748,0.005039546803926645,0.0006428600780111948
0.03788485624831175,0.005058214992862484,0.0006453845184603921
0.03894835673313127,0.005077423296107845,0.0006479184280326347
0.03997557367989821,0.005097154278711102,0.0006504620724263394
0.04096370298831454,0.005117389097878155,0.0006530157082704867
0.04190997833476613,0.005138107518208926,0.0006555795824245085
0.042811685709108614,0.005159287934219894,0.0006581539312876157
0.04366617779298074,0.005180907400095417,0.0006607389801211945
0.04447088809989802,0.005202941666568637,0.0006633349423878605
0.04522334480872001,0.005225365224795791,0.0006659420191107016
0.045921184232543405,0.005248151357056107,0.0006685603982561646
0.04656216387178291,0.005271272194082189,0.0006711902541439492
0.04714417500251335,0.005294698778800763,0.0006738317468871699
0.04766525474977474,0.005318401136238835,0.0006764850218659299
0.048123597592361136,0.005342348349324369,0.0006791502092373206
0.04851756624351655,0.005366508640283338,0.0006818274234847225
0.04884570185321641,0.005390849457307521,0.0006845167630091202
0.04910673348231343,0.005415337566141404,0.0006872183097649824
0.049299586805618585,0.005439939146213386,0.0006899321289430712
0.04942339200814851,0.005464619890916829,0.0006926582687023537
0.0494774908452659,0.005489345111630182,0.0006953967599529904
0.04946144284248736,0.00551407984505212,0.000698147616192161
0.049375030614105864,0.005538788963416269,0.0007009108333942781
0.04921826428154667,0.005563437287140182,0.0007036863899569172
0.04899138497299592,0.005587989699453818,0.0007064742467035657
0.04869486738681974,0.005612411262543772,0.000709274346944065
0.04832942140266123,0.005636667334741142,0.0007120866165933863
0.04789599272323868,0.005660723688272616,0.0007149109643491397
0.04739576252544769,0.005684546627084788,0.0007177472819279791
0.046830146094349545,0.0057081031042397375,0.0007205954443608103
0.046200790413411734,0.005731360838366678,0.0007234553103464619
0.04550957069167108,0.005754288428642948,0.0007263267226632143
0.04475858582227875,0.005776855467771435,0.0007292095086373179
0.043950152782671496,0.005799032652422673,0.0007321034806673664
0.04308679999927772,0.0058207918906181605,0.0007350084368031265
0.04217125970648803,0.005842106405544602,0.0007379241613771672
0.041206459332815824,0.005862950835304428,0.0007408504256873795
0.040195511951445245,0.0058833013281254926,0.000743786988728237
0.03914170584039572,0.005903135632573453,0.0007467335979684117
0.03804849320670811,0.005922433182335229,0.0007496899901721389
0.036919478135180914,0.005941175175170701,0.0007526558922615154
0.035758403822875005,0.005959344645660215,0.0007556310222167231
0.03456913915748956,0.005976926531405306,0.0007586150900109895
0.03335566469413889,0.005993907732368213,0.0007616077985769329
0.032122058082637996,0.006010277163062407,0.0007646088448007905
0.030872478994716242,0.006026025797331746,0.000767617920540889
0.02961115359586048,0.00604114670547939,0.0007706347136665918
0.02834235860114312,0.006055635083528641,0.0007736589091138439
0.02707040495102351,0.006069488274416683,0.0007766901899533302
0.02579962114236865,0.00608270578094003,0.0007797282384671693
0.02453433625159554,0.006095289270288522,0.0007827727372299764
0.023278862690153886,0.006107242570023959,0.0007858233701900546
0.022037478736521447,0.006118571655380628,0.0007888798237464056
0.020814410892549137,0.006129284627787896,0.0007919417878171978
0.01961381611730247,0.0061393916845403585,0.0007950089568952799
0.018439764000828366,0.006148905079569891,0.0007980810310863074
0.017296218953746355,0.006157839075308535,0.000801157717125027
0.01618702250248939,0.006166209885672593,0.0008042387293652724
0.015115875789903968,0.006174035610245691,0.0008073237907392519
0.01408632238443847,0.006181336159789277,0.0008104126336817606
0.013101731498755199,0.006188133173260076,0.000813505001015023
0.012165281712100021,0.0061944499265627895,0.0008166006467899787
0.011279945282674545,0.006200311233311483,0.0008196993370799473
0.010448473131613121,0.006205743337915055,0.0008228008507227539
0.009673380582229026,0.006210773801343515,0.0008259049800075685
0.008956933945096064,0.006215431379975347,0.0008290115313028982
0.008301138045808641,0.006219745897973073,0.0008321203256223853
0.007707724794967442,0.006223748113683267,0.0008352311991252993
0.007178142899763625,0.00622746958060695,0.0008383440035488719
0.0067135488144024,0.006230942503535492,0.0008414586065699075
0.00631479902153395,0.0062341995904944755,0.0008445748920934149
0.005982443726954494,0.006237273901181598,0.0008476927604663339
0.005716722035942637,0.006240198692622322,0.0008508121286147849
0.005517558664831303,0.006243007262797516,0.0008539329301036399
0.005384562228572226,0.006245732793020866,0.0008570551151175945
0.005317025133238922,0.006248408189861319,0.000860178650363315
0.005313925088821884,0.006251065927416834,0.0008633035188926345
0.005373928240518002,0.006253737890749169,0.0008664297198471761
0.005495393897639116,0.0062564552212837085,0.0008695572681251842
0.005676380823324479,0.00625924816496395,0.0008726861939717461
0.005914655040467591,0.006262145923929898,0.0008758165424939696
0.006207699110110261,0.006265176512467542,0.000878948373103069
0.0065527228426129625,0.006268366617955723,0.0008820817588856748
0.006946675402552797,0.006271741467517015,0.000885216785907043
0.007386258762300558,0.006275324701058228,0.0008883535524491868
0.007867942448141482,0.0062791382513608385,0.0008914921681872916
0.008387979509854301,0.006283202231850337,0.0008946327533080944
0.008942423632165767,0.006287534832635842,0.000897775437574216
0.009527147295188476,0.006292152225367681,0.0009009203593387168
0.010137860881264458,0.006297068477411794,0.0009040676645144116
0.010770132618919473,0.006302295475786841,0.0009072175055027113
0.011419409251501169,0.0063078428612544455,0.0009103700400869716
0.012081037317433286,0.006313717972896679,0.0009135254302955094
0.01275028492890631,0.006319925803458264,0.0009166838412395981
0.013422363934860326,0.0063264689656742056,0.0009198454399318813
0.01409245235093195,0.0063333476697456535,0.0009230103940907362
0.014755716932921749,0.0063405597120666166,0.0009261788709361893
0.01540733576290347,0.006348100475240573,0.0009293510359830161
0.01604252071058961,0.006355962939358946,0.000932527051836666
0.016656539628590924,0.006364137704443742,0.0009357070769976166
