frame_number,force
0,506.7853700000323
1,506.5173106874573
2,506.2576078643763
3,506.0139997867355
4,505.79306355812747
5,505.5998182867029
6,505.4375247081277
7,505.3076873531257
8,505.21021338608597
9,505.14365325651187
10,505.10545309256497
11,505.0921738093505
12,505.0996607173049
13,505.1231709059617
14,505.1574802692369
15,505.19699556478224
16,505.2358896693461
17,505.26826927740365
18,505.2883848814767
19,505.2908992543916
20,505.2712248807665
21,505.225911483635
22,505.15302410247176
23,505.05242999719
24,504.92592833734966
25,504.7771975067594
26,504.6115703663833
27,504.4356612346215
28,504.2568695731006
29,504.08279698623
30,503.92064273786787
31,503.77666445384745
32,503.6557765631457
33,503.5613147583164
34,503.494953882998
35,503.45675063116676
36,503.4452839984214
37,503.4578706352236
38,503.49083686228545
39,503.53983922905576
40,503.6002368287859
41,503.66751512942926
42,503.7377348037753
43,503.8079455981361
44,503.8764896275757
45,503.94313113176395
46,504.0089842607023
47,504.0762532795483
48,504.14783657992484
49,504.2268674345797
50,504.31626689008004
51,504.41836887437273
52,504.5346510059466
53,504.6655762396556
54,504.8105304770241
55,504.96783934705854
56,505.13486367113916
57,505.3081894342721
58,505.4839226859188
59,505.6580723996767
60,505.82697453949584
61,505.98769360636265
62,506.13833383582266
63,506.2781986365497
64,506.40775902316574
65,506.52843238676354
66,506.6422177622601
67,506.75125783005956
68,506.8573922823449
69,506.9617535327911
70,507.0644603390463
71,507.164481590622
72,507.25973838304327
73,507.34746704586706
74,507.4247913398701
75,507.48938313488816
76,507.540060369188
77,507.5771867463616
78,507.60278302868255
79,507.6203213686429
80,507.6342485046706
81,507.6493537345782
82,507.67013055036193
83,507.7002605547326
84,507.7422912915192
85,507.7975172236858
86,507.8660294502132
87,507.9468819475535
88,508.03832228726947
89,508.13804349718356
90,508.2434284402366
91,508.35177398943955
92,508.4604883923449
93,508.5672500947051
94,508.670113736784
95,508.76755918667703
96,508.8584958124046
97,508.942243747666
98,509.01851205134386
99,509.08738644599777
100,509.1493342367892
101,509.2052305118925
102,509.25640119382496
103,509.3046631099268
104,509.3523259749481
105,509.40211446362866
106,509.4569758330727
107,509.5197649182946
108,509.59284283489313
109,509.67767213472666
110,509.774515889025
111,509.8823356436197
112,509.99893163866494
113,510.1212949726827
114,510.24607937911975
115,510.3700774412838
116,510.4906020368449
117,510.60570930054007
118,510.7142391225243
119,510.81568968475136
120,510.9099820872678
121,510.99719989250445
122,511.0773914416682
123,511.1504904743631
124,511.2163513632894
125,511.2748419597022
126,511.32592565238735
127,511.36969900892706
128,511.406401761974
129,511.43644586245966
130,511.46050352279195
131,511.4796604905448
132,511.49560095683603
133,511.5107557261846
134,511.52832586518315
135,511.55211382570263
136,511.5861622314905
137,511.63428004277296
138,511.6995723818132
139,511.7840683139739
140,511.8884927702155
141,512.0121951837191
142,512.1532381404979
143,512.3086427055083
144,512.4747619218837
145,512.6477163290732
146,512.8238034453767
147,512.9998091612408
148,513.1731929608256
149,513.3421549776153
150,513.5055993792505
151,513.663001509704
152,513.8141929434029
153,513.9591015083997
154,514.097500270599
155,514.2288130336643
156,514.3520031793973
157,514.4655583712664
158,514.5675754099775
159,514.6559317616685
160,514.7285077773796
161,514.7834202819203
162,514.8192514081109
163,514.835283515434
164,514.8317499258808
165,514.8100742384045
166,514.7730281264874
167,514.7247276933466
168,514.6704187542088
169,514.616047660656
170,514.5676556217705
171,514.5306714753644
172,514.509215770066
173,514.5055561886179
174,514.5198466372115
175,514.5502245218695
176,514.5932431898519
177,514.6445202175977
178,514.6994368508558
179,514.7537435397152
180,514.8039810030109
181,514.8476845357657
182,514.8833928842348
183,514.9105224960159
184,514.9291774406845
185,514.9399505095972
186,514.943754978264
187,514.9417136677021
188,514.9351096180568
189,514.9253732223658
190,514.9140626292714
191,514.9027983604841
192,514.8931353509645
193,514.8863852581618
194,514.8834245113733
195,514.884525702372
196,514.8892323544196
197,514.8962792608548
198,514.9035633628954
199,514.9081923391525
200,514.9066509710954
201,514.8951010497087
202,514.8697801429711
203,514.8274301087465
204,514.765690409054
205,514.683413693442
206,514.5808709730162
207,514.4598105794495
208,514.3233446360357
209,514.1756706254729
210,514.0216756035602
211,513.8664962588922
212,513.7151180197038
213,513.5720921140451
214,513.4414201680746
215,513.3266002751888
216,513.2307722816996
217,513.1568697498593
218,513.1076838219249
219,513.0857668472978
220,513.0931557013915
221,513.130965015281
222,513.1989585617008
223,513.2952322255705
224,513.4161288609215
225,513.5564495906984
226,513.709937909254
227,513.8699329893101
228,514.0300591040876
229,514.1848393897951
230,514.3301586357079
231,514.4635257088656
232,514.5841070878381
233,514.6925337976041
234,514.7905253813667
235,514.8804123573005
236,514.964656617775
237,515.0454596103825
238,515.1245156005402
239,515.2029252835235
240,515.2812478700301
241,515.3596459358872
242,515.4380654317425
243,515.5163882229784
244,515.5945003086593
245,515.6722444399506
246,515.7492660926869
247,515.8247983639583
248,515.8974541477895
249,515.9651031281442
250,516.0249001707471
251,516.0734895000547
252,516.107345496798
253,516.1231626293494
254,516.118204310171
255,516.0905573904984
256,516.0392833738149
257,515.9644824812029
258,515.8672906488007
259,515.7498297075872
260,515.6151377847674
261,515.4671083396876
262,515.3104463923246
263,515.150615611316
264,514.9937244429257
265,514.8463009156127
266,514.7149321703204
267,514.605784977158
268,514.5240666772498
269,514.4735170931183
270,514.4560246619452
271,514.4714348777832
272,514.5175846216185
273,514.5905630924257
274,514.685162892149
275,514.7954449885417
276,514.9153189212769
277,515.039048737567
278,515.1616264017204
279,515.2789872610506
280,515.3880628804972
281,515.4866781145851
282,515.5733179137621
283,515.6468255879275
284,515.7061343382188
285,515.7501422174739
286,515.7777908434442
287,515.7883200917668
288,515.7816011688518
289,515.758434200425
290,515.7207198443846
291,515.6714478050652
292,515.6144781961966
293,515.5541304607035
294,515.4946418641999
295,515.4396010093151
296,515.3914775034597
297,515.351341766876
298,515.3188100175761
299,515.2921910732068
300,515.2687821032379
301,515.2452573236191
302,515.218090057783
303,515.1839364897918
304,515.1399150669304
305,515.0837557166527
306,515.0138426141642
307,514.9291993588905
308,514.8294649876702
309,514.7149011784555
310,514.5864586089539
311,514.4459026420953
312,514.295954486739
313,514.1403658746857
314,513.9838423660849
315,513.8317709382845
316,513.6897717727134
317,513.5631519934316
318,513.456366655034
319,513.37258222117
320,513.3134056950494
321,513.2788107555818
322,513.2672654001891
323,513.2760380597887
324,513.3016323691704
325,513.3402770716751
326,513.3883786769309
327,513.442843817827
328,513.5012117816352
329,513.5616004450575
330,513.6225285643937
331,513.6826946445581
332,513.7407619384248
333,513.795167445115
334,513.8439844983138
335,513.8848992600679
336,513.9153511830456
337,513.9328274778852
338,513.935240472277
339,513.9212964532512
340,513.890787669122
341,513.8447799253539
342,513.7856930191082
343,513.7172662213374
344,513.6443860298743
345,513.5727560218245
346,513.5084148782576
347,513.4571490301656
348,513.4238890731935
349,513.4122069512863
350,513.4240231060941
351,513.4595819644136
352,513.5176794128747
353,513.5960625451985
354,513.6918933685604
355,513.8021734401351
356,513.9240552239754
357,514.0550077261099
358,514.192843324145
359,514.3356387891312
360,514.4816000819978
361,514.6289299444292
362,514.7757494555129
363,514.9200974665407
364,515.0600026742947
365,515.1936071873288
366,515.319312991895
367,515.4359119133413
368,515.5426490652138
369,515.6391782543692
370,515.7254020897719
371,515.8012292485163
372,515.8663032128624
373,515.9197591977279
374,515.9600589519904
375,515.9849393112078
376,515.9914889781353
377,515.9763483750282
378,515.9360225248299
379,515.8673023133789
380,515.7677820050324
381,515.6364238031242
382,515.4740667341221
383,515.2837472662964
384,515.0707266791713
385,514.8421972879822
386,514.606722815496
387,514.3735213261708
388,514.1517146188045
389,513.9496531196769
390,513.7743901420934
391,513.631334301259
392,513.52406286427
393,513.4542437683493
394,513.4216049920846
395,513.4239112273074
396,513.4569472372019
397,513.5145462009388
398,513.5887233747815
399,513.6699725824866
400,513.7477569579303
401,513.8111813673145
402,513.8497832240809
403,513.8543416008805
404,513.8175979223822
405,513.7348025667251
406,513.6040340857974
407,513.4262665532418
408,513.2051854693362
409,512.9467841579673
410,512.6588082857023
411,512.3501369465627
412,512.030185057893
413,511.7083893414775
414,511.39380395456135
415,511.0947911587544
416,510.8187680005928
417,510.57197358208515
418,510.35924257683746
419,510.18379254942573
420,510.04704890439206
421,509.9485447682608
422,509.8859444738042
423,509.85523728088043
424,509.8511205820066
425,509.86754763491706
426,509.8983748506406
427,509.9380171799423
428,509.9820074246676
429,510.02736176365545
430,510.07268528033734
431,510.11800483543203
432,510.16437881907785
433,510.21338122677713
434,510.2665699692924
435,510.3250247962254
436,510.38899876116227
437,510.4576920061632
438,510.52913603666076
439,510.60016921741044
440,510.6664951081809
441,510.7228461240127
442,510.76330362645365
443,510.7818215697231
444,510.77295726019474
445,510.73274588945804
446,510.6595859265186
447,510.55495204323586
448,510.4237484187512
449,510.27417689932344
450,510.1171063395888
451,509.96504189698663
452,509.83085836246096
453,509.7264687537936
454,509.66157212381984
455,509.64259460397847
456,509.67192201985824
457,509.7475155814894
458,509.86298568850765
459,510.00815797711397
460,510.1700983518626
461,510.33448367825537
462,510.48713997196995
463,510.6155456516899
464,510.7101175649494
465,510.76514386545836
466,510.77927360698976
467,510.75550537073565
468,510.7006546888543
469,510.62434885869305
470,510.5376882812303
471,510.45178110237106
472,510.376369636098
473,510.3187269173492
474,510.28293562936466
475,510.26959496924786
476,510.2759468324205
477,510.29637070891897
478,510.3231633072558
479,510.3474960658548
480,510.3604369586674
481,510.35393366859864
482,510.32167480525686
483,510.2597625506331
484,510.1671419312537
485,510.0457475210154
486,509.90035351481276
487,509.7381421414149
488,509.568031683731
489,509.3998333078867
490,509.2433381803505
491,509.1074550969942
492,508.99950200694883
493,508.9247104110588
494,508.8859617740178
495,508.8837549784233
496,508.916387183206
497,508.9802994127613
498,509.0705043997304
499,509.18100958369916
500,509.3051855120638
501,509.4360837589304
502,509.5667419094547
503,509.690512515976
504,509.8014288667457
505,509.8945882351123
506,509.96650560993504
507,510.015378903368
508,510.0412145538457
509,510.0457848855656
510,510.0324164520302
511,510.00563237384995
512,509.9706844151503
513,509.9330160924028
514,509.8977080944179
515,509.868974726606
516,509.849793277889
517,509.8417393127438
518,509.84505994487336
519,509.85895601572906
520,509.8819928172393
521,509.9125392203515
522,509.9491439411974
523,509.99078223946924
524,510.03693985316727
525,510.0875391599868
526,510.1427461335264
527,510.20271391660515
528,510.2673143533468
529,510.33589166806007
530,510.407063493611
531,510.47860668888075
532,510.54748539403545
533,510.6100765267988
534,510.662607979759
535,510.70175939697907
536,510.72531109276525
537,510.73269156167913
538,510.725290654505
539,510.70647367766895
540,510.6813177915391
541,510.65615222306036
542,510.6379994979988
543,510.6339985562638
544,510.65086355627517
545,510.69440700728575
546,510.76913670908175
547,510.8779275430569
548,511.0217749590926
549,511.199646225742
550,511.4084392256631
551,511.6430376005743
552,511.8964393972282
553,512.1599502093917
554,512.423462846652
555,512.6758734651406
556,512.9056873309099
557,513.1018328511316
558,513.2546394387193
559,513.3568663375061
560,513.4046130063188
561,513.3979151442715
562,513.3408618937486
563,513.2411686623218
564,513.1092690699369
565,512.9570915922369
566,512.7967342954294
567,512.6392512504578
568,512.4937269128563
569,512.3667448541581
570,512.262268306323
571,512.1818689577992
572,512.1251944354163
573,512.0905615707917
574,512.075582002721
575,512.077740675126
576,512.0948509893524
577,512.1253213995567
578,512.1681991296698
579,512.222998701782
580,512.2893630481699
581,512.3666386799215
582,512.4534714771936
583,512.5475374918609
584,512.6455026399547
585,512.7432538108484
586,512.8363726648896
587,512.9207545186712
588,512.9932349213522
589,513.0520920700677
590,513.0973366245262
591,513.1307554109726
592,513.1557179113822
593,513.1767796647358
594,513.1991354392434
595,513.2279945228772
596,513.2679656013196
597,513.3225406475383
598,513.3937512070154
599,513.4820349710049
600,513.5863030006841
601,513.7041603967718
602,513.8322263354764
603,513.9665187894117
604,514.102888525172
605,514.2374848954313
606,514.3672125215559
607,514.4901096108598
608,514.605568011254
609,514.7143366215882
610,514.8182962143669
611,514.920045429324
612,515.0223816637011
613,515.1277855962876
614,515.2380065908776
615,515.3537984160034
616,515.4748057524769
617,515.5995863074476
618,515.7257641399542
619,515.8503141488675
620,515.9699590750942
621,516.0816312136446
622,516.1829311435466
623,516.2725110071145
624,516.3503162389175
625,516.4176375491516
626,516.4769550962549
627,516.5315912736314
628,516.5852182460039
629,516.6412889617471
630,516.702477228006
631,516.7702227533466
632,516.8444733019356
633,516.9236862412517
634,517.0050934413881
635,517.0851668434636
636,517.1601776656343
637,517.226730815331
638,517.2821665892684
639,517.3247528482156
640,517.3536511572374
641,517.3687131443736
642,517.3702087494495
643,517.3585861308175
644,517.3343293825122
645,517.2979409474566
646,517.250044510191
647,517.1915832427173
648,517.1240743426739
649,517.0498677087713
650,516.9723416741949
651,516.8959589553206
652,516.8261119231265
653,516.768713330821
654,516.7295383033907
655,516.7133918225471
656,516.7232420094725
657,516.759490318089
658,516.819529766466
659,516.8976849309798
660,516.9855561919238
661,517.0727254543598
662,517.1477351141867
663,517.199227508593
664,517.2171185526176
665,517.1936721970002
666,517.1243478407954
667,517.0083179081515
668,516.8485988878806
669,516.6517957871196
670,516.4275046632245
671,516.1874389027837
672,515.944357084549
673,515.710892302126
674,515.4984098086828
675,515.3160282835745
676,515.169913008386
677,515.0628966083323
678,514.9944355181119
679,514.9608865753781
680,514.9560762616519
681,514.9721144510532
682,515.0003697206606
683,515.0324840062526
684,515.0612791437923
685,515.081414771546
686,515.089698604713
687,515.0850158003334
688,515.0679254906255
689,515.0400518946157
690,515.0034373720644
691,514.9600031447973
692,514.9112025464057
693,514.8578887604629
694,514.8003704852072
695,514.738597922457
696,514.6724108403585
697,514.6017870639722
698,514.5270448680884
699,514.4489719532054
700,514.3688753110885
701,514.2885617809942
702,514.2102560657024
703,514.1364443023439
704,514.0696248877279
705,514.0119808349402
706,513.9650448966702
707,513.9294598402392
708,513.9049112384204
709,513.8902493879328
710,513.883760775151
711,513.8835200086529
712,513.8877517049079
713,513.8951489179617
714,513.9051170122209
715,513.9179303223389
716,513.9347974327269
717,513.9578237576324
718,513.9898437947686
719,514.0340923079405
720,514.0937112280369
721,514.1711400715697
722,514.2674854140553
723,514.381986537723
724,514.5116852254054
725,514.6513730252387
726,514.7938378514339
727,514.9303827124867
728,515.0515611439349
729,515.14806025602
730,515.2116424830125
731,515.2360305912558
732,515.2176111666364
733,515.1558574442142
734,515.0534231342659
735,514.9159104059289
736,514.7513522997515
737,514.569470657962
738,514.3807804191956
739,514.195621184365
740,514.0232158006742
741,513.8708744714053
742,513.7434591029129
743,513.6431816553678
744,513.5697416028448
745,513.5207391384272
746,513.4922571696515
747,513.4794935484896
748,513.4773414310226
749,513.4808560273817
750,513.4856007080222
751,513.4879109577201
752,513.485125429399
753,513.475803742029
754,513.4599014297894
755,513.4388368778231
756,513.415384327541
757,513.393353330428
758,513.3770489708031
759,513.3705506695587
760,513.3769121944488
761,513.3974490549443
762,513.4312917692724
763,513.4753253972834
764,513.5245387467535
765,513.5727153295971
766,513.6133366976446
767,513.6405385711616
768,513.6499540784172
769,513.6392982238777
770,513.6086011598484
771,513.5600770002784
772,513.4976925087329
773,513.4265475888172
774,513.3521846156227
775,513.2799194268484
776,513.2142604823559
777,513.1584662371689
778,513.1142752554385
779,513.081821560298
780,513.0597254856972
781,513.0453390689198
782,513.035124049873
783,513.0251325686779
784,513.011533805332
785,512.9910998236786
786,512.9615600335734
787,512.92176535743
788,512.8716512166486
789,512.8120273491588
790,512.7442431173482
791,512.6697866352903
792,512.5898845714344
793,512.5051801723524
794,512.4155714745966
795,512.3202710802974
796,512.2180953082058
797,512.107924380875
798,511.98922744728355
799,511.8625323923122
800,511.7297409132185
801,511.5942350774975
802,511.4607729095946
803,511.33520443022195
804,511.2240434559206
805,511.1339138707713
806,511.0708842340822
807,511.03974107777475
808,511.0433167967333
809,511.0820266779227
810,511.15373572954024
811,511.25398208201943
812,511.37648362629056
813,511.51379539430184
814,511.6579841892845
815,511.8012293927218
816,511.9363091785747
817,512.0569633518265
818,512.1581380796671
819,512.2361228650745
820,512.2885887624489
821,512.3145358722196
822,512.3141702638015
823,512.288751935929
824,512.2404609617374
825,512.1723036147563
826,512.0880412658324
827,511.99210003663813
828,511.88942013150535
829,511.785226087147
830,511.68472985887445
831,511.59280000648124
832,511.5136323907611
833,511.45044708983846
834,511.40522621456455
835,511.37850692639114
836,511.3692535475518
837,511.37484398973584
838,511.39120798094945
839,511.4131424053606
840,511.434802691195
841,511.4503305419163
842,511.45453483921654
843,511.44351139611734
844,511.4150874175303
845,511.36901456539226
846,511.30689629648515
847,511.2318925089446
848,511.1482763596763
849,511.0609234676462
850,510.974801866305
851,510.8945109538476
852,510.8239011790689
853,510.76580227367236
854,510.721887261826
855,510.69268205829906
856,510.6776929225787
857,510.6755905713827
858,510.68438879464793
859,510.70158727528343
860,510.7242842081902
861,510.74928081480937
862,510.7732006517347
863,510.79264253282025
864,510.8043726389776
865,510.8055353295503
866,510.7938409776393
867,510.7676928240118
868,510.726238399685
869,510.6693543055829
870,510.59758325668395
871,510.51203746516137
872,510.41427079257835
873,510.30612135791284
874,510.1895462755349
875,510.06649405795423
876,509.938857809808
877,509.8085143369043
878,509.67740539575874
879,509.5475933174484
880,509.42123819670735
881,509.3004823498988
882,509.187263770673
883,509.0830988007132
884,508.9888786501245
885,508.90472434673364
886,508.8299408557953
887,508.76309981857037
888,508.7022610887081
889,508.6453135929124
890,508.5903777587954
891,508.5361843153952
892,508.4823492472281
893,508.4294969832636
894,508.3792171216885
895,508.3338569023543
896,508.29615956724916
897,508.2687788567615
898,508.253741442374
899,508.25197227501627
900,508.2630085273038
901,508.2849889885249
902,508.3149319918855
903,508.34924325793133
904,508.38435706009085
905,508.41740833674965
906,508.44683332349643
907,508.4727880474993
908,508.4972737220232
909,508.52389261674864
