frame_number,force
0,647.9987100000717
1,647.6701315952793
2,647.3561333298768
3,647.0701541174795
4,646.8234383895524
5,646.6241785613381
6,646.4769617637822
7,646.3825879742132
8,646.3382637394926
9,646.3381235445994
10,646.3739966710383
11,646.4363131064174
12,646.515031379417
13,646.6004830972731
14,646.6840579312687
15,646.758686185122
16,646.8191093803325
17,646.861959827048
18,646.8856893507436
19,646.8903905451779
20,646.8775489691546
21,646.8497623167111
22,646.8104606364674
23,646.7636488344998
24,646.7136698027288
25,646.6649705755884
26,646.6218571379421
27,646.5882411143284
28,646.5673996128094
29,646.561774316627
30,646.572821416978
31,646.6009009716543
32,646.6451894248269
33,646.7036297361147
34,646.7729778018479
35,646.8490107991877
36,646.9269102588243
37,647.001759517497
38,647.0690590120181
39,647.1251727223838
40,647.1676391802886
41,647.1952920858189
42,647.2081615583751
43,647.2071854545259
44,647.1938237615394
45,647.1696933106648
46,647.1363143606682
47,647.0950117224529
48,647.0469702320277
49,646.9934162135613
50,646.9358744642285
51,646.8764258584108
52,646.8178725176517
53,646.7637279109056
54,646.717998467418
55,646.6847899147518
56,646.667819170705
57,646.6699260564272
58,646.6926701591583
59,646.7360778407186
60,646.7985719800023
61,646.8770783718353
62,646.9672763616808
63,647.0639568483067
64,647.161454495328
65,647.2541157309618
66,647.3367520587079
67,647.4050218963192
68,647.4556903360636
69,647.4867371580038
70,647.4973172966163
71,647.4876119820352
72,647.4586258145583
73,647.4119824579669
74,647.3497628722869
75,647.2744204703774
76,647.1887833816293
77,647.0961077769851
78,647.0001016582473
79,646.9048325468729
80,646.8144766931762
81,646.7329364230312
82,646.6634077650838
83,646.6080016977204
84,646.5675120558747
85,646.5413884025039
86,646.5279142634595
87,646.5245240789599
88,646.5281517586743
89,646.5355184027252
90,646.5433281062122
91,646.5484097236579
92,646.5478775496138
93,646.5393637891478
94,646.5213093867292
95,646.4932250478843
96,646.4558010664936
97,646.4107813758962
98,646.3606044147983
99,646.3078989219894
100,646.2549684871808
101,646.203400839177
102,646.1539065951224
103,646.1064328319379
104,646.0605186093263
105,646.0157879097234
106,645.9724404853093
107,645.9316111280228
108,645.8955034438352
109,645.8672470145933
110,645.8504823689344
111,645.8487528911382
112,645.8648511505343
113,645.9002843073476
114,645.9549716096809
115,646.0272008817867
116,646.113807674987
117,646.2105238242481
118,646.3124442775352
119,646.4145509104693
120,646.5122150108194
121,646.6015980791016
122,646.6798864534803
123,646.7453198033204
124,646.7970089382998
125,646.8345918057007
126,646.8578366023454
127,646.8663362879191
128,646.8594205886388
129,646.836335362298
130,646.7966352691443
131,646.740657990001
132,646.6699340389171
133,646.5874234859085
134,646.497519040267
135,646.4057934057403
136,646.3185076440728
137,646.2419435407294
138,646.181660944641
139,646.141792758014
140,646.1244776591573
141,646.1295084115649
142,646.1542500807698
143,646.1938553252871
144,646.2417696406584
145,646.2904811500741
146,646.3324337940757
147,646.3609901008656
148,646.3712987774783
149,646.3609077802589
150,646.329991890997
151,646.2811423000288
152,646.2187679233903
153,646.1482443678473
154,646.074988702681
155,646.0036324499097
156,645.9374281202813
157,645.8779742694348
158,645.8252835512402
159,645.7781479156874
160,645.7346937750831
161,645.6929943699839
162,645.6516203791583
163,645.6100415795474
164,645.5688247818184
165,645.5296074430112
166,645.4948655391627
167,645.4675306703031
168,645.4505339636079
169,645.4463594695364
170,645.4566803976242
171,645.4821303845528
172,645.5222289461351
173,645.575439973512
174,645.639309743568
175,645.7106243008984
176,645.785551995469
177,645.8597819015075
178,645.9287029401428
179,645.9876678052573
180,646.0323537161418
181,646.0591930953167
182,646.0658205655699
183,646.0514716500676
184,646.0172720387876
185,645.9663690551931
186,645.9038656351414
187,645.8365195991655
188,645.7721904411255
189,645.7190715663245
190,645.6848189239164
191,645.6757323423959
192,645.696133554346
193,645.7480209208957
194,645.830999426984
195,645.942427844774
196,646.0777162165879
197,646.2307312579056
198,646.3942903597294
199,646.5607283112339
200,646.7225104422052
201,646.8728543124832
202,647.0063138635576
203,647.1192672912998
204,647.2102288837056
205,647.2798979516942
206,647.3308982791007
207,647.3672465841486
208,647.3936668951516
209,647.4148895617884
210,647.4350394835385
211,647.457167350458
212,647.4829457698154
213,647.512548533876
214,647.5447374256694
215,647.5771642561724
216,647.6068446994888
217,647.6307061105143
218,647.6460963831689
219,647.6511708025499
220,647.6451189555888
221,647.6282264829146
222,647.60178077919
223,647.5678368423611
224,647.5288750339271
225,647.4874087143997
226,647.4456193406496
227,647.4050902287414
228,647.366674705591
229,647.3304871058692
230,647.2959738530176
231,647.2620228017581
232,647.227092675784
233,647.1893690463236
234,647.146962973716
235,647.0981580222357
236,647.0416886888316
237,646.9770137403397
238,646.9045379576654
239,646.8257331998237
240,646.7431196107678
241,646.6600971738634
242,646.5806573418485
243,646.5090319339113
244,646.4493353897234
245,646.4052282453857
246,646.3795967216619
247,646.3742372999741
248,646.3895664290961
249,646.4244147467049
250,646.4759754667285
251,646.5399563528983
252,646.61095350963
253,646.6830245824451
254,646.7503825210666
255,646.8080779123984
256,646.8525253228662
257,646.8817773791051
258,646.8955418516076
259,646.8950207173086
260,646.8826730627851
261,646.8619556551447
262,646.8370213002576
263,646.81231719627
264,646.7920523852624
265,646.7795766505656
266,646.776785501177
267,646.7836932141332
268,646.7982851112379
269,646.8166929561999
270,646.8336655805158
271,646.8432503267594
272,646.8395692368935
273,646.8175721926813
274,646.773673433972
275,646.7062141866488
276,646.6157234204783
277,646.5049581369278
278,646.3787041546087
279,646.2433330980662
280,646.1061483675217
281,645.9745934123318
282,645.8554223013906
283,645.753946981722
284,645.6734783068905
285,645.6150496859874
286,645.5774427345544
287,645.5574571103035
288,645.550330751709
289,645.5502318606777
290,645.5507820252757
291,645.5456035641556
292,645.5288980654328
293,645.4960457836928
294,645.4441716671739
295,645.3725834378666
296,645.2829827535793
297,645.1793887392714
298,645.0677746695305
299,644.9554776008441
300,644.8504807926248
301,644.7606811425044
302,644.6932351583275
303,644.6540367547042
304,644.64733994564
305,644.6755174999837
306,644.7389451591899
307,644.8360057233115
308,644.963202974734
309,645.1153655399854
310,645.2859198443964
311,645.4672202900689
312,645.6509316155709
313,645.8284572573268
314,645.9914018973078
315,646.132050074775
316,646.243840084787
317,646.3218163621355
318,646.3630447388729
319,646.3669579761524
320,646.3355685177271
321,646.2734713318251
322,646.1875873097706
323,646.0866563608432
324,645.980537285556
325,645.8793814066993
326,645.7927382319043
327,645.7286597570935
328,645.6928994728337
329,645.6883262561902
330,645.7146652061318
331,645.7686258954583
332,645.8443947790754
333,645.9343871600325
334,646.0301122694669
335,646.1230148375732
336,646.2052001781536
337,646.2699975210678
338,646.3123503703075
339,646.3290454820232
340,646.3188093926171
341,646.2823071390995
342,646.2220647128626
343,646.1423124871737
344,646.0487280864377
345,645.94805428345
346,645.8475816528047
347,645.7545142974179
348,645.6752742261735
349,645.6148360450725
350,645.5762073635902
351,645.5601697323822
352,645.5653566470985
353,645.588665638526
354,645.6259067711541
355,645.6725305081085
356,645.7242848468203
357,645.7777044310434
358,645.8303889065872
359,645.8810631266429
360,645.9294346743281
361,645.9758866158126
362,646.021071705833
363,646.0655048069888
364,646.1092652071841
365,646.1518979261434
366,646.1925405584674
367,646.2302257337628
368,646.2642545341141
369,646.2945245572129
370,646.3217266320781
371,646.3473762267934
372,646.3736906275435
373,646.4033430914603
374,646.4391270252479
375,646.4835664266172
376,646.5385201765577
377,646.6048367368512
378,646.6821125073312
379,646.7685926530391
380,646.8612351293312
381,646.9559415395878
382,647.0479373664049
383,647.1322531881311
384,647.2042280589269
385,647.2599483956735
386,647.2965619293437
387,647.3124560063475
388,647.3073348945705
389,647.2822416751364
390,647.2395396188123
391,647.1828232690995
392,647.1167092046957
393,647.0464764326474
394,646.9775740782582
395,646.9150655425337
396,646.8631122099505
397,646.824601619686
398,646.8009911529402
399,646.7923804833667
400,646.79776834096
401,646.8154159638008
402,646.8432391566848
403,646.8791708600066
404,646.9214618072789
405,646.9689097419816
406,647.021014160283
407,647.0780365232367
408,647.1409295742437
409,647.2111163989052
410,647.2901458540368
411,647.3792925860557
412,647.4791861331299
413,647.589543483172
414,647.7090441014867
415,647.8353335482211
416,647.9650996557476
417,648.0941661235572
418,648.2175941844068
419,648.32983899293
420,648.4250317948198
421,648.4974342545014
422,648.5420499919658
423,648.5553084611465
424,648.5356890120266
425,648.4841514209287
426,648.4042817845776
427,648.3021227561729
428,648.1857070712472
429,648.0643453519624
430,647.947742767097
431,647.8450430613179
432,647.7639167796615
433,647.709808368375
434,647.6854280429487
435,647.6905295096615
436,647.7219763896684
437,647.7740869688679
438,647.8392513668852
439,647.9088052400781
440,647.9740958820425
441,648.0276000324186
442,648.063885071933
443,648.0801928098789
444,648.0764987206383
445,648.0550433397651
446,648.0194823072115
447,647.9738900985683
448,647.9218546596425
449,647.8658374191666
450,647.8068873286243
451,647.7447193981027
452,647.6781047500172
453,647.6054678011276
454,647.5255515325998
455,647.4380025887202
456,647.3437452857058
457,647.245056069263
458,647.1453192478534
459,647.0485297928254
460,646.9586753483742
461,646.8791432988711
462,646.8122569248692
463,646.7589787721151
464,646.7187716766442
465,646.6896018430555
466,646.6680903115864
467,646.649828921721
468,646.6298471770968
469,646.6031632053905
470,646.5653177823516
471,646.5128009064521
472,646.4433269913236
473,646.3559689427632
474,646.2511946425811
475,646.1308479317778
476,645.998087407897
477,645.8572612322542
478,645.7136782831808
479,645.5732510130861
480,645.4420293108517
481,645.3256930216221
482,645.2290921078882
483,645.1558999968873
484,645.1083918857258
485,645.0873166054484
486,645.09182935088
487,645.1194877202843
488,645.1663536331665
489,645.2272575246378
490,645.2962546340304
491,645.3672441937547
492,645.4346551317599
493,645.4940585162535
494,645.5425761282805
495,645.57901859548
496,645.6037690063745
497,645.6184824048754
498,645.6256824874929
499,645.628323036623
500,645.6293676570715
501,645.6314337261358
502,645.6365344293248
503,645.6459296442694
504,645.6600745677404
505,645.6786514629867
506,645.700683372188
507,645.7247403796732
508,645.7492422665052
509,645.7728347798725
510,645.7947844540116
511,645.8153169239326
512,645.8358236639723
513,645.8588803392545
514,645.8880549072876
515,645.9275294360107
516,645.9815971320135
517,646.0541077096412
518,646.1479283124347
519,646.2644864083527
520,646.403465044346
521,646.5627052478337
522,646.7383260184363
523,646.9250200707045
524,647.1164503979365
525,647.3056740067964
526,647.4855536264197
527,647.6491622205587
528,647.790204884287
529,647.903467832729
530,647.9852740335106
531,648.0338990134595
532,648.0498840810035
533,648.0361793036266
534,647.9980549110616
535,647.942735263437
536,647.878740462822
537,647.814979369883
538,647.7597165978116
539,647.7195958991452
540,647.6989036404041
541,647.6991973059131
542,647.719338019559
543,647.75588604826
544,647.8037617095835
545,647.8570480458893
546,647.9098117467732
547,647.9568310195775
548,647.9941362072777
549,648.0192976030137
550,648.0314401011568
551,648.0310175716132
552,648.0194249088588
553,647.998548710772
554,647.970354538641
555,647.9365871688718
556,647.8986282652243
557,647.8575127516618
558,647.8140527735474
559,647.7689776153346
560,647.7229986536375
561,647.6767565846973
562,647.6306767553519
563,647.5848119142593
564,647.5387699903139
565,647.4918025314163
566,647.4430740429115
567,647.3920649850617
568,647.339007227336
569,647.2852262783363
570,647.2332768206076
571,647.1868078257422
572,647.1501682708516
573,647.1278362437017
574,647.1237924721013
575,647.140950627139
576,647.1807149075815
577,647.2426901340211
578,647.3245439105309
579,647.4220175916631
580,647.5290893572837
581,647.6382942358766
582,647.7411999828919
583,647.829025874336
584,647.893369183573
585,647.9269722742443
586,647.9244360943071
587,647.8827763255663
588,647.8017303907491
589,647.6837609634456
590,647.5337658170798
591,647.3585762748556
592,647.1663711658961
593,646.9661252328108
594,646.7671574377827
595,646.5787747450698
596,646.4099509423902
597,646.2689588608373
598,646.1628969921517
599,646.0971122558469
600,646.0745954869744
601,646.0954781790156
602,646.1567637426351
603,646.2523908639098
604,646.3736689378867
605,646.5100549351757
606,646.6501694492248
607,646.7828994088131
608,646.898421394595
609,646.9890043023541
610,647.0495060772378
611,647.0775493524993
612,647.0734207144707
613,647.0397652293493
614,646.9811343488318
615,646.9034155962685
616,646.8131680615653
617,646.716919863071
618,646.6205195909617
619,646.5286386871517
620,646.4444918902748
621,646.3697953583945
622,646.3049355693191
623,646.2492898919442
624,646.2016275138143
625,646.160522371888
626,646.124715243703
627,646.0933652876784
628,646.0661460732692
629,646.0431810568817
630,646.0248621742421
631,646.0116170963869
632,646.0036754514819
633,646.0008616294685
634,646.0024415773969
635,646.0070646086378
636,646.0128377123062
637,646.0175402821352
638,646.018951048889
639,646.0152315444258
640,646.0052919416578
641,645.989060858353
642,645.9676005442532
643,645.9430460589343
644,645.9183812749139
645,645.8970834568726
646,645.8826745773448
647,645.8782237983871
648,645.8858615734755
649,645.9063834995153
650,645.93902054937
651,645.9814249391494
652,646.0298812869823
653,646.0797137609135
654,646.125827270553
655,646.1633042607485
656,646.1879862684556
657,646.196991451297
658,646.189134527192
659,646.165211143476
660,646.128090903156
661,646.0825554095346
662,646.0348454631728
663,645.9919483898228
664,645.9607315647888
665,645.9470688561328
666,645.9550970876315
667,645.9867005587125
668,646.041279646356
669,646.115819349804
670,646.2052315297026
671,646.3029108857567
672,646.4014335913104
673,646.493334483435
674,646.5719040064819
675,646.6319349118364
676,646.6703269528865
677,646.6864520943252
678,646.6822134016022
679,646.6617843477247
680,646.6310613195026
681,646.5968919510013
682,646.5661702423732
683,646.5449218775557
684,646.5375227474832
685,646.5461823174385
686,646.5707821709349
687,646.6091014251448
688,646.6573923249643
689,646.7111945244051
690,646.7662098944141
691,646.8190329544943
692,646.8675731649424
693,646.9111055121522
694,646.9499962928188
695,646.9852225343849
696,647.0178237541337
697,647.0484110958905
698,647.0768283707989
699,647.1020182710274
700,647.1220991476307
701,647.1346147323284
702,647.1368967492066
703,647.1264807701823
704,647.1015227008206
705,647.0611663043201
706,647.0058171007231
707,646.9372867005058
708,646.8587789582331
709,646.7747015207191
710,646.6903127502308
711,646.6112461925107
712,646.542976187754
713,646.4902942675354
714,646.4568610329762
715,646.4448836105487
716,646.4549441583063
717,646.485977405774
718,646.5353786429595
719,646.5992250365599
720,646.6726031660183
721,646.7500351162902
722,646.8259779043569
723,646.8953541246866
724,646.9540709013903
725,646.9994827316971
726,647.0307273593187
727,647.0488318675058
728,647.0565025566068
729,647.0575958598598
730,647.0563733383036
731,647.0567116258517
732,647.0614436011688
733,647.0719602519292
734,647.0881285571054
735,647.1085062490222
736,647.1307789610495
737,647.1523157348986
738,647.1707327894256
739,647.1843688689708
740,647.1926045406236
741,647.1959935022574
742,647.1962035866537
743,647.1957839475431
744,647.1977900635557
745,647.2053175870975
746,647.2210159982902
747,647.2466596316158
748,647.2828397939112
749,647.3288186924443
750,647.3825685480232
751,647.4410034731716
752,647.5003804861091
753,647.5568002583798
754,647.6067079081101
755,647.6473041510355
756,647.6768129763486
757,647.6945853576673
758,647.7010482563879
759,647.6975439875497
760,647.6861298374598
761,647.6693921506978
762,647.6502768598057
763,647.6318941634287
764,647.6172566694818
765,647.6089487177759
766,647.6087643225458
767,647.6173755221658
768,647.6341080533841
769,647.6569066449664
770,647.6825508456099
771,647.7071245150536
772,647.726666262745
773,647.7378698734684
774,647.7386890503385
775,647.7287305093154
776,647.7093738515604
777,647.683612715988
778,647.6556599374669
779,647.6304005304509
780,647.6128004600167
781,647.607366490494
782,647.6177057602305
783,647.6461906529258
784,647.6937296498274
785,647.7596713232757
786,647.8418870035925
787,647.9370576971928
788,648.0411381929862
789,648.1499145307548
790,648.2595364260809
791,648.3669107384529
792,648.4698884684224
793,648.5672438824765
794,648.6584939801744
795,648.7436213628607
796,648.8227573881124
797,648.8958819371771
798,648.9626071280809
799,649.0221080376232
800,649.0732177941221
801,649.1146349774698
802,649.1451494557742
803,649.1638074750197
804,649.1699856242631
805,649.1633835096054
806,649.1439591703953
807,649.1118350064189
808,649.067213751395
809,649.0103581711296
810,648.9416804936903
811,648.8619448899518
812,648.7725264766136
813,648.6756295484358
814,648.5743696126883
815,648.4726645002067
816,648.3749377964818
817,648.28568999245
818,648.2090264345373
819,648.1482424017295
820,648.1055468594296
821,648.0819543543502
822,648.0773133443317
823,648.0904067067427
824,648.1190669191857
825,648.160277229166
826,648.2102656648026
827,648.2646309841484
828,648.3185507404188
829,648.3670957471406
830,648.4056223270834
831,648.4301702801275
832,648.4377901518997
833,648.4267505141811
834,648.3966054525068
835,648.348122654647
836,648.2830931272861
837,648.2040667868283
838,648.1140686771674
839,648.0163377120192
840,647.9141039453841
841,647.8104011891485
842,647.7079088771408
843,647.6088239470489
844,647.5147662660814
845,647.4267150783943
846,647.3449725751673
847,647.2691666171595
848,647.1983223646031
849,647.1310215808945
850,647.0656290634937
851,647.0005376162131
852,646.9343931037349
853,646.8662842653345
854,646.7958779770685
855,646.7234581525073
856,646.6498336391527
857,646.576134110902
858,646.5035747138712
859,646.4332915424501
860,646.3663119270848
861,646.3036451020256
862,646.2464063372166
863,646.1958625949635
864,646.1533189776334
865,646.1198328183522
866,646.0958176192355
867,646.0806553468913
868,646.072450072311
869,646.0680166855245
870,646.0631205199883
871,646.0529123184193
872,646.0324767914761
873,645.99742425228
874,645.9444666914978
875,645.8719158643112
876,645.7800350127139
877,645.6711830809736
878,645.5497114257104
879,645.4216025024893
880,645.2938773026652
881,645.1738436069755
882,645.0682982292927
883,644.9828097639554
884,644.9211811607698
885,644.8851405310188
886,644.8742656201007
887,644.8861260635015
888,644.916617366841
889,644.9604493182117
890,645.0117397983043
891,645.0646585948442
892,645.1140630365066
893,645.1560590867408
894,645.1884095868794
895,645.2107163249766
896,645.2243403363451
897,645.2320807819041
898,645.2376776014643
899,645.2452246291836
900,645.2585834234895
901,645.2808780195679
902,645.3141271731807
903,645.359038215037
904,645.4149559092648
905,645.479940245056
906,645.550942676848
907,645.6240573715311
908,645.694834354001
909,645.7586485576464
910,645.811117577412
911,645.8485453077676
912,645.8683408898369
913,645.8693416022666
914,645.8519754115945
915,645.8182311137435
916,645.7714387401575
917,645.7158890022739
