frame_number,force
0,481.73972000005557
1,481.9431405610004
2,482.145086195641
3,482.3440910231326
4,482.53868322516433
5,482.72735139478084
6,482.9085248345461
7,483.0805985735765
8,483.24200857206455
9,483.39133952688337
10,483.52744081039464
11,483.64952792532375
12,483.7572451540481
13,483.85065953783544
14,483.9301601235659
15,483.99626298707847
16,484.0493675141945
17,484.0895461235348
18,484.1164489799651
19,484.1293629019061
20,484.1274042163306
21,484.10978100780864
22,484.07605027529894
23,484.0263194804217
24,483.96137873191225
25,483.8827688210465
26,483.79278147227177
27,483.6943746669783
28,483.59099245887467
29,483.486301704737
30,483.3838789077818
31,483.28688865686064
32,483.1977912045656
33,483.1181065152599
34,483.04825390262175
35,482.98748638271246
36,482.93394855789325
37,482.88489602996304
38,482.8371000367009
39,482.7874123743818
40,482.73340480170623
41,482.67395741993096
42,482.60966649923137
43,482.54297239394174
44,482.4779680007112
45,482.419923885529
46,482.37462818793955
47,482.34766137369917
48,482.34371046523256
49,482.3659995808772
50,482.4158905542863
51,482.49268762388124
52,482.5936592290498
53,482.71426895146874
54,482.8485847996078
55,482.98980906642436
56,483.1308531392495
57,483.2648907598779
58,483.38584990682136
59,483.4888191460049
60,483.57034217274975
61,483.628573934146
62,483.663288521745
63,483.67576025608554
64,483.6685689814581
65,483.6453856382932
66,483.61076507129525
67,483.5699328052241
68,483.52853727406017
69,483.4923585445621
70,483.4669956860259
71,483.45756782906443
72,483.4684493482216
73,483.5030366060566
74,483.5635398654711
75,483.6508140139539
76,483.7642636667631
77,483.9018589063197
78,484.0602719229943
79,484.2351068092573
80,484.42117411643295
81,484.61277765431146
82,484.8040130260468
83,484.9890849091561
84,485.16262710500354
85,485.3199911907664
86,485.4574801675222
87,485.5725270357933
88,485.663827711282
89,485.73142436291505
90,485.77670884708897
91,485.80229668354747
92,485.81173013541905
93,485.80901032574195
94,485.79802296646733
95,485.78198758410826
96,485.76308885828365
97,485.7424082015991
98,485.7201719193637
99,485.69621999148717
100,485.6705332332317
101,485.64366360858
102,485.6169786788115
103,485.5927098642144
104,485.57383761187276
105,485.5638440791251
106,485.5663467094345
107,485.5846307920197
108,485.6211336906332
109,485.6769741738777
110,485.75163272549355
111,485.8428557646117
112,485.9467936519817
113,486.0583231461081
114,486.171472967545
115,486.2798677825295
116,486.3771246232266
117,486.4571702365626
118,486.514485783958
119,486.5443118887599
120,486.54285435881616
121,486.50751659508387
122,486.4371530758205
123,486.33230447263065
124,486.1953549981144
125,486.0305523342058
126,485.8438460544027
127,485.6425254235632
128,485.4346727079755
129,485.2284970905193
130,485.03166072240987
131,484.8507190422267
132,484.69075802771926
133,484.55524361342003
134,484.44604050787154
135,484.3635347458237
136,484.3068084478374
137,484.27384726806855
138,484.26178525274025
139,484.2671950283349
140,484.2864186087783
141,484.31591611480223
142,484.35259059174007
143,484.3940330820584
144,484.4386390016204
145,484.48558425058275
146,484.534699029849
147,484.58630211152325
148,484.64104143667277
149,484.69975165246507
150,484.7633208799754
151,484.83256377258476
152,484.9081032740197
153,484.990256720562
154,485.07891677667595
155,485.17342922827606
156,485.27249413860346
157,485.37413826622856
158,485.4758080689219
159,485.5746049537891
160,485.66763541668473
161,485.75240439447697
162,485.8271659621497
163,485.89115938831185
164,485.9446798644045
165,485.9889589153939
166,486.0258712361085
167,486.0575339277821
168,486.0858934093199
169,486.11239017788483
170,486.1377612383606
171,486.1620041885134
172,486.1844994008564
173,486.2042633856517
174,486.22027558844997
175,486.23179135444553
176,486.23855405755603
177,486.2408600940665
178,486.23948674883496
179,486.23553104544635
180,486.2302147663035
181,486.2246971027635
182,486.2199192599716
183,486.2164944896764
184,486.21465049965286
185,486.2142239828895
186,486.2147004815464
187,486.21529063062167
188,486.21503351747555
189,486.21291492370926
190,486.20798446854025
191,486.1994568729624
192,486.1867902487715
193,486.1697434405849
194,486.1484171133558
195,486.1232753409015
196,486.09513213319116
197,486.06508473812585
198,486.0343894562026
199,486.0042965325636
200,485.9758740913583
201,485.9498532335519
202,485.9265220438579
203,485.90568681511326
204,485.8867025121969
205,485.86855719853907
206,485.84999009652154
207,485.8296349165723
208,485.8061967760448
209,485.77867596850956
210,485.7466384177521
211,485.7105018096838
212,485.67176707964353
213,485.6331026902152
214,485.59821183482177
215,485.5714776410874
216,485.55745256721997
217,485.56030076500167
218,485.58330647517226
219,485.6285331191953
220,485.6966675855243
221,485.78703276915314
222,485.8977213767357
223,486.02580167374384
224,486.16755829676094
225,486.3187421385972
226,486.47481024481846
227,486.6311486363671
228,486.78328632350366
229,486.9271121848896
230,487.05909375663384
231,487.17648217449755
232,487.2774806970158
233,487.36135123049786
234,487.428427256117
235,487.47999630438875
236,487.51802645681624
237,487.5447510870706
238,487.5621789332036
239,487.57162607952705
240,487.5733547345078
241,487.56637151011745
242,487.5484151234095
243,487.5161558975787
244,487.46562099149554
245,487.3928340693841
246,487.2946138610626
247,487.16942135896335
248,487.01809707334394
249,486.84431548386664
250,486.65462700046857
251,486.4580487658767
252,486.26526361044347
253,486.0875556220354
254,485.93564452650014
255,485.8185906859528
256,485.7429314977431
257,485.71216695011947
258,485.72663358588846
259,485.7837180736857
260,485.8783043160896
261,486.0033407405833
262,486.15044310063803
263,486.3104855560317
264,486.4741625268018
265,486.6325232219797
266,486.77748673929244
267,486.90233111515533
268,487.00212065361546
269,487.07401523217607
270,487.11740959420456
271,487.13387531035727
272,487.12690895511
273,487.10151677631285
274,487.06368335764387
275,487.0197783670834
276,486.9759571437286
277,486.9376155541657
278,486.9089647788246
279,486.8927829999958
280,486.89036924029523
281,486.90167986852884
282,486.9255916454461
283,486.96022137124686
284,487.0032423126893
285,487.05216225498185
286,487.10455218520656
287,487.1582251272277
288,487.2113614850808
289,487.26257388407316
290,487.3109112347901
291,487.35581277491224
292,487.3970276962277
293,487.43451964775403
294,487.46838937123647
295,487.49886123292515
296,487.52636101114234
297,487.55165750433963
298,487.57598381468847
299,487.6010410399352
300,487.6288350594878
301,487.66137696715566
302,487.70033456446953
303,487.7467242418029
304,487.8006945619226
305,487.86141149212006
306,487.9270318647905
307,487.99474591355715
308,488.06087666445853
309,488.1210412479074
310,488.1703971520486
311,488.2039959829257
312,488.2172372560196
313,488.2063652214606
314,488.16890720565385
315,488.1039372343893
316,488.0120782166032
317,487.89522490859196
318,487.756051097878
319,487.5974221258282
320,487.4218524700188
321,487.23113910999564
322,487.0262695317292
323,486.80763340555103
324,486.5754656803813
325,486.3303661385758
326,486.0737259601208
327,485.807945052858
328,485.5363996104659
329,485.2631761165205
330,484.99262452697377
331,484.72882011276454
332,484.4750562346935
333,484.23348714987435
334,484.004987642477
335,483.78922597132004
336,483.5849013698005
337,483.3900882687571
338,483.2026350683547
339,483.0205642151408
340,482.8424129040903
341,482.667455596687
342,482.495770408611
343,482.32814282189486
344,482.16582563555545
345,482.0101874730228
346,481.86229374788456
347,481.72248689606306
348,481.59006002908575
349,481.46312002438333
350,481.3386917317516
351,481.2130443593821
352,481.0821689239936
353,480.94232431888184
354,480.79058178342666
355,480.6253044812803
356,480.44649183488616
357,480.2559148112034
358,480.0569941024276
359,479.854431974281
360,479.6536722382091
361,479.4602971486936
362,479.2794635827644
363,479.1154452244765
364,478.9713032966198
365,478.8486719227519
366,478.74762033785976
367,478.66654713473145
368,478.60208538675204
369,478.5490549963484
370,478.50055587879933
371,478.4482985333673
372,478.3831989286878
373,478.2961663993519
374,478.178948710043
375,478.0248916871768
376,477.8295079517405
377,477.59080698499577
378,477.3093920382334
379,476.9883568871657
380,476.633015837152
381,476.2504927969957
382,475.84919812000777
383,475.43823549151523
384,475.0267928142001
385,474.62357584455935
386,474.2363447267681
387,473.871605577604
388,473.5344842611653
389,473.2287779179885
390,472.9571531770603
391,472.7214327086423
392,472.522887539617
393,472.36245634780346
394,472.2408511312829
395,472.15855212961674
396,472.11571953179384
397,472.112059086481
398,472.1466805488069
399,472.2179797911036
400,472.32356306361646
401,472.46023129553936
402,472.62405398111605
403,472.8105611511339
404,473.0150480772788
405,473.23293729396727
406,473.46011752933515
407,473.6932000243557
408,473.9296762810143
409,474.16798842400374
410,474.4075215018667
411,474.6485150382352
412,474.8918897250119
413,475.1389956979001
414,475.39130436143836
415,475.6500871413823
416,475.91614717481616
417,476.1896693155034
418,476.47021396028435
419,476.75682485758824
420,477.04818990298907
421,477.3427981061852
422,477.6390558652775
423,477.9353402614097
424,478.22997265844236
425,478.5211064059894
426,478.80655293980664
427,479.08361342805114
428,479.3490064272907
429,479.59895927113877
430,479.82947029582573
431,480.03669071453004
432,480.21735456376365
433,480.36919897719787
434,480.49133438927913
435,480.58452761201585
436,480.6513553175338
437,480.69618254919743
438,480.7249317429167
439,480.74463957395096
440,480.7628436249929
441,480.7868791661751
442,480.823186443367
443,480.8767317041529
444,480.95063401320033
445,481.0460643279398
446,481.16244180623
447,481.29789520852023
448,481.4498927620525
449,481.615894457516
450,481.7938721829011
451,481.98258151090073
452,482.18153590969524
453,482.39070445818106
454,482.6100119722074
455,482.83875837269807
456,483.0750876317492
457,483.31562762699923
458,483.5553973459285
459,483.7880340707784
460,484.0063207801119
461,484.2029062329791
462,484.3710532462558
463,484.505265627592
464,484.6017214900313
465,484.6585236880796
466,484.67581428564546
467,484.65578341279354
468,484.60256995450277
469,484.52204193076744
470,484.42146561939444
471,484.3090985657962
472,484.1937461663163
473,484.08430503010123
474,483.9892995073986
475,483.91641689406197
476,483.8720620060291
477,483.86097240802115
478,483.8859462680018
479,483.9477217143999
480,484.0450110584856
481,484.17465621079947
482,484.3318564516938
483,484.51043334899884
484,484.70312621501023
485,484.9019321433856
486,485.0985037240504
487,485.28459806354016
488,485.45254781443805
489,485.59571629405195
490,485.7089084875639
491,485.7887195289997
492,485.8337923827241
493,485.84493500242445
494,485.82504659383187
495,485.77884077888126
496,485.712406261267
497,485.6326714001251
498,485.54683060304205
499,485.46178048874253
500,485.38362232741804
501,485.3172896878373
502,485.266328772977
503,485.23281163787004
504,485.2173416110578
505,485.2191257538629
506,485.2361101114493
507,485.26517255339974
508,485.3023530975139
509,485.3430969744007
510,485.3824985819071
511,485.41555229164555
512,485.4374263755789
513,485.4437766971867
514,485.43110727412443
515,485.3971628500425
516,485.34130635491994
517,485.2648040581827
518,485.17092915102717
519,485.06480987522446
520,484.95299336665795
521,484.84276548628907
522,484.7413398376245
523,484.6550737703286
524,484.5888613364511
525,484.54579496132766
526,484.5271048415437
527,484.53231210258497
528,484.55949714108044
529,484.60559509707895
530,484.666665329143
531,484.7381181704417
532,484.81491490300346
533,484.8917786793943
534,484.9634476134468
535,485.0249687798202
536,485.0720016992097
537,485.1010911118061
538,485.10987735667544
539,485.09723115824033
540,485.06332157963334
541,485.00963388634864
542,484.93893481067727
543,484.8551515513722
544,484.7631184341306
545,484.6681676906252
546,484.5755932646437
547,484.4900770340749
548,484.41520192113256
549,484.3531601444258
550,484.3047009480049
551,484.2692834310959
552,484.24534444138186
553,484.2305774219049
554,484.22214375668625
555,484.21679333035223
556,484.2109379075354
557,484.2007683935567
558,484.1825032276369
559,484.15279748579906
560,484.10926407120144
561,484.0509974772492
562,483.97896781327546
563,483.89617874013396
564,483.80755164628715
565,483.7195729548514
566,483.6397778790791
567,483.5761322181574
568,483.53634365952263
569,483.52712378846394
570,483.55344515794417
571,483.6178765432994
572,483.72010518919654
573,483.85674904408035
574,484.0215219511855
575,484.2057533846041
576,484.399207240311
577,484.59111095959906
578,484.77129030704276
579,484.9312879824384
580,485.06532690284064
581,485.17098037088107
582,485.24944080767517
583,485.30532780894356
584,485.34603529433866
585,485.3806851796765
586,485.4188263302903
587,485.4690723289923
588,485.5378846992329
589,485.628671810684
590,485.7413064571476
591,485.87209561117413
592,486.01417860680687
593,486.15828434718617
594,486.2937426327356
595,486.40962184051557
596,486.4958588029917
597,486.54425895865734
598,486.5492714191594
599,486.5084763764038
600,486.4227563873129
601,486.2961549083576
602,486.1354512713543
603,485.9495029356307
604,485.7484275057342
605,485.54271767743774
606,485.3423949013151
607,485.15629954094294
608,484.9915802473554
609,484.85340051607295
610,484.74485420099563
611,484.6670792062083
612,484.6195561016211
613,484.60055237609316
614,484.6076259982893
615,484.6380632325998
616,484.6891286523338
617,484.7580620641112
618,484.84184989860614
619,484.9368891649212
620,485.0387105507683
621,485.1419125533367
622,485.24038767998206
623,485.32782669968685
624,485.3984076584972
625,485.44753633033355
626,485.4725022356521
627,485.4729350974966
628,485.4509771270015
629,485.41112235626343
630,485.35972127189257
631,485.30420851460104
632,485.2521668714106
633,485.2103704100826
634,485.18394670901387
635,485.1757730502695
636,485.1861875439585
637,485.2130549491807
638,485.25217120134886
639,485.2979273806393
640,485.3441088397179
641,485.3846955802158
642,485.41455127898735
643,485.4299277595857
644,485.4287535406249
645,485.41070529179285
646,485.3770783177515
647,485.3304812970604
648,485.2743839825929
649,485.2125563925651
650,485.14846719216024
651,485.0847434881961
652,485.0228031748129
653,484.96274118009956
654,484.90349190526723
655,484.8432209213672
656,484.77984454225526
657,484.71155640953344
658,484.63725688337786
659,484.5568210408394
660,484.4711886307953
661,484.3822960804012
662,484.29288381493427
663,484.20621152398394
664,484.12572316178563
665,484.054725152645
666,483.9961479615812
667,483.9524297843139
668,483.925505726366
669,483.9168451946229
670,483.92747647706415
671,483.95795925063317
672,484.0082912296572
673,484.07775785675045
674,484.164759824395
675,484.26668075223614
676,484.37987060138084
677,484.4998051329623
678,484.62144043062057
679,484.7397287839658
680,484.85021428020974
681,484.9495970913075
682,485.0361535178193
683,485.1099266089948
684,485.1726537686963
685,485.22745697145024
686,485.27836773236066
687,485.3297802624719
688,485.38592078741874
689,485.45039646829287
690,485.5258588652612
691,485.6137966232921
692,485.7144584106103
693,485.82689238491986
694,485.94907338865335
695,486.07808223298514
696,486.2103088924584
697,486.34167024293777
698,486.46785127276905
699,486.58458380305365
700,486.6879651453385
701,486.7747995807733
702,486.8429312430628
703,486.8915297473513
704,486.9212808900146
705,486.93442741702773
706,486.93461662128897
707,486.92654491612706
708,486.91542761293664
709,486.9063564510827
710,486.9036414176346
711,486.9102559556293
712,486.92749164478187
713,486.9548769514965
714,486.9903535993277
715,487.03066267885634
716,487.0718694702013
717,487.10993252497985
718,487.14120268786957
719,487.1627509948557
720,487.1724836411063
721,487.1690780724981
722,487.1518231406698
723,487.1204539850267
724,487.0750559888172
725,487.01608536335686
726,486.94451287660297
727,486.86204298882836
728,486.7713149165539
729,486.6759840737908
730,486.58062067033893
731,486.4904209689523
732,486.4107667829172
733,486.3466773822477
734,486.3021980097779
735,486.2797894038568
736,486.2798227201998
737,486.30031065921816
738,486.33698471838204
739,486.3837593851897
740,486.4335342848815
741,486.4792048262407
742,486.51470236006116
743,486.53587995959964
744,486.54109982192716
745,486.5314460368386
746,486.5105555168051
747,486.48410906377336
748,486.45905365391485
749,486.44265283776264
750,486.4414914334571
751,486.46057946724625
752,486.5026924921589
753,486.56804535183807
754,486.6543304794542
755,486.7570811568435
756,486.8702696917649
757,486.9870293947021
758,487.100388503409
759,487.2039091892885
760,487.2921352531378
761,487.36078762313184
762,487.40671501612377
763,487.4276796285288
764,487.42209717683346
765,487.38884606470907
766,487.32722557212134
767,487.23709613813975
768,487.11918409616
769,486.9754774647423
770,486.80959079149943
771,486.6269680819423
772,486.4348371270226
773,486.24189325084126
774,486.05773708848733
775,485.89212159464483
776,485.75409836822456
777,485.6511852761263
778,485.58867658866484
779,485.56917415114657
780,485.5923640861305
781,485.6550351949939
782,485.75133060863084
783,485.8732130710313
784,486.0110995583572
785,486.1546048315632
786,486.29333318667295
787,486.41765610970134
788,486.5194068834102
789,486.59242931446187
790,486.6329426608085
791,486.6397106989339
792,486.61401428945777
793,486.55942931154397
794,486.48142069885114
795,486.38678410685
796,486.2829920042251
797,486.1775216181093
798,486.0772518790887
799,485.9880063383608
800,485.9142824874218
801,485.8591536054213
802,485.8242801060207
803,485.80994813919796
804,485.81507702160036
805,485.837195250459
806,485.8724476366852
807,485.9157262312372
808,485.96099303323604
809,486.0017961038215
810,486.0319139226781
811,486.0460281255673
812,486.0403230859809
813,486.0129280718804
814,485.9641471017157
815,485.89645922612453
816,485.8143051221115
817,485.72369355902475
818,485.63166909515866
819,485.5456911543442
820,485.47298179852123
821,485.4198966988237
822,485.3913638747589
823,485.39042872667875
824,485.4179474936833
825,485.47247862188345
826,485.5504164811819
827,485.6463779998363
828,485.7537917718873
829,485.8655810568928
830,485.9748150286551
831,486.07523721577434
832,486.16164212107316
833,486.23012439802557
834,486.2782419889286
835,486.30511174029704
836,486.31142074980613
837,486.2993213963799
838,486.2721870056716
839,486.23422530408413
840,486.18997660190144
841,486.14376523214327
842,486.0992065664283
843,486.05886782874734
844,486.0241336529145
845,485.9952629873695
846,485.97157823642516
847,485.95172203955354
848,485.9339409131014
849,485.9163734372175
850,485.89731506021434
851,485.87541654374667
852,485.8497724241879
853,485.81988107142115
854,485.7855035692978
855,485.74649085186655
856,485.7026582483127
857,485.6537571133603
858,485.5995454012403
859,485.5399179228948
860,485.47503792132784
861,485.40542256398805
862,485.3319689298439
863,485.2559374449817
864,485.17891567481416
865,485.10277393482403
866,485.0296144579143
867,484.96171474666016
868,484.9014671229315
869,484.85131311932884
870,484.813661741393
871,484.7907697885992
872,484.7845603442721
873,484.7963715640905
874,484.8266600409093
875,484.8747148939644
876,484.93845396363844
877,485.0143685511241
878,485.0976592356221
879,485.18256247527444
880,485.26281825526434
881,485.332198514107
882,485.38501923605685
883,485.41658614496754
884,485.423550735662
885,485.404159423528
886,485.3583635589156
887,485.28774588916247
888,485.19523771627445
889,485.0846543248919
890,484.96013796828083
891,484.8256327480839
892,484.6845069972902
893,484.5393933791887
894,484.3922525870997
895,484.2446037226127
896,484.0978259831717
