frame_number,force
0,581.7216800000309
1,581.7806846075231
2,581.838273364786
3,581.8931042699187
4,581.9439983930424
5,581.9900387327178
6,582.0306611042087
7,582.065728004796
8,582.095583749567
9,582.1210792539554
10,582.143540064537
11,582.164652617071
12,582.1862657457542
13,582.2101344747942
14,582.2376551975232
15,582.2696465397305
16,582.3062188107078
17,582.3467533488414
18,582.3899871206268
19,582.4341713586676
20,582.4772551341191
21,582.5170507507423
22,582.5513695399266
23,582.578149924558
24,582.5956061868534
25,582.6024041740014
26,582.5978401355712
27,582.5819777083611
28,582.555691328889
29,582.5205803359089
30,582.4787602331043
31,582.4325830845553
32,582.3843549655254
33,582.3361020391958
34,582.2894127289711
35,582.2453652536792
36,582.2045316156328
37,582.1670313382058
38,582.132605255781
39,582.1006977733118
40,582.070560874636
41,582.0414044648932
42,582.0126065734291
43,581.9839683524409
44,581.9559659869107
45,581.9299295809004
46,581.9080759729169
47,581.8933404936383
48,581.8889956795966
49,581.8981084457844
50,581.9229453262458
51,581.9644584758805
52,582.0219655219332
53,582.0930872125074
54,582.1739476018282
55,582.2595875821341
56,582.3445046978532
57,582.4232227508833
58,582.4908169394531
59,582.5433530914571
60,582.578216259138
61,582.5943012685215
62,582.5920356596434
63,582.573225785916
64,582.5407593259623
65,582.4982334808141
66,582.4495801860767
67,582.3987310644621
68,582.349332769956
69,582.3045115830638
70,582.2666943816618
71,582.2375002632845
72,582.2177077838188
73,582.2072852566326
74,582.2054644078445
75,582.2108456597769
76,582.2215315882271
77,582.2352805614247
78,582.2496645540592
79,582.2622191449294
80,582.2705823390794
81,582.272614910413
82,582.2664857546492
83,582.2507139496199
84,582.2241843933793
85,582.1861702225714
86,582.1363867767625
87,582.0750796218957
88,582.0031307771166
89,581.9221563653001
90,581.8345598775776
91,581.7434987923635
92,581.6527282811217
93,581.566312078684
94,581.4882314982701
95,581.4219615872414
96,581.3701017675893
97,581.3341375629159
98,581.3143716955636
99,581.3100139813105
100,581.3193832048121
101,581.3401624109636
102,581.3696609332494
103,581.4050631686548
104,581.4436652241978
105,581.4830947251044
106,581.5214827520994
107,581.557544742877
108,581.5905500597453
109,581.6201990583238
110,581.6464506708935
111,581.6693452411599
112,581.6888605483149
113,581.7048329958618
114,581.7169654705727
115,581.7249207411651
116,581.7284679190764
117,581.7276250517699
118,581.7227410526586
119,581.7144886772022
120,581.7037798855724
121,581.6916420740475
122,581.6790978291366
123,581.6670765959999
124,581.6563649646339
125,581.647584395256
126,581.6411792324063
127,581.6374067682073
128,581.636337736115
129,581.6378821359233
130,581.6418407278071
131,581.647958445451
132,581.6559448374952
133,581.6654405583095
134,581.6759420999962
135,581.6867266835847
136,581.6968196455681
137,581.7050186850702
138,581.7099630102284
139,581.710228837862
140,581.704435597178
141,581.6913521772561
142,581.6700056126855
143,581.6398086579588
144,581.6007163040264
145,581.5533926092878
146,581.4993446211146
147,581.440979907439
148,581.3815618628275
149,581.3250574745698
150,581.2758869635566
151,581.238588618377
152,581.217408852235
153,581.2158331781336
154,581.2361008385803
155,581.2787847553054
156,581.3425382720168
157,581.42408350811
158,581.5184533758152
159,581.6194430154843
160,581.7202021257992
161,581.8138932316182
162,581.8943323575629
163,581.9565246216022
164,581.9970274185414
165,582.0141179486021
166,582.0077851758363
167,581.9795852896269
168,581.9323949072336
169,581.8700875550944
170,581.797163097801
171,581.7183757919556
172,581.6384196906217
173,581.5617248268543
174,581.4923896171433
175,581.4342320389393
176,581.3908960252141
177,581.365913507338
178,581.3626178336395
179,581.383849582368
180,581.4314792646883
181,581.5058499704794
182,581.6052803543561
183,581.7257613278293
184,581.8609452583405
185,582.002478919114
186,582.1406769515314
187,582.2654725665127
188,582.3675210873694
189,582.4392847123455
190,582.475912915845
191,582.4757623390595
192,582.4404706072017
193,582.3745941884719
194,582.2849088910025
195,582.1795222154263
196,582.0669538206258
197,581.9553165941636
198,581.8516869446682
199,581.7616975371864
200,581.68933592636
201,581.6369067160247
202,581.6051127393455
203,581.5932154668409
204,581.5992385154008
205,581.6201884172824
206,581.6522853487486
207,581.6912110389143
208,581.732382859353
209,581.7712565995888
210,581.8036518544327
211,581.826082821461
212,581.8360655242967
213,581.8323676580483
214,581.8151690633626
215,581.7861004337175
216,581.7481269537521
217,581.7052561451571
218,581.6620816187007
219,581.6232187472463
220,581.5927309947891
221,581.5736664349807
222,581.5677967726829
223,581.5755737685299
224,581.5962340936288
225,581.6279490068969
226,581.6679461954366
227,581.7125978077206
228,581.757524636336
229,581.7977823555234
230,581.828176574942
231,581.843718037873
232,581.8401823685315
233,581.814684781596
234,581.7661474925133
235,581.6955553315123
236,581.6059533233417
237,581.5022004584797
238,581.3905334095929
239,581.2780141699994
240,581.171940534173
241,581.0792880298284
242,581.006230913812
243,580.9577653706142
244,580.9374355396855
245,580.9471483871362
246,580.9870613540477
247,581.0555356825095
248,581.1491628263709
249,581.2628842835184
250,581.3902272383946
251,581.5236654840636
252,581.6550955231895
253,581.7764013975725
254,581.8800668452458
255,581.9597741169072
256,582.0109114228184
257,582.03091146456
258,582.0193695098392
259,581.9779318439931
260,581.909989969869
261,581.8202557245836
262,581.7143185704847
263,581.5982763357143
264,581.4784736907059
265,581.3613105543855
266,581.2530453927043
267,581.1595327733947
268,581.0858802583105
269,581.0360608538706
270,581.0125569993628
271,581.0161274354681
272,581.0457682952417
273,581.0988866100129
274,581.171643117222
275,581.2593867878671
276,581.3571118372606
277,581.4599010241425
278,581.5633417848788
279,581.6638951559468
280,581.7591723867491
281,581.84805724648
282,581.9306236689644
283,582.0078410347012
284,582.0811179451184
285,582.1517849638263
286,582.2206366341874
287,582.2876364888745
288,582.3518417645065
289,582.4115441191359
290,582.4645730085957
291,582.5086818696052
292,582.5419282774541
293,582.5629671003555
294,582.5712090550857
295,582.5668476763653
296,582.5507968277932
297,582.5245875143025
298,582.4902499032568
299,582.4501752381896
300,582.4069378453669
301,582.3630713763629
302,582.3208261655818
303,582.2819653395696
304,582.2476668118521
305,582.2185737847825
306,582.1949801456595
307,582.1770756137292
308,582.1651471290725
309,582.1596578984436
310,582.1611879019414
311,582.1702799153298
312,582.1872601930108
313,582.2120896007635
314,582.2442716360605
315,582.2828208333251
316,582.3262827997727
317,582.3727897759375
318,582.4201332435695
319,582.4658435607851
320,582.5072866487789
321,582.5418080505937
322,582.5669564391477
323,582.5807928538478
324,582.58224961488
325,582.5714642420867
326,582.5499952289388
327,582.5208379425549
328,582.4881998519787
329,582.4570505849337
330,582.4325133992935
331,582.4191964113717
332,582.4205692846932
333,582.4384748827514
334,582.4728361928568
335,582.5215927754651
336,582.5808801913054
337,582.6454364432221
338,582.7091783754025
339,582.765859594919
340,582.8097214258502
341,582.8360728740762
342,582.8417586124488
343,582.8254847258961
344,582.7879805921821
345,582.7319862019949
346,582.6620614487817
347,582.5842218038049
348,582.5054203161757
349,582.4329103845146
350,582.3735337075206
351,582.3329993076824
352,582.3152538743396
353,582.3220578155548
354,582.3528452251625
355,582.4048707863574
356,582.4735756137472
357,582.5530738099786
358,582.6366759822448
359,582.7174028397549
360,582.7884789321781
361,582.8438208816384
362,582.8785324914422
363,582.889382827243
364,582.8751918033688
365,582.8370195038797
366,582.7780747958874
367,582.7033197820467
368,582.6188222069991
369,582.5309664700923
370,582.4456575355941
371,582.3676441300184
372,582.3000591475593
373,582.2442346345922
374,582.1998062536587
375,582.1650821042929
376,582.1376050872066
377,582.1147892962204
378,582.0944855372742
379,582.0753487649364
380,582.056933670531
381,582.0395170671416
382,582.0237212950971
383,582.0100680681126
384,581.9986024478653
385,581.9886885145421
386,581.9790156005753
387,581.9677987371621
388,581.9531258347538
389,581.933392193978
390,581.9077554082759
391,581.8765314620721
392,581.8414422179344
393,581.8056324753024
394,581.7734111659214
395,581.7497274341193
396,581.7394481142454
397,581.7465427202694
398,581.7733040220953
399,581.8197411837659
400,581.8832728252439
401,581.9588070126595
402,582.0392254890951
403,582.1162106061928
404,582.181288307801
405,582.226922752814
406,582.2474946501437
407,582.2400275358498
408,582.2045818859997
409,582.1442929807048
410,582.0650691497881
411,581.974991387959
412,581.8834696506738
413,581.8002274663683
414,581.73421745882
415,581.6926100398438
416,581.6800139058447
417,581.6980496385906
418,581.7453162647522
419,581.8177103476901
420,581.9090112996045
421,582.0116322905628
422,582.1174374125154
423,582.2185336620518
424,582.3079579054671
425,582.3801973328499
426,582.4315133076062
427,582.4600797030199
428,582.4659788169652
429,582.4510983807274
430,582.4189406028007
431,582.3743191625372
432,582.32291826006
433,582.2707228281333
434,582.2233746260255
435,582.1855413720436
436,582.1603989105267
437,582.1493196114197
438,582.151830162414
439,582.1658474472673
440,582.1881348480819
441,582.2148684419293
442,582.2421866457463
443,582.2666247988712
444,582.2853927778559
445,582.2965092760177
446,582.2988358759027
447,582.2920518350497
448,582.2765897360238
449,582.2535345777744
450,582.224487187349
451,582.1913995442638
452,582.1563937542043
453,582.1215814770761
454,582.0889078432172
455,582.0600386553535
456,582.0362868516675
457,582.0185536480853
458,582.0072614090503
459,582.0022779049619
460,582.0028598504077
461,582.0076609644008
462,582.0148446310922
463,582.0223131811391
464,582.028030938896
465,582.0303968063765
466,582.0286149283355
467,582.023001616445
468,582.0151494502591
469,582.0078683394858
470,582.004860170704
471,582.0101494138154
472,582.0273566509507
473,582.0589452565595
474,582.1055893882527
475,582.1658014738241
476,582.2359173269372
477,582.3104715535053
478,582.3829121388188
479,582.4465141182139
480,582.4952900600076
481,582.524697189193
482,582.5320134273151
483,582.5163607376004
484,582.4784461257295
485,582.4201453878941
486,582.3440721062266
487,582.2532528215047
488,582.1509665898818
489,582.040725900416
490,581.9263225936509
491,581.8118641457775
492,581.7017587078843
493,581.6006268304809
494,581.5131146905243
495,581.4435891520862
496,581.3957308325157
497,581.3720889189027
498,581.3736878457319
499,581.3997720458887
500,581.4477537835289
501,581.5133968993947
502,581.5912208990446
503,581.6750530588489
504,581.7586204959414
505,581.8360813635176
506,581.902433150981
507,581.9537763787476
508,581.9874370544468
509,582.0019665312511
510,581.9970525594568
511,581.9733868192602
512,581.9325294896223
513,581.8767882711627
514,581.809103171118
515,581.732917060671
516,581.652020285513
517,581.5703750920986
518,581.4919343669203
519,581.4204615108841
520,581.3593474734479
521,581.3114236369634
522,581.2787835784712
523,581.2626382416795
524,581.2632300409265
525,581.2798261750502
526,581.310805106192
527,581.3538403082634
528,581.406167320676
529,581.4648968675239
530,581.5273193768888
531,581.5911441267613
532,581.6546303941426
533,581.7165939748762
534,581.7763044081646
535,581.8333173761145
536,581.8873026116828
537,581.9379227231509
538,581.9847916416439
539,582.0275031511961
540,582.0656898001811
541,582.0990658285257
542,582.1274245062965
543,582.1505867238825
544,582.1683171381828
545,582.1802291716124
546,582.1856983091668
547,582.1838085546809
548,582.1733692869053
549,582.1530401003597
550,582.1215785944288
551,582.078192434922
552,582.0229456767398
553,581.9571419487023
554,581.8835881648406
555,581.8066450669273
556,581.7320048436167
557,581.6661974877816
558,581.615895133635
559,581.587126601481
560,581.584516895823
561,581.6106433978074
562,581.6655804536115
563,581.746695638582
564,581.8487464551973
565,581.9642910811908
566,582.0843822811711
567,582.1994800885919
568,582.3004962106318
569,582.3798536052753
570,582.4324076799288
571,582.4560620285276
572,582.4519517070669
573,582.4241543219449
574,582.3789865980783
575,582.3240161916394
576,582.2669536499617
577,582.2145963810875
578,582.1719827749644
579,582.1418742034505
580,582.1246130123328
581,582.118325821215
582,582.1193840637321
583,582.1230141228896
584,582.1239620524909
585,582.1171425365117
586,582.0982192808564
587,582.0640729919996
588,582.0131257674562
589,581.9455108957832
590,581.863094609017
591,581.7693639151967
592,581.669196108575
593,581.5685292459607
594,581.4739621844863
595,581.3923192832885
596,581.3302070745939
597,581.2935730521516
598,581.2872692353468
599,581.3146354443132
600,581.377139897525
601,581.474129901701
602,581.6027437619921
603,581.7580200895763
604,581.9332159358056
605,582.1203094790214
606,582.3106249060974
607,582.4954972542141
608,582.6669031682894
609,582.8180063387429
610,582.9435842536425
611,583.0403119741054
612,583.1068893743326
613,583.1440158799181
614,583.154233324399
615,583.1416650134202
616,583.111677636805
617,583.0704841403165
618,583.0246919046319
619,582.9807924701788
620,582.9446005940692
621,582.9206800329857
622,582.911827478583
623,582.9187128284509
624,582.9397790357397
625,582.9714721214799
626,583.0088010236431
627,583.0461376593639
628,583.0780938427599
629,583.1002895761989
630,583.1098670229699
631,583.1056772162726
632,583.0881380159391
633,583.0588261336311
634,583.0199239313936
635,582.9736719452699
636,582.9219612911293
637,582.8661457356177
638,582.807082554716
639,582.7453423958098
640,582.6814851769759
641,582.6163017288859
642,582.5509605057125
643,582.4870422122508
644,582.4264673258907
645,582.3713264757062
646,582.3236337465602
647,582.285044638514
648,582.2565955211197
649,582.2385177703103
650,582.2301655112967
651,582.23007699722
652,582.2361617671784
653,582.2459737357698
654,582.2570108420738
655,582.266982343789
656,582.2739968082602
657,582.2766385781877
658,582.2739219968427
659,582.2651467547755
660,582.249710068507
661,582.2269357645293
662,582.1959564559758
663,582.1556653234265
664,582.1047585435707
665,582.0418961798214
666,581.965987368936
667,581.8765592329366
668,581.7741302302987
669,581.6604979069182
670,581.538863709358
671,581.413745099233
672,581.2906677828166
673,581.175683071899
674,581.0747959161473
675,580.9933990651787
676,580.935791601074
677,580.9048332456358
678,580.901760275738
679,580.9261639726005
680,580.9761083428562
681,581.0483487463922
682,581.1386134518881
683,581.241919539275
684,581.3529006386325
685,581.4661232149219
686,581.57636875373
687,581.6788678901613
688,581.769483190472
689,581.8448432328802
690,581.9024380196893
691,581.9406981229262
692,581.9590804161373
693,581.9581541268813
694,581.9396366327094
695,581.9063085508857
696,581.8617644731919
697,581.8100115472357
698,581.7549785580086
699,581.7000231566378
700,581.647522184807
701,581.5986052532298
702,581.5530593313415
703,581.509412267694
704,581.4651984168663
705,581.4173981400155
706,581.3630110921916
707,581.2996838527336
708,581.2262838517738
709,581.1433043260089
710,581.0530095190859
711,580.9592848890117
712,580.8672182411743
713,580.7824775394735
714,580.7105725859333
715,580.656108105199
716,580.6221491856768
717,580.6098058329904
718,580.6181026967288
719,580.6441494920905
720,580.683571775975
721,580.7311073591635
722,580.7812484624542
723,580.8288301559711
724,580.8695077839008
725,580.9000967469573
726,580.9187628462914
727,580.9250635422604
728,580.9198543778814
729,580.9050873373299
730,580.8835370308061
731,580.8584912620356
732,580.8334300446015
733,580.8117027010228
734,580.7962162173658
735,580.7891662018177
736,580.7918466651661
737,580.8045561951376
738,580.8265995555887
739,580.8563809589541
740,580.8915797074714
741,580.929375680567
742,580.9666735113138
743,581.0002890626166
744,581.0271032180791
745,581.0442217753591
746,581.049181979144
747,581.040221096917
748,581.0165910896958
749,580.9788741729126
750,580.9292219788118
751,580.8714174748986
752,580.8106765475801
753,580.7531780428606
754,580.7054009615766
755,580.673399513865
756,580.6621366579685
757,580.6749502526732
758,580.7131868479122
759,580.7760200452637
760,580.860454432045
761,580.9614961529577
762,581.0724673908235
763,581.1854620396838
764,581.2919582250221
765,581.3835896343024
766,581.453027619218
767,581.494861736777
768,581.5063190497702
769,581.4876590780224
770,581.4421349313501
771,581.3755123054111
772,581.2952514601835
773,581.209534462197
774,581.1263283839734
775,581.0526232761767
776,580.9939121541686
777,580.9539243023045
778,580.9345886006452
779,580.9361812809825
780,580.9576023538377
781,580.9967280074193
782,581.0507888977988
783,581.1167154210988
784,581.1913863639817
785,581.2717408723844
786,581.3547630165964
787,581.4373954827539
788,581.5164595760054
789,581.5886469620066
790,581.6506138278581
791,581.6991699508139
792,581.7315326146098
793,581.7456081073534
794,581.7402528973171
795,581.7154470137172
796,581.6723087344707
797,581.6129167365817
798,581.5399704044656
799,581.4563735079319
800,581.3648450366069
801,581.2676396021545
802,581.1664132313957
803,581.0622288442202
804,580.955680970125
805,580.8471209380119
806,580.7369572648604
807,580.6259847011081
808,580.5156724812564
809,580.4083326687694
810,580.3071006089206
811,580.2156929495302
812,580.1379607507598
813,580.077313192669
814,580.0361299946396
815,580.0152900288974
816,580.0139180784433
817,580.0294032339157
818,580.0576835939369
819,580.0937319790606
820,580.1321327305712
821,580.1676334052299
822,580.1955900691594
823,580.2122709121803
824,580.215010363879
825,580.2022160733806
826,580.1732410477066
827,580.1281510819258
828,580.0674424949556
829,579.9917880809161
830,579.901889871299
831,579.7984840380602
832,579.6824910198336
833,579.5552557583861
834,579.4187907422694
835,579.2759264143108
836,579.1302940579947
837,578.9861082599045
838,578.8477667790138
839,578.7193343789353
840,578.6040102960607
841,578.5036827819047
842,578.4186506526894
843,578.3475601267025
844,578.2875766742329
845,578.2347771914586
846,578.184701014773
847,578.1329534787479
848,578.0757369627125
849,578.0102075777766
850,577.9346159605818
851,577.8482564720533
852,577.7512838200502
853,577.644455999804
854,577.5288558810823
855,577.4056493344694
856,577.2759418297734
857,577.140774382427
858,577.0012526926106
859,576.8587557763856
860,576.7151460201943
861,576.5729033548837
862,576.4351246798607
863,576.3053614009907
864,576.1873044506972
865,576.0843550062541
866,575.9991375822259
867,575.9330272911134
868,575.8857773975137
869,575.8553378564153
870,575.8379356119647
871,575.8284347470886
872,575.8209188069046
873,575.809369957254
874,575.7882999413167
875,575.753230517634
876,575.7009907431907
877,575.6298424299727
878,575.5394501778637
879,575.4307053847875
880,575.3054177028777
881,575.1659027207461
882,575.0145114925044
883,574.8531608628991
884,574.6829340289248
885,574.5038249236111
886,574.3146862277658
887,574.1134019086284
888,573.8972506972646
889,573.6633794567275
890,573.4092872589928
891,573.1332411744305
892,572.8345915152939
893,572.5139983651078
894,572.173591883244
895,571.8170587059601
896,571.4496057656656
897,571.077744206777
898,570.7088718225008
899,570.3506834618864
900,570.0104707748235
901,569.6943813614353
902,569.4067142769325
903,569.1493453497112
904,568.9213824350284
905,568.7191197246036
906,568.5362936390316
907,568.3645764586175
908,568.1942125796054
909,568.0147110461184
910,567.8155378296827
911,567.5867789145669
912,567.319751585757
913,567.0075229446675
914,566.6452772625177
915,566.2304917814839
916,565.7629320086701
917,565.244520009792
