frame_number,force
0,493.1387600037353
1,493.1736681119994
2,493.20848372485165
3,493.2431147128954
4,493.27746968216104
5,493.3114583501011
6,493.3449919307628
7,493.37798353079427
8,493.4103485567959
9,493.44200513324836
10,493.4728745290532
11,493.5028815897824
12,493.53195517185566
13,493.56002857380963
14,493.587039958873
15,493.6129327625912
16,493.63765607925137
17,493.6611650211307
18,493.6834210449994
19,493.70439224073067
20,493.7240535772017
21,493.7423871009431
22,493.75938208330774
23,493.7750351124017
24,493.7893501267672
25,493.8023383888603
26,493.8140183976298
27,493.8244157407515
28,493.833562888131
29,493.84149892917077
30,493.8482692572207
31,493.85392520565256
32,493.8585236407107
33,493.86212651620275
34,493.8648003942449
35,493.866615935427
36,493.86764736184426
37,493.8679718977295
38,493.8676691942719
39,493.866820746533
40,493.8655093104751
41,493.86381832725715
42,493.8618313611297
43,493.85963155718576
44,493.85730112545673
45,493.85492085748893
46,493.85256968048265
47,493.8503242528431
48,493.8482586037454
49,493.84644381799694
50,493.8449477662993
51,493.84383487998
52,493.8431659677762
53,493.84299806993215
54,493.84338434236554
55,493.8443739621082
56,493.84601204531435
57,493.84833957070606
58,493.8513933038059
59,493.8552057201155
60,493.8598049281041
61,493.8652145950958
62,493.8714538806248
63,493.87853738234793
64,493.8864750990015
65,493.89527241324623
66,493.90493009522726
67,493.9154443260592
68,493.92680673954806
69,493.9390044801455
70,493.9520202751787
71,493.96583251961613
72,493.980415372013
73,493.99573886103195
74,494.011769003268
75,494.0284679348476
76,494.0457940607923
77,494.06370222679374
78,494.08214391772464
79,494.1010674864398
80,494.1204184159208
81,494.1401396177303
82,494.16017176938317
83,494.1804536919467
84,494.2009227670709
85,494.2215153904552
86,494.2421674570315
87,494.2628148718882
88,494.2833940798815
89,494.30384260564813
90,494.3240995942103
91,494.34410634081763
92,494.3638067976861
93,494.3831480451573
94,494.4020807152652
95,494.4205593564827
96,494.4385427296058
97,494.45599402651214
98,494.4728810060322
99,494.4891760443532
100,494.50485610091187
101,494.51990260393217
102,494.53430126201994
103,494.54804180951135
104,494.56111769409347
105,494.57352571600626
106,494.5852656288921
107,494.59633971276
108,494.606752329395
109,494.61650946995735
110,494.6256183036696
111,494.6340867355995
112,494.64192298102
113,494.6491351637381
114,494.65573094540986
115,494.66171719150066
116,494.6670996775248
117,494.6718828374035
118,494.67606955457427
119,494.67966099564575
120,494.68265648580154
121,494.6850534249399
122,494.68684724358985
123,494.6880313977179
124,494.6885974017214
125,494.68853489952335
126,494.6878317744643
127,494.6864742987455
128,494.6844473222452
129,494.68173449941247
130,494.67831855238126
131,494.6741815680949
132,494.66930532628214
133,494.66367165341836
134,494.6572627959298
135,494.65006180468964
136,494.6420529228096
137,494.63322196956324
138,494.62355671439667
139,494.61304723625494
140,494.6016862649257
141,494.5894695023589
142,494.5763959223656
143,494.56246804669325
144,494.54769219452726
145,494.5320787013291
146,494.5156421022339
147,494.4984012757721
148,494.48037954541843
149,494.46160473834243
150,494.44210920163084
151,494.42192977587916
152,494.40110772494705
153,494.3796886197676
154,494.35772217412165
155,494.33526203138865
156,494.3123655031129
157,494.2890932623256
158,494.26550899665847
159,494.2416790282923
160,494.21767190972224
161,494.193558006069
162,494.16940907589947
163,494.1452978626863
164,494.1212977074277
165,494.0974821892306
166,494.07392479573986
167,494.0506986210341
168,494.0278760862925
169,494.00552867785785
170,493.9837266972283
171,493.96253901759087
172,493.9420328421346
173,493.92227346072053
174,493.90332400303345
175,493.8852451874709
176,493.8680950656305
177,493.8519287626076
178,493.83679821359254
179,493.822751897478
180,493.8098345684412
181,493.79808698690556
182,493.78754565197767
183,493.77824253838526
184,493.7702048422465
185,493.7634547416967
186,493.75800917999146
187,493.75387967931425
188,493.75107219251464
189,493.74958699754393
190,493.749418636337
191,493.7505558973649
192,493.75298183943806
193,493.75667385324283
194,493.76160375619673
195,493.76773791559134
196,493.7750373949549
197,493.78345811930245
198,493.79295105613596
199,493.80346241001683
200,493.814933828965
201,493.8273026213732
202,493.8405019830357
203,493.85446123501515
204,493.8691060738948
205,493.88435883646724
206,493.90013878126473
207,493.91636238933626
208,493.9329436859653
209,493.94979458367726
210,493.96682524547236
211,493.9839444662649
212,494.0010600701269
213,494.01807932100974
214,494.034909345024
215,494.0514575627663
216,494.0676321299573
217,494.0833423835199
218,494.09849928868096
219,494.11301588158847
220,494.1268077018658
221,494.13979321038477
222,494.1518941888159
223,494.16303611875526
224,494.17314853917406
225,494.1821653814025
226,494.19002528096814
227,494.19667186584365
228,494.20205402119313
229,494.2061261310999
230,494.20884829759
231,494.21018653654346
232,494.21011294905355
233,494.20860586587816
234,494.2056499623619
235,494.20123634176093
236,494.195362585917
237,494.1880327732067
238,494.17925746428614
239,494.16905365631663
240,494.15744470635417
241,494.14446022461783
242,494.1301359382116
243,494.1145135253355
244,494.09764041941514
245,494.07956958274013
246,494.0603592505435
247,494.04007264819353
248,494.01877768485997
249,493.99654662605514
250,493.9734557456984
251,493.94958495718924
252,493.9250174231332
253,493.8998391446688
254,493.87413853299756
255,493.84800596682237
256,493.8215333395291
257,493.79481359943964
258,493.7679402859682
259,493.74100706428317
260,493.7141072609609
261,493.68733340296
262,493.6607767620987
263,493.6345269071605
264,493.6086712658664
265,493.58329469935694
266,493.55847909258125
267,493.534302964943
268,493.5108411062758
269,493.48816424313395
270,493.46633873925424
271,493.44542633221005
272,493.4254839063768
273,493.406563300909
274,493.3887111506776
275,493.37196875772366
276,493.3563719902487
277,493.34195120535287
278,493.3287311911483
279,493.3167311242516
280,493.30596454018786
281,493.2964393163766
282,493.28815766931274
283,493.2811161688095
284,493.27530577272876
285,493.27071188567913
286,493.26731444479617
287,493.26508803488156
288,493.26400203390403
289,493.26402078843535
290,493.265103817407
291,493.2672060417732
292,493.2702780370937
293,493.27426630561797
294,493.27911356434555
295,493.2847590458246
296,493.29113880885404
297,493.2981860565054
298,493.3058314590129
299,493.31400347927183
300,493.32262869899716
301,493.3316321439671
302,493.3409376074113
303,493.3504679718819
304,493.3601455318175
305,493.3698923206517
306,493.3796304469547
307,493.38928244388967
308,493.3987716359588
309,493.4080225267686
310,493.41696121062324
311,493.42551580855655
312,493.4336169263686
313,493.44119812947457
314,493.4481964278245
315,493.4545527638317
316,493.4602124963352
317,493.4651258732993
318,493.4692484852709
319,493.472541691263
320,493.4749730091991
321,493.4765164642317
322,493.4771528896582
323,493.47687017619603
324,493.4756634657836
325,493.4735352862085
326,493.4704956232339
327,493.4665619276018
328,493.461759055219
329,493.4561191400635
330,493.4496814009784
331,493.4424918853845
332,493.4346031546123
333,493.4260739164244
334,493.41696860999053
335,493.4073569473191
336,493.39731341351376
337,493.3869167269084
338,493.3762492599053
339,493.36539642265296
340,493.3544460140963
341,493.3434875474217
342,493.3326115588487
343,493.3219089099251
344,493.3114700938892
345,493.30138455640525
346,493.2917400406018
347,493.2826219662409
348,493.27411285257256
349,493.26629179324397
350,493.2592339896324
351,493.2530103469948
352,493.247687136366
353,493.24332572370247
354,493.23998236586687
355,493.2377080710195
356,493.2365485197945
357,493.23654404362367
358,493.23772965710054
359,493.2401351415136
360,493.2437851763284
361,493.2486995145264
362,493.2548931963701
363,493.26237679454925
364,493.2711566822655
365,493.28123531501814
366,493.29261151646307
367,493.3052807584152
368,493.31923542490443
369,493.33446505062943
370,493.35095652560545
371,493.36869426041227
372,493.3876603099513
373,493.40783445729886
374,493.4291942621388
375,493.4517150797149
376,493.47537005648076
377,493.50013010860295
378,493.5259638899645
379,493.5528377571077
380,493.5807157388104
381,493.6095595172846
382,493.63932842668675
383,493.6699794733797
384,493.70146738150567
385,493.7337446667154
386,493.76676173994844
387,493.80046704180273
388,493.8348072063971
389,493.8697272517927
390,493.9051707921388
391,493.9410802651244
392,493.97739716738533
393,494.01406229027407
394,494.05101594876305
395,494.08819819720617
396,494.12554902728004
397,494.16300854568675
398,494.20051713193754
399,494.2380155791733
400,494.2754452227025
401,494.312748061225
402,494.3498668747288
403,494.3867453412958
404,494.4233281530153
405,494.45956112952075
406,494.49539132717075
407,494.5307671429107
408,494.56563841370325
409,494.59995651388454
410,494.63367445313867
411,494.666746977076
412,494.6991306710741
413,494.73078406655816
414,494.7616677478035
415,494.7917444570062
416,494.82097919556435
417,494.84933931969067
418,494.8767946284549
419,494.9033174424961
420,494.9288826723706
421,494.9534678765966
422,494.97705331009064
423,494.9996219633206
424,495.0211595914651
425,495.0416547318219
426,495.061098707001
427,495.07948561127694
428,495.0968122781039
429,495.1130782282571
430,495.12828560008774
431,495.1424390655586
432,495.1555457375205
433,495.16761507459
434,495.17865878973987
435,495.18869076726367
436,495.19772699053055
437,495.20578548096546
438,495.21288624785643
439,495.2190512484952
440,495.2243043576031
441,495.2286713434321
442,495.2321798458981
443,495.2348593506329
444,495.2367411527722
445,495.237858305864
446,495.2382455537925
447,495.2379392457142
448,495.2369772347118
449,495.2353987603879
450,495.2332443147905
451,495.2305554904848
452,495.2273748094773
453,495.22374553208965
454,495.21971144551236
455,495.21531663219264
456,495.21060521810836
457,495.20562110055295
458,495.20040765498396
459,495.1950074212567
460,495.1894617709431
461,495.18381055900966
462,495.1780917647696
463,495.17234112849286
464,495.16659179080193
465,495.1608739416886
466,495.1552144850934
467,495.1496367243478
468,495.14416007391236
469,495.1387998034326
470,495.13356682035595
471,495.1284674968502
472,495.12350354583435
473,495.11867194996086
474,495.11396494639837
475,495.10937006923075
476,495.10487025036787
477,495.10044397904835
478,495.0960655188312
479,495.09170517901515
480,495.0873296352077
481,495.0829022924044
482,495.0783836839728
483,495.07373190072946
484,495.06890304477474
485,495.06385170230686
486,495.05853142851777
487,495.0528952368497
488,495.0468960853834
489,495.0404873550031
490,495.0336233161861
491,495.02625958278276
492,495.0183535519019
493,495.0098648294936
494,495.00075564167946
495,494.99099123206076
496,494.98054024464875
497,494.96937509051634
498,494.95747229428434
499,494.9448128150735
500,494.9313823361126
501,494.91717151760724
502,494.9021762081939
503,494.88639761091787
504,494.86984240000754
505,494.85252278481397
506,494.8344565174077
507,494.81566684091496
508,494.7961823768685
509,494.7760369511528
510,494.75526935892015
511,494.7339230690522
512,494.71204586875467
513,494.68968944942344
514,494.66690893667396
515,494.6437623703508
516,494.6203101435488
517,494.59661441227706
518,494.5727384888999
519,494.54874623240397
520,494.5247014465123
521,494.500667293188
522,494.4767057255516
523,494.45287694213175
524,494.4292388641995
525,494.4058466390813
526,494.3827521735969
527,494.3600037022863
528,494.33764539480376
529,494.315717006249
530,494.294253573936
531,494.27328516447113
532,494.25283667567703
533,494.23292769814225
534,494.2135724405745
535,494.19477972171643
536,494.1765530296571
537,494.1588906473233
538,494.14178584103007
539,494.1252271070998
540,494.10919846954687
541,494.0936798199421
542,494.0786472895099
543,494.0640736436566
544,494.0499286901776
545,494.0361796938029
546,494.02279179115635
547,494.0097284012637
548,493.99695162715466
549,493.98442264385193
550,493.9721020674882
551,493.9599502999783
552,493.9479278441243
553,493.9359955853968
554,493.92411503859773
555,493.9122485597287
556,493.90035952528257
557,493.8884124823527
558,493.87637327291895
559,493.8642091344517
560,493.85188877742746
561,493.8393824394288
562,493.82666191559616
563,493.8137005661633
564,493.8004733033296
565,493.78695656146647
566,493.77312825625137
567,493.7589677393958
568,493.7444557558937
569,493.72957441010107
570,493.71430714550667
571,493.6986387410173
572,493.68255532456715
573,493.66604440340745
574,493.6490949094255
575,493.6316972568041
576,493.61384340827476
577,493.5955269456965
578,493.57674314114536
579,493.55748902600254
580,493.53776345709724
581,493.5175671800513
582,493.4969028901014
583,493.47577528993725
584,493.4541911430322
585,493.43215931994496
586,493.40969083424636
587,493.38679886428014
588,493.3634987570636
589,493.33980801120686
590,493.31574623675954
591,493.29133509141303
592,493.2665981941471
593,493.2415610186144
594,493.21625076899085
595,493.19069624093135
596,493.16492767010425
597,493.13897657078735
598,493.1128755671521
599,493.0866582199981
600,493.06035885167546
601,493.0340123716033
602,493.00765410419024
603,492.9813196204122
604,492.9550445742388
605,492.92886454561346
606,492.9028148922975
607,492.8769306128921
608,492.8512462225521
609,492.82579564176604
610,492.8006120976733
611,492.77572803690674
612,492.75117504890704
613,492.72698379907916
614,492.7031839717947
615,492.6798042235
616,492.6568721458617
617,492.6344142383973
618,492.6124558896789
619,492.5910213657001
620,492.57013380324696
621,492.5498152056003
622,492.5300864380189
623,492.51096722115756
624,492.49247612163487
625,492.4746305400956
626,492.4574466977198
627,492.4409396217084
628,492.42512312903324
629,492.41000980646515
630,492.39561098425395
631,492.3819367010719
632,492.3689956589427
633,492.35679516867225
634,492.3453410884517
635,492.33463776032784
636,492.32468795052705
637,492.3154927996924
638,492.3070517878667
639,492.29936271701615
640,492.29242171204635
641,492.28622324047
642,492.28076015113965
643,492.2760237330987
644,492.2720037960128
645,492.26868877363677
646,492.26606585126683
647,492.264121117023
648,492.2628397353183
649,492.2622061395271
650,492.26220423985933
651,492.2628176413521
652,492.2640298653414
653,492.26582456611607
654,492.26818573348015
655,492.2710978721676
656,492.2745461504946
657,492.27851651305593
658,492.28299575523283
659,492.2879715600965
660,492.29343250042587
661,492.29936800997245
662,492.30576832905166
663,492.31262443015595
664,492.31992792961773
665,492.32767099155774
666,492.33584623051377
667,492.3444466188873
668,492.35346540415776
669,492.3628960387441
670,492.3727321230478
671,492.38296736006674
672,492.39359551818967
673,492.4046103975907
674,492.4160057953679
675,492.42777546523706
676,492.4399130689126
677,492.45241211778466
678,492.4652659044783
679,492.4784674239352
680,492.49200928327855
681,492.50588360001467
682,492.5200818894565
683,492.53459494377176
684,492.54941270587676
685,492.5645241416096
686,492.57991711363246
687,492.59557826035393
688,492.61149288279256
689,492.6276448419112
690,492.6440164686993
691,492.66058848899064
692,492.6773399643044
693,492.6942482487549
694,492.71128896059025
695,492.72843596580725
696,492.7456613712461
697,492.76293552587543
698,492.7802270310994
699,492.7975027629258
700,492.81472791015875
701,492.8318660333899
702,492.8488791495295
703,492.8657278459642
704,492.88237142714246
705,492.8987680946701
706,492.9148751602496
707,492.9306492894389
708,492.94604677336724
709,492.9610238251215
710,492.97553689733786
711,492.9895430173801
712,493.00300013632625
713,493.0158674880899
714,493.0281059555485
715,493.03967844113805
716,493.0505502391462
717,493.0606894054674
718,493.07006711849266
719,493.07865802328763
720,493.086440550944
721,493.09339720585587
722,493.0995148151723
723,493.1047847363138
724,493.109203020001
725,493.1127705278193
726,493.115493004687
727,493.11738110721365
728,493.11845038886446
729,493.11872124280205
730,493.11821880370303
731,493.11697281069354
732,493.1150174345982
733,493.11239107361854
734,493.10913612212033
735,493.10529871759695
736,493.1009284712867
737,493.0960781880819
738,493.09080358084395
739,493.08516298297
740,493.0792170613266
741,493.07302852981013
742,493.06666186216813
743,493.06018300164516
744,493.0536590645157
745,493.04715803440826
746,493.040748444618
747,493.034499046645
748,493.0284784647283
749,493.02275483743983
750,493.01739544820424
751,493.01246634728466
752,493.00803196849745
753,493.00415474416513
754,493.0008947210424
755,492.9983091784619
756,492.99645224868374
757,492.99537453889604
758,492.995122754355
759,492.995739322782
760,492.9972620216383
761,492.9997236119772
762,493.00315148427717
763,493.00756732237295
764,493.0129867915742
765,493.01941925696224
766,493.0268675381603
767,493.0353277074993
768,493.04478893883254
769,493.05523341373265
770,493.066636290503
771,493.07896573978934
772,493.09218304881955
773,493.10624279450974
774,493.1210930841528
775,493.1366758614765
776,493.15292727535865
777,493.1697781080907
778,493.1871542597104
779,493.2049772845007
780,493.22316497519967
781,493.2416319901083
782,493.2602905185536
783,493.2790509808651
784,493.29782275920905
785,493.31651495429327
786,493.33503716014474
787,493.3533002461229
788,493.3712171336076
789,493.3887035549483
790,493.405678783708
791,493.4220663270239
792,493.43779457235763
793,493.4527973820431
794,493.46701463034765
795,493.4803926795693
796,493.4928847936094
797,493.50445148878055
798,493.5150608219501
799,493.5246886156709
800,493.533318619283
801,493.5409426046481
802,493.5475603955748
803,493.55317983104027
804,493.5578166634816
805,493.56149439408506
806,493.56424404685873
807,493.5661038825393
808,493.56711905262057
809,493.5673411936412
810,493.56682796261015
811,493.56564251581796
812,493.56385293489984
813,493.5615316056413
814,493.5587545563702
815,493.55560076369676
816,493.5521514341494
817,493.54848927126073
818,493.5446977387257
819,493.5408603308551
820,493.5370598613024
821,493.5333777800836
822,493.5298935278198
823,493.5266839353824
824,493.52382267642946
825,493.5213797788396
826,493.51942119822036
827,493.51800845299357
828,493.5171983173074
829,493.5170425661833
830,493.51758776701035
831,493.5188751124114
832,493.52094029119496
833,493.5238133959205
834,493.5275188668376
835,493.53207547261866
836,493.5374963288816
837,493.5437889558738
838,493.5509553762521
839,493.5589922526856
840,493.56789106370536
841,493.5776383153271
842,493.5882157855831
843,493.59960079922126
844,493.611766530178
845,493.6246823293345
846,493.63831407412505
847,493.6526245351893
848,493.6675737542474
849,493.68311942706066
850,493.6992172854377
851,493.71582147238956
852,493.7328849047347
853,493.75035961798903
854,493.7681970894959
855,493.78634853732524
856,493.80476519382546
857,493.8233985533168
858,493.8422005936005
859,493.861123971417
860,493.8801221926913
861,493.89914975878173
862,493.91816228978405
863,493.9371166255538
864,493.9559709047383
865,493.97468462201687
866,493.9932186641577
867,494.0115353262089
868,494.0295983096287
869,494.0473727043633
870,494.0648249571576
871,494.0819228288305
872,494.09863534377394
873,494.11493273577327
874,494.1307863954967
875,494.14616882583186
876,494.1610536105773
877,494.1754154001466
878,494.1892299163999
879,494.2024739781307
880,494.21512554837267
881,494.2271638037925
882,494.23856922497373
883,494.24932370478155
884,494.2594106708344
885,494.26881521778074
886,494.2775242452995
887,494.2855265980005
888,494.2928132037367
889,494.2993772074792
890,494.30521409844346
891,494.3103218278807
892,494.31470091385046
893,494.31835452817865
894,494.3212885603237
895,494.3235116531402
896,494.3250352065818
