acceleration,velocity,displacement
-0.018894442218935232,0.0,0.0
-0.018201353375474922,-9.273948898602538e-06,-2.3184872246506348e-09
-0.0175101009975589,-1.8201812491860993e-05,-9.187427572266517e-09
-0.016822514283620076,-2.678496631215574e-05,-2.04341222732707e-08
-0.016140407830435435,-3.502569684066962e-05,-3.588678806147704e-08
-0.015465574167863979,-4.292719234024447e-05,-5.537501035670556e-08
-0.01479977611137669,-5.049352991005464e-05,-7.873019091928034e-08
-0.014144738899485249,-5.772965866277012e-05,-1.0578598806248652e-07
-0.013502142105917719,-6.464137891412086e-05,-1.3637874745670927e-07
-0.012873611341794293,-7.123531727604886e-05,-1.703479215042517e-07
-0.012260709786808903,-7.751889755819966e-05,-2.0753647521281384e-07
-0.011664929607054673,-8.350030740666556e-05,-2.4779127645403014e-07
-0.011087683334586195,-8.918846064207578e-05,-2.909634684662155e-07
-0.010530295304703277,-9.459295530189815e-05,-3.36908822452209e-07
-0.00999399326587098,-9.972402744454171e-05,-3.85488068138819e-07
-0.009479900286463287,-0.00010459250083262528,-4.365672002081107e-07
-0.008989027082425353,-0.00010920973267484745,-4.900177585849789e-07
-0.008522264884518268,-0.00011358755566658335,-5.457170806703365e-07
-0.00808037895571151,-0.0001177382166266408,-6.035485237436426e-07
-0.007664002860926356,-0.00012167431208080026,-6.634016559205028e-07
-0.0072736335847548295,-0.00012540872119222056,-7.25172414238758e-07
-0.006909627587341257,-0.00012895453648524457,-7.887632286581243e-07
-0.006572197882396991,-0.00013232499285267913,-8.540831109926052e-07
-0.0062614122119357156,-0.0001355333953762623,-9.210477080498406e-07
-0.0059771923775173074,-0.00013859304652362556,-9.895793185248125e-07
-0.005719314766833341,-0.00014151717330971323,-1.0596068734831472e-06
-0.005487412089425829,-0.000144318855023778,-1.13106588056652e-06
-0.005280976310530773,-0.00014701095212376716,-1.2038983323534062e-06
-0.005099362751003092,-0.00014960603688915063,-1.2780525796066356e-06
-0.004941795303798539,-0.00015211632640285103,-1.353483170429636e-06
-0.004807372699099783,-0.00015455361840357562,-1.4301506566312427e-06
-0.004695075729935685,-0.00015692923051083447,-1.5080213688598452e-06
-0.0046037753359968086,-0.0001592539432773176,-1.5870671623068831e-06
-0.0045322414451018185,-0.00016153794747259225,-1.6672651349943606e-06
-0.004479152488639831,-0.00016379079595602765,-1.7485973208515155e-06
-0.004443105524175187,-0.0001660213604592314,-1.8310503599553303e-06
-0.004422626896766863,-0.00016823779356446691,-1.914615148461255e-06
-0.004416183345038096,-0.00017044749612491814,-1.9992864708836014e-06
-0.00442219342119968,-0.00017265709031647757,-2.08506261749395e-06
-0.00443903906799479,-0.00017487239843877618,-2.1719449896827636e-06
-0.004465077193400142,-0.00017709842750412492,-2.259937696168489e-06
-0.004498651101042626,-0.0001793393595777356,-2.3490471429389542e-06
-0.004538101650606853,-0.00018159854776564796,-2.4392816197748e-06
-0.004581778024010068,-0.0001838785176843022,-2.5306508861372876e-06
-0.004628047968506044,-0.0001861809741824312,-2.623165759103971e-06
-0.004675307394896097,-0.00018850681302328174,-2.7168377059053993e-06
-0.004721989229950869,-0.00019085613717949348,-2.8116784434560933e-06
-0.004766571446609106,-0.00019322827734863347,-2.907699547088125e-06
-0.004807584220297066,-0.00019562181626536,-3.0049120704916236e-06
-0.004843616185880103,-0.0001980346163669043,-3.10332617864969e-06
-0.004873319793220579,-0.00020046385036167946,-3.2029507953318357e-06
-0.0048954157798061105,-0.00020290603425493614,-3.3037932664859898e-06
-0.004908696808448941,-0.00020535706240199991,-3.405859040650224e-06
-0.004912030364128106,-0.00020781224419514418,-3.50915136729951e-06
-0.004904361053832278,-0.00021026634204963427,-3.6136710138607045e-06
-0.004884712484001105,-0.0002127136104340926,-3.719416001981636e-06
-0.004852188888443905,-0.00021514783577720385,-3.82638136353446e-06
-0.0048059766483059775,-0.0002175623771613913,-3.9345589167691085e-06
-0.004745345796402575,-0.00021995020777256844,-4.0439370630025985e-06
-0.004669651542481762,-0.00022230395710728953,-4.154500604222563e-06
-0.004578335802266979,-0.0002246159539434767,-4.266230581985254e-06
-0.004470928668932747,-0.00022687827006127664,-4.379104137986442e-06
-0.004347049736318637,-0.0002290827646625895,-4.493094396667408e-06
-0.004206409172820386,-0.00023122112938987424,-4.608170370180524e-06
-0.0040488084568636555,-0.00023328493379729524,-4.724296885977316e-06
-0.0038741407175142705,-0.00023526567109088972,-4.841434537199362e-06
-0.003682390663799203,-0.00023715480393621808,-4.959539655956139e-06
-0.003473634118413508,-0.00023894381013177127,-5.0785643094731365e-06
-0.0032480371893464036,-0.00024062422795871125,-5.198456318995757e-06
-0.0030058551192222987,-0.00024218770103585344,-5.319159301244398e-06
-0.0027474308511977854,-0.00024362602252845847,-5.440612732135476e-06
-0.0024731933459657784,-0.00024493117857774937,-5.562752032412028e-06
-0.0021836556767908465,-0.0002460953908334385,-5.685508674764825e-06
-0.0018794129145773494,-0.00024711115798128056,-5.808810311968505e-06
-0.001561139788493734,-0.0002479712961570483,-5.9325809255030875e-06
-0.0012295880731172672,-0.00024866897812245105,-6.056740994072962e-06
-0.0008855836228676032,-0.0002491977710464473,-6.181207681365187e-06
-0.0005300229614723204,-0.00024955167269253225,-6.3058950422999315e-06
-0.00016386934059887446,-0.00024972514576805004,-6.430714246915077e-06
0.00021185180291545256,-0.0002497131501524709,-6.555573820895208e-06
0.0005960580518598667,-0.0002495111726887771,-6.6803799016055196e-06
0.0009876159343543292,-0.00024911525419222353,-6.80503650832577e-06
0.0013853476222490445,-0.00024852201330307266,-6.929445825199594e-06
0.0017880384282459754,-0.00024772866679044893,-7.053508495222974e-06
0.0021944450858967443,-0.0002467330459119132,-7.1771239233985645e-06
0.002603304753033181,-0.00024553360845218077,-7.300190586989588e-06
0.0030133446449154984,-0.0002441294461026936,-7.4226063506283064e-06
0.003423292178457786,-0.00024252028689685027,-7.544268783878193e-06
0.003831885487480836,-0.0002407064924803656,-7.665075478722497e-06
0.004237884144493301,-0.00023868905007237208,-7.784924364360682e-06
0.004640079894211494,-0.00023646955906269588,-7.903714016644448e-06
0.005037307173403387,-0.00023405021229579216,-8.02134395948407e-06
0.005428453172014764,-0.00023143377220943763,-8.137714955610377e-06
0.005812467187884379,-0.00022862354211946286,-8.252729284192602e-06
0.006188369036514742,-0.00022562333306336307,-8.366291002988309e-06
0.0065552562930020234,-0.00022243742673098388,-8.478306192936895e-06
0.0069123101667058415,-0.0002190705351160569,-8.588683183398655e-06
0.007258799844639573,-0.00021552775761322056,-8.697332756580975e-06
0.007594085189137064,-0.0002118145363547764,-8.804168330072975e-06
0.007917617738612255,-0.00020793661062283909,-8.909106116817379e-06
0.008228940030367832,-0.00020389997118059407,-9.012065262268237e-06
0.008527683327986785,-0.0001997108153410054,-9.112967958898637e-06
0.008813563880605878,-0.00019537550353885722,-9.211739538618604e-06
0.009086377866894585,-0.0001909005181019821,-9.308308544028813e-06
0.009345995192865775,-0.00018629242483704202,-9.40260677976357e-06
0.009592352328351275,-0.00018155783795673777,-9.494569345462014e-06
0.009825444382002826,-0.00017670338877914923,-9.584134652145985e-06
0.010045316622639015,-0.00017173569852798877,-9.67124442397277e-06
0.010252055652045594,-0.00016666135545931763,-9.755843687469597e-06
0.010445780422710835,-0.00016148689644062853,-9.837880750444584e-06
0.010626633277157906,-0.00015621879301566134,-9.917307172808657e-06
0.010794771167867924,-0.00015086344190440488,-9.994077731538674e-06
0.010950357206345483,-0.00014542715981085154,-1.0068150381967488e-05
0.011093552688068133,-0.00013991618233724813,-1.0139486217504512e-05
0.011224509732661056,-0.00013433666673206583,-1.0208049429771841e-05
0.011343364651648617,-0.00012869469813598842,-1.0273807270988854e-05
0.011450232115940328,-0.0001229962989440912,-1.0336730020258874e-05
0.011545200159562749,-0.00011724744087521541,-1.0396790955213701e-05
0.011628326032206648,-0.00011145405932727307,-1.0453966330264323e-05
0.011699632896495974,-0.00010562206959509741,-1.0508235362494915e-05
0.011759107354176977,-9.975738453242917e-05,-1.0559580226026796e-05
0.011806697781096545,-9.386593324861079e-05,-1.0607986055472056e-05
0.01184231345193353,-8.795368044035328e-05,-1.0653440958894297e-05
0.011865824437085818,-8.202664596809843e-05,-1.069593604049641e-05
0.011877062257743232,-7.609092429439117e-05,-1.0735465433062032e-05
0.011875821297453393,-7.015270340559202e-05,-1.0772026339987028e-05
0.0118618609839845,-6.421828283523254e-05,-1.0805619086547235e-05
0.011834908756471809,-5.829409040011847e-05,-1.0836247179856072e-05
0.011794663814302867,-5.23866972574248e-05,-1.0863917376770458e-05
0.011740801622017153,-4.6502830898344794e-05,-1.08886397588094e-05
0.01167297913334853,-4.0649385709503375e-05,-1.0910427812961362e-05
0.011590840690533644,-3.483343075353283e-05,-1.092929851707712e-05
0.011494024536163947,-2.906221444685843e-05,-1.0945272428377218e-05
0.011382169840972555,-2.3343165852574306e-05,-1.0958373773452075e-05
0.01125492411367493,-1.7683892363912435e-05,-1.0968630538006198e-05
0.011111950835013014,-1.2092173626740449e-05,-1.0976074554503861e-05
0.010952937157226977,-6.575951628680452e-06,-1.0980741585817717e-05
0.010777601526722977,-1.1433169576929637e-06,-1.098267140296431e-05
0.01058570110993556,4.197508701471671e-06,-1.0981907855028366e-05
0.010377038927627945,9.438193710862548e-06,-1.0978498929425282e-05
0.010151470632159704,1.457032110080946e-05,-1.0972496800722364e-05
0.00990891088718001,1.9585416480644388e-05,-1.0963957866327e-05
0.009649339318050667,2.4474979031952056e-05,-1.0952942767448852e-05
0.009372805993226775,2.9230515359771415e-05,-1.0939516393850921e-05
0.009079436378024868,3.3843575952584326e-05,-1.0923747871022832e-05
0.008769435679585384,3.830579396698689e-05,-1.0905710528542938e-05
0.008443092488166642,4.26089260089249e-05,-1.088548184854896e-05
0.008100781630691391,4.674489453863941e-05,-1.086314339341207e-05
0.007742966186970685,5.070583149305493e-05,-1.0838780711904145e-05
0.007370198656171254,5.448412270384041e-05,-1.0812483223354921e-05
0.006983121278908698,5.80724526876104e-05,-1.0784344079507059e-05
0.0065824655129157975,6.146384938556652e-05,-1.0754460003988765e-05
0.006169050638359503,6.465172842338535e-05,-1.0722931109536527e-05
0.00574378145091268,6.76299364457034e-05,-1.0689860693319256e-05
0.005307645001108837,7.039279305870878e-05,-1.0655355010943152e-05
0.004861706360349945,7.293513089907347e-05,-1.0619523029953706e-05
0.004407103430227876,7.525233334671792e-05,-1.0582476163892258e-05
0.003945040853534384,7.734036941765849e-05,-1.0544327988201163e-05
0.0034767831269508446,7.91958254127798e-05,-1.0505193939493554e-05
0.003003647055249911,8.081593295832998e-05,-1.0465190999900777e-05
0.0025269937253515943,8.219859315348035e-05,-1.0424437368372824e-05
0.0020482202132527053,8.334239663813143e-05,-1.0383052120924922e-05
0.0015687512613585754,8.424663950678424e-05,-1.0341154861888693e-05
0.0010900311670494001,8.491133511388624e-05,-1.0298865368233525e-05
0.0006135160913773565,8.533722192849293e-05,-1.025630322897293e-05
0.00014066692296280076,8.552576768207797e-05,-1.0213587481570287e-05
-0.00032705726552420533,8.547917009643763e-05,-1.0170836247125658e-05
-0.0007882052155371547,8.520035447617229e-05,-1.0128166365982505e-05
-0.0012413390287244004,8.46929684151069e-05,-1.0085693035259686e-05
-0.0016850393676004106,8.39613738160257e-05,-1.0043529449701903e-05
-0.0021179104193731774,8.301063636928231e-05,-1.0001786447155576e-05
-0.002538584729891517,8.184651258196613e-05,-9.960572159917763e-06
-0.002945728002257941,8.047543439892877e-05,-9.919991673172539e-06
-0.0033380439280639145,7.89044914163483e-05,-9.880146691718719e-06
-0.0037142790884791216,7.714141066221254e-05,-9.841135216199079e-06
-0.00407322793997724,7.519453390509845e-05,-9.80305123005725e-06
-0.004413737887455405,7.307279244824028e-05,-9.765984398468915e-06
-0.004734714440535403,7.078567936624258e-05,-9.730019780515294e-06
-0.005035126443340578,6.834321914527358e-05,-9.695237555887416e-06
-0.005314011363630693,6.575593469353075e-05,-9.661712767427716e-06
-0.0055704806221468185,6.303481169708638e-05,-9.629515080830061e-06
-0.005803724934281726,6.0191260307979246e-05,-9.598708562828794e-06
-0.006013019622450522,5.723707416879619e-05,-9.569351479209601e-06
-0.006197729839101546,5.418438680340817e-05,-9.541496113966549e-06
-0.006357315614381238,5.104562544003748e-05,-9.515188610905688e-06
-0.0064913366088138235,4.7833462384238714e-05,-9.49046883894962e-06
-0.006599456419710559,4.456076412710762e-05,-9.467370282321783e-06
-0.006681446277962979,4.1240538452689234e-05,-9.445919956676835e-06
-0.0067371879917290205,3.788587988526623e-05,-9.426138352092347e-06
-0.006766676042378332,3.450991387673939e-05,-9.408039403651845e-06
-0.0067700187979729,3.1125740166651586e-05,-9.391630490140997e-06
-0.006747438859679464,2.7746375752238496e-05,-9.376912461161275e-06
-0.006699272589165283,2.438469789002731e-05,-9.363879692750708e-06
-0.006625968886809829,2.105338752103353e-05,-9.352520171397942e-06
-0.006528087308385679,1.776487347223465e-05,-9.342815606149626e-06
-0.006406295620098227,1.4531277740113674e-05,-9.334741568346539e-06
-0.006261366892604062,1.1364362111938101e-05,-9.328267658383526e-06
-0.006094176220024802,8.275476333780885e-06,-9.323357698772097e-06
-0.005905697126250989,5.275507997211938e-06,-9.31996995268935e-06
-0.00569699770176845,2.3748342902070777e-06,-9.318057367117495e-06
-0.005469236505673443,-4.167242616533957e-07,-9.317567839610357e-06
-0.005223658258914667,-3.089947952800423e-06,-9.31844450766397e-06
-0.004961589336706413,-5.6362598517056935e-06,-9.320626059615097e-06
-0.004684433045772762,-8.047765447325488e-06,-9.324047065939854e-06
-0.004393664655662651,-1.031728987268434e-05,-9.328638329769857e-06
-0.004090826143448392,-1.2438412572462102e-05,-9.334327255381144e-06
-0.0037775206040359553,-1.440549925933319e-05,-9.341038233339093e-06
-0.0034554062783334065,-1.621373097992553e-05,-9.348693040898908e-06
-0.003126190165654013,-1.7859130090922385e-05,-9.35721125616662e-06
-0.0027916212134187495,-1.9338582935690577e-05,-9.366510684423274e-06
-0.002453483105285714,-2.0649859015366694e-05,-9.376507794911037e-06
-0.0021135866878036202,-2.1791626463639026e-05,-9.387118166280788e-06
-0.0017737620832707437,-2.276346365640762e-05,-9.3982569388108e-06
-0.0014358505349943568,-2.3565866810973895e-05,-9.409839271427647e-06
-0.0011016960230625739,-2.4200253450488128e-05,-9.421780801493012e-06
-0.0007731366806439183,-2.466896162641475e-05,-9.433998105262239e-06
-0.00045199604526308665,-2.4975244807891502e-05,-9.446409156870815e-06
-0.00014007420206900984,-2.5123262369724525e-05,-9.458933783665219e-06
0.00016086109322217007,-2.5118065646936233e-05,-9.471494115669384e-06
0.0004490832023415361,-2.4965579573045307e-05,-9.48401502697438e-06
0.0007229151926890293,-2.4672579974287665e-05,-9.496424566861213e-06
0.00098073813207773,-2.4246666643095975e-05,-9.508654378515558e-06
0.0012209990216715263,-2.369623235465866e-05,-9.520640103264996e-06
0.0014422183234210173,-2.3030428018385527e-05,-9.532321768358258e-06
0.0016429970571073488,-2.2259124173253434e-05,-9.543644156406168e-06
0.0018220234513334312,-2.139286904614324e-05,-9.554557154711017e-06
0.001978079134971166,-2.044284339956709e-05,-9.565016082822446e-06
0.002110044860225436,-1.942081240076794e-05,-9.57498199677253e-06
0.002216905759082251,-1.8339074745941016e-05,-9.584421968559207e-06
0.0022977561427342144,-1.72104092704869e-05,-9.593309339563314e-06
0.0023518038502199955,-1.6048019272248347e-05,-9.601623946698999e-06
0.002378374138174398,-1.486547477514975e-05,-9.609352320210848e-06
0.002376913083112707,-1.3676652969827974e-05,-9.616487852147093e-06
0.0023469904494617644,-1.2495677086684356e-05,-9.62303093466122e-06
0.0022883019713022257,-1.1336853981493357e-05,-9.628989067428265e-06
0.0022006710067519713,-1.0214610736979807e-05,-9.634376933607883e-06
0.0020840495440866223,-9.143430599270159e-06,-9.639216443941946e-06
0.0019385185581130408,-8.137788573720242e-06,-9.643536748735194e-06
0.0017642877271338482,-7.212087002408521e-06,-9.647374217629226e-06
0.0015616945241173593,-6.380591439595719e-06,-9.650772387239727e-06
0.00133120269561734,-5.657367134662044e-06,-9.653781876883292e-06
0.0010734001426551394,-5.056216425093925e-06,-9.65646027277323e-06
0.0007889962149608709,-4.590617335689922e-06,-9.658871981213426e-06
0.00047881841929143864,-4.273663677126845e-06,-9.66108805146663e-06
0.00014380853048741784,-4.118006939682131e-06,-9.663185969120832e-06
-0.00021498190286056408,-4.135800282775417e-06,-9.665249420926446e-06
-0.000596396639629048,-4.338644918397821e-06,-9.66736803222674e-06
-0.0009991803612248017,-4.737539168611283e-06,-9.669637078248491e-06
-0.0014219847537377355,-5.3428304473519175e-06,-9.672157170652483e-06
-0.0018633750095304936,-6.1641703881689745e-06,-9.675033920861364e-06
-0.002321836735380546,-7.210473324396734e-06,-9.678377581789505e-06
-0.0027957832774022167,-8.489878327592425e-06,-9.682302669702503e-06
-0.0032835634698069557,-1.0009715014394718e-05,-9.686927568038e-06
-0.003783469788682335,-1.177647332901704e-05,-9.692374115123852e-06
-0.0042937468591176175,-1.3795777490967028e-05,-9.698767177828849e-06
-0.0048126002421189275,-1.6072364266276164e-05,-9.70623421326816e-06
-0.005338205425168038,-1.8610065683097907e-05,-9.714904820755503e-06
-0.00586871695034256,-2.141179627697556e-05,-9.724910286245521e-06
-0.006402277623780493,-2.4479544920506322e-05,-9.736383121544892e-06
-0.0069370277548135946,-2.7814371265154845e-05,-9.749456600591307e-06
-0.007471114375403178,-3.1416406797709036e-05,-9.764264295107023e-06
-0.008002700393653962,-3.528486048997332e-05,-9.780939611928944e-06
-0.008529973638067463,-3.9418028997903675e-05,-9.799615334300914e-06
-0.009051155750328424,-4.3813311345002645e-05,-9.82042316938664e-06
-0.009564510882203406,-4.84672280031356e-05,-9.843493304223674e-06
-0.010068354144060047,-5.3375444259701465e-05,-9.868953972289384e-06
-0.010561059737551262,-5.853279773010429e-05,-9.896931032786836e-06
-0.01104106868611353,-6.393332983602049e-05,-9.927547564678368e-06
-0.011506896062551062,-6.957032102318663e-05,-9.960923477393169e-06
-0.011957137614724781,-7.54363294425056e-05,-9.997175140009592e-06
-0.012390475712781386,-8.152323277438214e-05,-1.0036415030563814e-05
-0.012805684577798258,-8.782227284702705e-05,-1.0078751406969167e-05
-0.013201634789478663,-9.432410268884628e-05,-1.0124288000853134e-05
-0.013577297098706226,-0.0001010188356608925,-1.0173123735440568e-05
-0.013931745585675436,-0.00010789609633198792,-1.0225352468438789e-05
-0.014264160212139585,-0.00011494507278144167,-1.0281062760717146e-05
-0.014573828826925305,-0.0001221545700412079,-1.0340337671422808e-05
-0.014860148699936477,-0.00012951306442292334,-1.0403254580038842e-05
-0.015122627671476947,-0.0001370087585157767,-1.0469885035773517e-05
-0.015360884996220658,-0.0001446296366827011,-1.0540294634573137e-05
-0.015574651930833374,-0.0001523635209144646,-1.0614542923972427e-05
-0.015763772071778315,-0.0001601981269151175,-1.0692683335929823e-05
-0.01592820141128945,-0.00016812112028588444,-1.0774763147730074e-05
-0.01606800805457978,-0.00017612017265235174,-1.0860823470964633e-05
-0.01618337153028496,-0.0001841830175485679,-1.0950899268514863e-05
-0.016274581625032005,-0.00019229750583739716,-1.1045019399361354e-05
-0.016342036680301167,-0.00020045166041373047,-1.1143206690924136e-05
-0.016386241306375778,-0.0002086337299103997,-1.1245478038505168e-05
-0.01640780349347034,-0.00021683224111036122,-1.1351844531260358e-05
-0.01640743112850809,-0.00022503604976585584,-1.1462311603979412e-05
-0.016385927949598336,-0.00023323438953538244,-1.1576879213804721e-05
-0.01634418898615672,-0.0002414169187693212,-1.1695542040880897e-05
