frame_number,force
0,616.2657400000361
1,616.1209625874133
2,615.984864079906
3,615.865254226314
4,615.7683424080984
5,615.6982561290241
6,615.6568620885319
7,615.6438615396614
8,615.6570658950484
9,615.6927462274774
10,615.7459909335614
11,615.8110610350686
12,615.8817661460987
13,615.9518881382907
14,616.0156640357238
15,616.0683128939406
16,616.1065563633888
17,616.129049855919
18,616.1366315048223
19,616.132318426582
20,616.1210204824555
21,616.1089870726752
22,616.1030540075416
23,616.1098120555973
24,616.1348476456544
25,616.1821762891236
26,616.2539100645585
27,616.3501274801878
28,616.4688932882792
29,616.6064033331588
30,616.757266770874
31,616.9149477846709
32,617.07236082941
33,617.2225687662269
34,617.3594991506621
35,617.4785775602295
36,617.5771771601643
37,617.654808363611
38,617.7130244901412
39,617.7550851106267
40,617.7854743615297
41,617.8093898131143
42,617.8322840044377
43,617.8594753991869
44,617.8957942891408
45,617.9452256590413
46,618.0105490073988
47,618.0930195149257
48,618.1921572065111
49,618.3057078639229
50,618.429818600461
51,618.5594328432463
52,618.6888600800368
53,618.8124372912578
54,618.9251879759072
55,619.0233942374731
56,619.1050124455552
57,619.1698763381867
58,619.2196451845134
59,619.2574797406337
60,619.2874773356932
61,619.3139638572555
62,619.3407911179199
63,619.370784565595
64,619.405425306542
65,619.4447701239031
66,619.487559294693
67,619.5314553669248
68,619.5733806458951
69,619.6099397343219
70,619.637906185783
71,619.6547305261711
72,619.6590061944382
73,619.6508158895818
74,619.6318840736182
75,619.605496153757
76,619.5762039381377
77,619.5493884255945
78,619.5307664044267
79,619.5259059311189
80,619.539781934653
81,619.5763842212224
82,619.6383937211659
83,619.7269532972834
84,619.8415544135967
85,619.9800336047629
86,620.1386438008249
87,620.3121662910191
88,620.4940619349184
89,620.6766917650484
90,620.8516389256329
91,621.0101406716083
92,621.1436109667562
93,621.2442122501433
94,621.3054210706214
95,621.3225284735962
96,621.2930261948429
97,621.2168527570193
98,621.0964963882614
99,620.9369561292758
100,620.7455468251309
101,620.5315210746301
102,620.3054946679943
103,620.0786990227305
104,619.8621259481827
105,619.6656628340592
106,619.4973338829552
107,619.3627582911998
108,619.2648984924177
109,619.2041024395611
110,619.1783752068076
111,619.1837849867601
112,619.2149190249559
113,619.2653299470148
114,619.3279387409888
115,619.3953912187698
116,619.4603949996289
117,619.51607487376
118,619.5563631664517
119,619.5763987593937
120,619.5728718130864
121,619.5442431430225
122,619.4907892958869
123,619.4144649995952
124,619.3186165618926
125,619.2076050003269
126,619.0863991270866
127,618.9601835705871
128,618.8340074825774
129,618.7124872528744
130,618.5995720766048
131,618.4983747863608
132,618.4110565507193
133,618.3387454485658
134,618.2814826952437
135,618.2382201012965
136,618.2069078292071
137,618.1846929582415
138,618.1682096223246
139,618.1539075061734
140,618.138354009886
141,618.1184620595964
142,618.091635963519
143,618.0558668441279
144,618.0098134469919
145,617.9528721946218
146,617.8852105892959
147,617.8077408791828
148,617.7220340406511
149,617.6301880667992
150,617.5346643247543
151,617.438109561244
152,617.3431953453478
153,617.2525125466445
154,617.1685380709656
155,617.0936537644401
156,617.0301692830747
157,616.9802956031822
158,616.9460275962282
159,616.9289140104845
160,616.9297228552176
161,616.9480541412324
162,616.9820007027859
163,617.0279834089789
164,617.08086185957
165,617.1343451663489
166,617.1816363367705
167,617.2161884514163
168,617.2324502773142
169,617.2265078060942
170,617.1965564825376
171,617.143162980303
172,617.0693002659295
173,616.9801596636279
174,616.8827540895829
175,616.7853342485764
176,616.696652534844
177,616.6251299315923
178,616.5780086850442
179,616.5606028493567
180,616.5757740228757
181,616.6237375520008
182,616.702235244624
183,616.8070165347336
184,616.9324956671225
185,617.0724328083903
186,617.2205250807717
187,617.3708598687471
188,617.5182344880927
189,617.6583584023789
190,617.787938801956
191,617.9046420748886
192,618.0069417674654
193,618.0938932720446
194,618.1648893607432
195,618.2194415002981
196,618.2570175410879
197,618.2769658491598
198,618.2785643745319
199,618.2612246147464
200,618.224837304662
201,618.1701827808129
202,618.0992821894872
203,618.015567231312
204,617.9237949757983
205,617.8297035281595
206,617.7394679355007
207,617.6590588820026
208,617.593619310343
209,617.5469526427883
210,617.5211736861585
211,617.5165368971127
212,617.5314457355477
213,617.5626487990596
214,617.605612732152
215,617.6550246267543
216,617.7053484161789
217,617.7513616393511
218,617.7886191514059
219,617.8138119790409
220,617.825011110264
221,617.8218054145173
222,617.805345354885
223,617.7782818797656
224,617.7445630626825
225,617.7090546804166
226,617.6769999936349
227,617.6534051164771
228,617.6424807928443
229,617.6472546289704
230,617.6694039212015
231,617.7092934330877
232,617.7661626478557
233,617.838391123807
234,617.9237715264436
235,618.0197374640937
236,618.1235222090544
237,618.2322494494024
238,618.3429677652991
239,618.452641821869
240,618.5581182106432
241,618.6560981332975
242,618.743162601544
243,618.8158893059745
244,618.8710697178113
245,618.9060024190316
246,618.9188249888513
247,618.9088453310768
248,618.8768269345907
249,618.825171931062
250,618.7579446835676
251,618.6806944518079
252,618.6000678400973
253,618.5232447174476
254,618.4572717199504
255,618.4083917094592
256,618.3814709135445
257,618.3796054984496
258,618.403945771416
259,618.4537234978718
260,618.5264314681124
261,618.6180992297747
262,618.7236263960186
263,618.8371549938254
264,618.9524732542144
265,619.063444503528
266,619.1644472072401
267,619.2507986731341
268,619.3191218484304
269,619.3676058307944
270,619.3961114695602
271,619.4060920444552
272,619.4003306586075
273,619.3825241210875
274,619.3567635929572
275,619.3269831068885
276,619.2964639943212
277,619.2674789198695
278,619.2411276547546
279,619.2173726763324
280,619.1952456102838
281,619.1731739381356
282,619.1493684836544
283,619.1222108510088
284,619.0905864527218
285,619.0541245728468
286,619.0133251647266
287,618.9695632986309
288,618.924968009111
289,618.882180037483
290,618.8440037629409
291,618.8129830679666
292,618.7909506579574
293,618.7786158773677
294,618.7752540257251
295,618.7785452336246
296,618.7845989410279
297,618.7881941351695
298,618.7832532602088
299,618.7635346298894
300,618.7234716804373
301,618.6590252290274
302,618.5683794908043
303,618.452331091353
304,618.3142940472278
305,618.1599419679038
306,617.9965857071638
307,617.8324107689442
308,617.6756786310802
309,617.5339596392082
310,617.4134432180691
311,617.3183736304202
312,617.2506714545436
313,617.2098019245059
314,617.1929319424756
315,617.1953767989613
316,617.2112789589675
317,617.2344008365144
318,617.2588800279177
319,617.2798116050284
320,617.2935850741469
321,617.2979835170023
322,617.2921100396709
323,617.2762206749202
324,617.2515221111048
325,617.2199612590708
326,617.1840104714786
327,617.1464458430635
328,617.1101248810056
329,617.0777776333639
330,617.0518177276073
331,617.0341699674058
332,617.02612084721
333,617.0282176234755
334,617.0402407300413
335,617.0612499422017
336,617.0896846701634
337,617.1235006067791
338,617.1603343036095
339,617.1976871747119
340,617.2331176057834
341,617.2644357824614
342,617.2899035967822
343,617.3084361748167
344,617.3197776979686
345,617.3245956534511
346,617.3244328110015
347,617.3214954406021
348,617.318319704682
349,617.3173959455908
350,617.3208192399586
351,617.3300025467713
352,617.3454739683128
353,617.3667847536886
354,617.3925578783868
355,617.4206954204545
356,617.4487386169318
357,617.4743406827986
358,617.4957727358565
359,617.5123522148173
360,617.5246808202256
361,617.5346108259372
362,617.5449169508258
363,617.5587272939571
364,617.5788429468322
365,617.6071156665922
366,617.6440282621818
367,617.6885449754027
368,617.7382133117841
369,617.7894431438644
370,617.8378749063065
371,617.8787683364584
372,617.9073792011726
373,617.919321833932
374,617.9109264422405
375,617.8795944785345
376,617.8241392965058
377,617.7450751023523
378,617.6447927452876
379,617.5275538732272
380,617.3992608600033
381,617.2670172830982
382,617.1385564108515
383,617.0216422687005
384,616.9235185877034
385,616.850422069573
386,616.80714141426
387,616.7966192964622
388,616.8196358869541
389,616.8746342103851
390,616.9577348845071
391,617.0629647075987
392,617.1827092478172
393,617.3083794044412
394,617.4312387389472
395,617.5432885614728
396,617.6380839237806
397,617.7113685764978
398,617.7614582314366
399,617.7893476456585
400,617.7985511519969
401,617.7947041845111
402,617.7849637330196
403,617.7772599680501
404,617.7794726435052
405,617.7986246222525
406,617.8401866667001
407,617.9075693336137
408,618.0018498119489
409,618.1217549417091
410,618.2638998312417
411,618.4232592040468
412,618.5938159911773
413,618.7692903757489
414,618.9438263740426
415,619.112527164834
416,619.2717811123518
417,619.4193774705341
418,619.5544448881062
419,619.6772513017663
420,619.7888988245501
421,619.8909523579528
422,619.98505631121
423,620.0726032219552
424,620.154509325746
425,620.2311294892983
426,620.3023171848713
427,620.3676080219943
428,620.4264801591991
429,620.4786295672549
430,620.5242003700537
431,620.5639290309756
432,620.5991833972784
433,620.6318890946561
434,620.6643364453026
435,620.6988663318309
436,620.737455445183
437,620.7812576777893
438,620.8301954654293
439,620.8827127798352
440,620.9357817243433
441,620.9851929960957
442,621.0260750509717
443,621.053515934392
444,621.063143520238
445,621.0515604078707
446,621.016596257877
447,620.957392038096
448,620.8743502287239
449,620.7689834534019
450,620.6436907614559
451,620.5014926518595
452,620.3457590151855
453,620.1799665525062
454,620.007520535419
455,619.831660448794
456,619.655436703898
457,619.4817120099063
458,619.313134545185
459,619.1520640710341
460,619.0004833872295
461,618.8599553639662
462,618.7316717689772
463,618.6165969918236
464,618.5156599408532
465,618.4299104398156
466,618.3605506773129
467,618.3087872548474
468,618.2755139395383
469,618.2609023158188
470,618.264021281634
471,618.2826098129399
472,618.3130839867174
473,618.3507833519827
474,618.3903923032508
475,618.4264446147133
476,618.4538351780704
477,618.4682952739448
478,618.4668067987815
479,618.4479220644057
480,618.4119285879434
481,618.360783933161
482,618.2977739068808
483,618.2269193460221
484,618.1522396988203
485,618.077031387452
486,618.0033127751838
487,617.9315388939841
488,617.8606284401181
489,617.788290923731
490,617.7115925064811
491,617.627652516295
492,617.5343298292078
493,617.4307603648889
494,617.3176548634195
495,617.1973398260208
496,617.073580623504
497,616.9512381249477
498,616.8357942125594
499,616.7327705454418
500,616.647076003961
501,616.5823472573131
502,616.5403813216811
503,616.5207826448966
504,616.5209364840617
505,616.5363549295529
506,616.561335394373
507,616.5897779163575
508,616.61597761825
509,616.6352422915197
510,616.644245092078
511,616.6410829952024
512,616.6250728821641
513,616.5963753547476
514,616.5555700274995
515,616.5033000719309
516,616.4400671248924
517,616.366207421723
518,616.2820287044623
519,616.1880485082427
520,616.0852561359245
521,615.9753154888202
522,615.8606272770407
523,615.7441914241701
524,615.6292690774724
525,615.5189179321393
526,615.4155171003142
527,615.3203862911264
528,615.2335639692876
529,615.1537774090672
530,615.0786229098868
531,615.004959252566
532,614.9294856193335
533,614.8494297795551
534,614.7632312957821
535,614.67108767058
536,614.5752494047771
537,614.4799954731951
538,614.3912736791688
539,614.3160403364163
540,614.2613839214237
541,614.2335608417116
542,614.2370888091388
543,614.2740278634051
544,614.3435417563243
545,614.4417861248476
546,614.5621256954666
547,614.6956495730648
548,614.8319336328552
549,614.9599889825964
550,615.0693282638829
551,615.1510660995432
552,615.1989424396604
553,615.2101331369851
554,615.185714858173
555,615.1306899243898
556,615.0535362941379
557,614.9653111379938
558,614.8784013325303
559,614.8050817031161
560,614.7560923092866
561,614.7394468773929
562,614.7596262742726
563,614.8172244539587
564,614.9090441026451
565,615.0286045292173
566,615.1670071892049
567,615.3140726719187
568,615.4596096122104
569,615.5946334971541
570,615.7123633045305
571,615.808885967048
572,615.8834455174616
573,615.9383511267661
574,615.9785246732993
575,616.0107517478816
576,616.0427491116797
577,616.0821879383229
578,616.1358049334855
579,616.2087007501524
580,616.3038823677743
581,616.4220674659294
582,616.5617423272402
583,616.7194507881068
584,616.8902816916894
585,617.0685033621787
586,617.2482622397923
587,617.4242347046525
588,617.5921207766858
589,617.7489040905799
590,617.8928598355374
591,618.0233515265619
592,618.1405034215683
593,618.2448534570001
594,618.3370720132036
595,618.4177841749224
596,618.4874869460109
597,618.546533765337
598,618.5951647228576
599,618.6335702862921
600,618.6619756893155
601,618.6807287111347
602,618.6903777690683
603,618.691740940006
604,618.6859750079799
605,618.6746414368346
606,618.6597386188995
607,618.643653024615
608,618.6289946493993
609,618.6183144141438
610,618.613731756064
611,618.6165256729035
612,618.6267675824114
613,618.6430890748004
614,618.6626630891433
615,618.6814331899399
616,618.694570632788
617,618.6970890917078
618,618.6845133092093
619,618.6534920885218
620,618.6022703213016
621,618.5309727308022
622,618.4416838833753
623,618.3383303866012
624,618.2263851075977
625,618.1124161100828
626,618.0034986576268
627,617.9065212755638
628,617.8274589603675
629,617.7707284081757
630,617.7387411019871
631,617.7317258222872
632,617.7478308053421
633,617.7834623126067
634,617.8337772864893
635,617.8932306294516
636,617.956099326904
637,618.0169587863913
638,618.0711251476756
639,618.1150645942114
640,618.1467241669543
641,618.1657066160097
642,618.1732245943316
643,618.171818606929
644,618.1648781825464
645,618.156046332369
646,618.1486133227223
647,618.1450146902068
648,618.1465242518082
649,618.1531714187928
650,618.1638426542613
651,618.1764917925232
652,618.188397530858
653,618.196443158147
654,618.1974196807416
655,618.1883583456256
656,618.1668903421054
657,618.1316175962351
658,618.0824581081192
659,618.0209010899406
660,617.9500862700996
661,617.8746376577351
662,617.8002463551428
663,617.7330768417171
664,617.6791114996515
665,617.6435272764185
666,617.6301502025658
667,617.641007033848
668,617.6760031347574
669,617.7327788758444
670,617.8068041800977
671,617.8917498738476
672,617.9801270676926
673,618.0641229601698
674,618.1365058346994
675,618.1914479309365
676,618.225130130941
677,618.2360406295182
678,618.2249510362115
679,618.194626976021
680,618.1493735708758
681,618.0945111365502
682,618.0358395836041
683,617.9791154626367
684,617.9295538947861
685,617.8913764793043
686,617.8674410566729
687,617.8589950431991
688,617.8655858224963
689,617.885146067234
690,617.9142578438216
691,617.9485887895515
692,617.983476730091
693,618.0146025035747
694,618.0386441016317
695,618.0537855709987
696,618.0599835625538
697,618.0589509966736
698,618.0538649138869
699,618.0488343669094
700,618.0481894954047
701,618.0556874356215
702,618.0737654028235
703,618.1029812338146
704,618.1417503743626
705,618.1864232393746
706,618.2316733614196
707,618.2711120837208
708,618.2980237034711
709,618.3061200097251
710,618.2902317651132
711,618.2468811581424
712,618.1747083714249
713,618.0747426916199
714,617.9505052233517
715,617.8079179886058
716,617.6549923451614
717,617.5012847702333
718,617.357133507984
719,617.2327210280132
720,617.1370500948749
721,617.07697467202
722,617.0564621097617
723,617.0762387465447
724,617.1338818879531
725,617.224311659121
726,617.3405574755698
727,617.4746441203662
728,617.618450885663
729,617.7644273244238
730,617.906091942953
731,618.0382924802449
732,618.157261724019
733,618.2605438150281
734,618.3468714832773
735,618.4160434622045
736,618.468810834055
737,618.506759159298
738,618.532171601571
739,618.547862522299
740,618.5569739776072
741,618.5627312941609
742,618.568161371376
743,618.5757918338879
744,618.5873706189624
745,618.6036633302658
746,618.6243855117473
747,618.6483041539984
748,618.6735038595332
749,618.6977734821011
750,618.7190448684759
751,618.735809313062
752,618.7474411594105
753,618.7543696714006
754,618.7580651653591
755,618.7608432917386
756,618.7655334643466
757,618.7750901008466
758,618.7922348332299
759,618.8191987409556
760,618.8575914375984
761,618.9083696392647
762,618.9718329325237
763,619.0475718944335
764,619.134345219949
765,619.2299298700356
766,619.3310207151106
767,619.4332456318218
768,619.5313349154644
769,619.6194589426324
770,619.6917248773066
771,619.7427941529389
772,619.7685436027543
773,619.7666542857827
774,619.7369954885755
775,619.6816971998423
776,619.6048785131765
777,619.5121024944419
778,619.4097102390056
779,619.3041983947367
780,619.2017442314983
781,619.1078994107756
782,619.0274170696999
783,618.9641600569697
784,618.9210480174681
785,618.9000218209596
786,618.9020253735728
787,618.9270166754517
788,618.9740134366206
789,619.0411618522376
790,619.1258146099219
791,619.2246263153828
792,619.3336988841927
793,619.4488064302471
794,619.5656979514744
795,619.6804422115032
796,619.7897638887318
797,619.8913231914796
798,619.9839009682131
799,620.0674623527208
800,620.1430894796463
801,620.2128033152102
802,620.279330229355
803,620.345891365769
804,620.4160795526418
805,620.4938319998962
806,620.5834329392355
807,620.6894411527314
808,620.8164671451754
809,620.9688001186445
810,621.1499513107196
811,621.3622088985838
812,621.6062973490543
813,621.8812135776279
814,622.1842793293797
815,622.5114107335055
816,622.8575712120112
817,623.2173469453119
818,623.5855632465136
819,623.9578440283951
820,624.3310111399422
821,624.703241397244
822,625.0739561695917
823,625.4434940616253
824,625.8126742209927
825,626.1823689926667
826,626.5531732099432
827,626.925209313412
828,627.2980662045579
829,627.6708416636164
830,628.0422410168707
831,628.410680423492
832,628.7743594253138
833,629.1313049479195
834,629.4794265484887
835,629.8166331762096
836,630.141044971494
837,630.4513072509476
838,630.7469774255584
839,631.0289033066252
840,631.2994703285509
841,631.5626084967345
842,631.8235175888516
843,632.0881397520251
844,632.3624393049988
845,632.6515555217059
846,632.9589168367086
847,633.2854484344579
848,633.6290347382477
849,633.9843823451657
850,634.3433566972408
851,634.6957518703666
852,635.0303459069213
853,635.3360486979653
854,635.6029755045995
855,635.8233389977224
856,635.9921029263385
857,636.1073647122552
858,636.1704455487685
859,636.1856857674712
860,636.1599711464661
861,636.1020363239896
862,636.0215993044453
863,635.9283888156344
864,635.8311449149276
865,635.7366981172023
866,635.649248024055
867,635.5699554601865
868,635.4969292901286
869,635.4256356915372
870,635.349690007904
871,635.2619159187714
872,635.1554879326867
873,635.0249372224924
874,634.866824967333
875,634.6799776573865
876,634.4653035842277
877,634.2253121512774
878,633.9634942173741
879,633.6836938451189
880,633.3895494653176
881,633.0840460044453
882,632.7692102275175
883,632.4459830929078
884,632.1142905457284
885,631.773297354113
886,631.4217845066725
887,631.0585688417968
888,630.6828934906453
889,630.2947414967705
890,629.8950433465715
891,629.4857627010907
892,629.0698618122138
893,628.6511629672179
894,628.2341206007346
895,627.8235033176918
896,627.4239775764491
897,627.0396004709356
898,626.6732634931546
899,626.3261656807891
900,625.997414730702
901,625.6838488356054
902,625.3801429546061
903,625.0792171247892
904,624.772909826873
905,624.4528345051604
906,624.1113162978276
907,623.7422988933048
908,623.3421003889202
909,622.9098906347059
910,622.4477885392238
911,621.9605435146468
912,621.4548483961779
913,620.9384049641702
914,620.4189099999244
915,619.9031391273252
916,619.3962775908353
917,618.9015938514585
