frame_number,force
0,640.8114000000554
1,641.1260756198627
2,641.4207287140113
3,641.6773471546403
4,641.8817052628574
5,642.0246971273532
6,642.1030720932378
7,642.1194967513138
8,642.0819611429233
9,642.0026339089653
10,641.8963380413387
11,641.7788611701707
12,641.6653259437034
13,641.5688172937424
14,641.4993930261655
15,641.4635144810286
16,641.4638646762153
17,641.499497765011
18,641.5662745841671
19,641.6575508350243
20,641.7650729130592
21,641.880003285425
22,641.9939618084218
23,642.0999524797909
24,642.1930574270316
25,642.2708158799469
26,642.3332524292283
27,642.3825674152237
28,642.4225455614882
29,642.4577695009784
30,642.4927460776748
31,642.5310746077082
32,642.574799215566
33,642.6240660370008
34,642.6771399324057
35,642.7307494210422
36,642.7806630989114
37,642.8223756986544
38,642.8517878591763
39,642.8657831708699
40,642.8626310503795
41,642.8421750345725
42,642.8058049863697
43,642.7562518692645
44,642.6972669291629
45,642.6332411719137
46,642.5687987948319
47,642.5083839728895
48,642.455861814867
49,642.414163445946
50,642.3850171201431
51,642.368818492803
52,642.364690302002
53,642.3707515711238
54,642.3845646685248
55,642.4036763139569
56,642.4261362670122
57,642.450877705642
58,642.4778772662729
59,642.5080643673331
60,642.5429974314267
61,642.5843632030452
62,642.6333917319824
63,642.6903108238698
64,642.7539688078475
65,642.8217155456706
66,642.8895602948248
67,642.9525577405782
68,643.0053375465905
69,643.042687023776
70,643.0601067554867
71,643.054276573295
72,643.0233908095714
73,642.9673440355385
74,642.8877694449368
75,642.7879508920171
76,642.672641050934
77,642.5478129055265
78,642.4203506820016
79,642.2976662198355
80,642.1872247668417
81,642.0959827128337
82,642.029768182784
83,641.9926615866277
84,641.9864521319084
85,642.0102571457539
86,642.06038992996
87,642.1305416081179
88,642.212298436843
89,642.2959528488417
90,642.3715034817598
91,642.4297056796578
92,642.4630422718955
93,642.4665134068064
94,642.438164794221
95,642.3792901347662
96,642.2942827811939
97,642.1901722632609
98,642.0759225505275
99,641.9615638398307
100,641.8572046047635
101,641.7719744955127
102,641.7129945569463
103,641.6845221326889
104,641.6874250473589
105,641.7190868973181
106,641.773756397394
107,641.8432675079073
108,641.9180007677571
109,641.9879389108582
110,642.0436881269749
111,642.0773761829063
112,642.0833766808518
113,642.0588273671952
114,642.0039116748327
115,641.9218703515576
116,641.8187155854249
117,641.7026418035639
118,641.5831691963
119,641.4701080515574
120,641.3724710207933
121,641.2974685559926
122,641.2497037249494
123,641.2306554585205
124,641.2385148027646
125,641.2684075489966
126,641.3129852024939
127,641.363301589567
128,641.409841761728
129,641.4435540366152
130,641.4567520025116
131,641.4437879662102
132,641.4014472497403
133,641.3290704625788
134,641.2284623030351
135,641.1036650693524
136,640.9606497340855
137,640.8069256697809
138,640.6510343642619
139,640.5019040068795
140,640.3680937928073
141,640.2570147271188
142,640.1742459648642
143,640.1230578337551
144,640.1042044106222
145,640.115977718641
146,640.1544625115907
147,640.2139297664902
148,640.2873449235055
149,640.3669910491856
150,640.4451872059517
151,640.515040463568
152,640.5711416613193
153,640.6101083989447
154,640.630887907311
155,640.6347638580596
156,640.625070874084
157,640.6066883015113
158,640.585424986498
159,640.5674029470279
160,640.5585131427181
161,640.5639743882019
162,640.5879942669421
163,640.6335169794779
164,640.7020441027373
165,640.7935193506163
166,640.9062734304218
167,641.0370361056096
168,641.1810412116287
169,641.3322639591182
170,641.4838229137288
171,641.6285504087863
172,641.7596952120514
173,641.8716769757835
174,641.9607711604134
175,642.0255868707603
176,642.0672276424567
177,642.0890902525043
178,642.0963334642454
179,642.0951136358858
180,642.091722379844
181,642.0917662872002
182,642.0995047048496
183,642.1174222088266
184,642.1460699696486
185,642.1841684298205
186,642.2289238723596
187,642.2764824161027
188,642.3224384160707
189,642.3623301720432
190,642.3920798555201
191,642.4083509225447
192,642.4088045323786
193,642.3922502445819
194,642.3587087628487
195,642.309419573302
196,642.2468211806739
197,642.1745079487403
198,642.097132864029
199,642.0201975622713
200,641.9496766842035
201,641.8914717196362
202,641.8507558216077
203,641.8313223287429
204,641.835067478912
205,641.8617163727041
206,641.9088445819625
207,641.9721764617184
208,642.0460845412779
209,642.1241912237091
210,642.1999866965064
211,642.2674129220306
212,642.3214003171494
213,642.3583594847651
214,642.3766106747057
215,642.376681285532
216,642.3613542424474
217,642.3353649249697
218,642.3047406295233
219,642.2759033742449
220,642.2547356567935
221,642.2458010696249
222,642.2518406673153
223,642.2735861907578
224,642.309882345521
225,642.3580878418733
226,642.414694515588
227,642.4760512004119
228,642.539034045715
229,642.6015099598442
230,642.6625060223639
231,642.7220935203276
232,642.781071162165
233,642.8405609220592
234,642.9016196116022
235,642.9649371917802
236,643.0306508605637
237,643.0982659982495
238,643.166655471436
239,643.2341093748503
240,643.2984177700989
241,643.3569803028313
242,643.4069463164082
243,643.445395974269
244,643.4695738096482
245,643.477177103171
246,643.4666801170289
247,643.4376465020154
248,643.3909596139548
249,643.3288973048424
250,643.2550014156819
251,643.1737426342065
252,643.0900440336951
253,643.0087704264924
254,642.9342888435878
255,642.8701631707698
256,642.8189953421745
257,642.7823915449368
258,642.7610167042684
259,642.7546964450048
260,642.7625304198989
261,642.7829978816866
262,642.8140608430426
263,642.85328272314
264,642.8979703992267
265,642.9453317681492
266,642.9926397137074
267,643.0374011688964
268,643.077525548731
269,643.1114661191856
270,643.1382917637484
271,643.157654464117
272,643.1696467736356
273,643.1745808361592
274,643.1727578838031
275,643.1643213697888
276,643.1492749476606
277,643.1276891724902
278,643.1000413103268
279,643.0675706464126
280,643.0325151278993
281,642.9981283679397
282,642.9684417501047
283,642.9478071571708
284,642.9403104431718
285,642.9491731024406
286,642.9762527627486
287,643.0217167917276
288,643.0839223800709
289,643.1595151429137
290,643.2437491505383
291,643.3310047659406
292,643.4154290839944
293,643.4915789003173
294,643.5549462996543
295,643.6022965209912
296,643.6318127964084
297,643.643083695591
298,643.6369740877677
299,643.6154103338622
300,643.5811059116882
301,643.5372582722188
302,643.4872495792466
303,643.4343764560637
304,643.3816243472697
305,643.3314995785823
306,643.2859302051029
307,643.2462319975575
308,643.2131155414146
309,643.1867086084977
310,643.1665894905312
311,643.1518471878618
312,643.141182631072
313,643.1330483049647
314,643.1258082112012
315,643.1178914741207
316,643.1079125045848
317,643.0947419535661
318,643.0775292432488
319,643.055684385227
320,643.0288219491254
321,642.9966684776604
322,642.9589479856016
323,642.9152817051985
324,642.8651504449673
325,642.8079598439617
326,642.7432227567757
327,642.670836448186
328,642.5913928481776
329,642.5064309888696
330,642.4185381424794
331,642.3312374497762
332,642.2486588279655
333,642.1750588903848
334,642.1143066760291
335,642.0694579418982
336,642.0424968885534
337,642.0342561914185
338,642.0444683610383
339,642.0718740503845
340,642.1143229049252
341,642.1688434385206
342,642.2317034966322
343,642.2985050828613
344,642.3643581481803
345,642.4241702258299
346,642.4730651662578
347,642.5068971126223
348,642.5227778616731
349,642.5195159976836
350,642.4978769479528
351,642.4606013491925
352,642.4121582550209
353,642.3582554907211
354,642.3051716224282
355,642.2590009942797
356,642.2249092820963
357,642.2064868270402
358,642.2052747401879
359,642.2205329274249
360,642.2493093454555
361,642.2868353357271
362,642.3272057060992
363,642.3642260278156
364,642.3922640965988
365,642.4069548543575
366,642.4056645858886
367,642.3876806435161
368,642.3541379718821
369,642.3077360551911
370,642.2523369513337
371,642.1925329896773
372,642.1332246389142
373,642.0792033653606
374,642.0347361691055
375,642.0031879011971
376,641.986749159604
377,641.986327538432
378,642.0016102098785
379,642.0312489010302
380,642.073090930681
381,642.1243956839743
382,642.1820167050911
383,642.2425612863219
384,642.3025427606152
385,642.3585281121575
386,642.4072781642532
387,642.445882363797
388,642.4718911157521
389,642.4834404055796
390,642.47935305599
391,642.4591944552704
392,642.4232642374158
393,642.3725270269135
394,642.3085152332937
395,642.2332451442238
396,642.1491608724639
397,642.0590830858905
398,641.9661235242802
399,641.8735414344892
400,641.7845520045116
401,641.7021305055854
402,641.6288697702923
403,641.5669293533114
404,641.5180666414293
405,641.4836902405632
406,641.4648585800179
407,641.4621781571025
408,641.4756188891631
409,641.5043181887806
410,641.5464602285779
411,641.5992936045672
412,641.6593087676205
413,641.7225535611053
414,641.7850330554407
415,641.8431260212334
416,641.8939544555979
417,641.9356555743406
418,641.9675153883197
419,641.9899291247043
420,642.00417451567
421,642.0120323836238
422,642.0153478963722
423,642.0156593950004
424,642.0140042198326
425,642.0109429530353
426,642.0067567982795
427,642.001719942545
428,641.9963590997759
429,641.9916582179391
430,641.9891955539395
431,641.9911954591754
432,642.0004613350659
433,642.0201574123041
434,642.0534371447532
435,642.1029710414958
436,642.1704855918719
437,642.25644836927
438,642.3599891279526
439,642.479047950402
440,642.6106547688478
441,642.7512243032224
442,642.8967900761064
443,643.0431570280875
444,643.1859958910143
445,643.3209300959418
446,643.443673766761
447,643.550257851628
448,643.6373363460316
449,643.702522635531
450,643.744690627435
451,643.7641861499867
452,643.7629136042889
453,643.7442736411497
454,643.7129285766671
455,643.6743844968163
456,643.6344206991478
457,643.5984522143546
458,643.5709432193552
459,643.554980635467
460,643.5520773404869
461,643.5622200197696
462,643.584122072556
463,643.6156004458801
464,643.6539782097533
465,643.696426731851
466,643.7401953801053
467,643.7827175229921
468,643.8216175579781
469,643.8546705574528
470,643.8797783336294
471,643.895014390061
472,643.898756478238
473,643.8898870569355
474,643.8680180569376
475,643.8336915919778
476,643.7885154571837
477,643.7352032293479
478,643.6774988092643
479,643.6199747248116
480,643.5677086792876
481,643.5258675000276
482,643.4992515592862
483,643.4918568309747
484,643.5064903000965
485,643.5444466264922
486,643.6052477732252
487,643.6864720513537
488,643.7837330878934
489,643.8908761764047
490,644.0004233157916
491,644.1042403461378
492,644.1943510792669
493,644.263791129565
494,644.307372579196
495,644.3222312453272
496,644.3080678222598
497,644.2670614900538
498,644.2034999934683
499,644.1232170646493
500,644.0329519032776
501,643.9397378836227
502,643.8503861094715
503,643.7710753917954
504,643.7070289834573
505,643.6622647863848
506,643.6394293329831
507,643.6397357600089
508,643.6630122523799
509,643.7078437625024
510,643.7717727851821
511,643.8515197973766
512,643.9431916462942
513,644.0424681950373
514,644.144783845018
515,644.2455318951039
516,644.340310819713
517,644.4252123948191
518,644.4971285043264
519,644.5540307999687
520,644.5951659689332
521,644.6211164369503
522,644.6337003703213
523,644.6357227013909
524,644.6306317786057
525,644.6221615292037
526,644.6140257768385
527,644.6096872109273
528,644.6121820944107
529,644.623969294653
530,644.646785752672
531,644.6815099913189
532,644.7280472572966
533,644.7852562977981
534,644.8509451820395
535,644.9219711636628
536,644.9944807975075
537,645.0643150197495
538,645.1275731640086
539,645.1812780255897
540,645.2240255427131
541,645.2564681597693
542,645.2814975152878
543,645.3040575980198
544,645.3306008893112
545,645.3682648699958
546,645.4238895766393
547,645.5030294683745
548,645.6091314334351
549,645.7430309515813
550,645.9028439288126
551,646.0842248528794
552,646.2808745077482
553,646.4851539980898
554,646.6886967216968
555,646.8829694264181
556,647.0597765613345
557,647.2117134520785
558,647.3325657738277
559,647.4176457468527
560,647.464058694522
561,647.470902306924
562,647.4394033431059
563,647.3729810942251
564,647.277197391039
565,647.1595359019573
566,647.0289727318568
567,646.8953490206727
568,646.7686081584679
569,646.657993431168
570,646.5713059279636
571,646.5143017923933
572,646.4902798017811
573,646.4998911512573
574,646.5411944897968
575,646.6099641593047
576,646.7002211744408
577,646.8049022894147
578,646.9165428436233
579,647.0278518260759
580,647.1321090906646
581,647.2233925570351
582,647.2967053441103
583,647.3480839459793
584,647.3747258733447
585,647.3751132167896
586,647.3490736921792
587,647.2977293834012
588,647.2233163476095
589,647.1288939935918
590,647.0179929012457
591,646.8942657697704
592,646.7612011717118
593,646.6219361020911
594,646.4791728606984
595,646.3351838018839
596,646.1918834064729
597,646.0509548504596
598,645.9140192048094
599,645.7828194938388
600,645.6593736004062
601,645.546053317461
602,645.4455706527147
603,645.3608690482623
604,645.2949138997965
605,645.2503759483991
606,645.2292235953082
607,645.2322754859224
608,645.2587897330703
609,645.3061704474918
610,645.3698599025968
611,645.4434656650157
612,645.5191498191313
613,645.5882737507069
614,645.6422415462055
615,645.6734297285113
616,645.676052748266
617,645.6468104901268
618,645.5852033343043
619,645.493472263783
620,645.3761978412542
621,645.2396442119519
622,645.090956598205
623,644.9373249944143
624,644.7852222851965
625,644.6398123721858
626,644.5045988737404
627,644.3813409441066
628,644.2702060840601
629,644.1700923315891
630,644.0790569630625
631,643.9948086644872
632,643.9152130038789
633,643.8387351660477
634,643.764742376587
635,643.6936244473325
636,643.6267369883719
637,643.5661977661256
638,643.5145661786692
639,643.4744303982424
640,643.4479442070575
641,643.4363930797161
642,643.4398904616309
643,643.4572825985631
644,643.4862831507119
645,643.5237997560338
646,643.5663793624999
647,643.6106920034424
648,643.6539823977541
649,643.6944299435884
650,643.7313635927003
651,643.7652886785784
652,643.7977111573672
653,643.8307864460488
654,643.8668599063544
655,643.907992443633
656,643.9555632253341
657,644.0100033163471
658,644.0706637939979
659,644.1358007415728
660,644.2026696449067
661,644.267724723838
662,644.3268963973361
663,644.3759000147877
664,644.4105373599873
665,644.426974504126
666,644.4219842277632
667,644.3931249250528
668,644.3388217574382
669,644.2583478936448
670,644.1517562120977
671,644.0198347420285
672,643.8641296877888
673,643.6870247493897
674,643.4918233984953
675,643.282766895686
676,643.0649284100459
677,642.8439480201364
678,642.6256212905618
679,642.415420044857
680,642.2180712953393
681,642.03730689777
682,641.8758197636198
683,641.7353704998633
684,641.6169421154333
685,641.5208615234712
686,641.4468641769101
687,641.3941258460214
688,641.3612979570781
689,641.3465602951013
690,641.3476671297736
691,641.3619434747515
692,641.3862111463035
693,641.4166790879502
694,641.4488811258282
695,641.4777513319124
696,641.4978836674532
697,641.5039540680405
698,641.4912324723475
699,641.4561021893528
700,641.396516682902
701,641.3123284427139
702,641.2054198548941
703,641.0795801880297
704,640.9401232251353
705,640.7933086435659
706,640.6456815217902
707,640.5034550276458
708,640.3720304619391
709,640.2556933787623
710,640.1574719766197
711,640.0791155714442
712,640.0211447143595
713,639.9829275023434
714,639.9627498163463
715,639.957875304166
716,639.9646193828925
717,639.9784730093518
718,639.9943109449472
719,640.0067153923362
720,640.0104309142088
721,640.0009271836178
722,639.974988823885
723,639.931205950187
724,639.8702371870568
725,639.7947661764036
726,639.709149071828
727,639.618820944615
728,639.5295725944512
729,639.4468215960446
730,639.374989195443
731,639.3170685016114
732,639.2744353700036
733,639.246911448843
734,639.2330433752603
735,639.2305271315191
736,639.2366930244792
737,639.2489702545938
738,639.2652586247395
739,639.2841442611215
740,639.3049162331362
741,639.327386909567
742,639.3515843484022
743,639.3774305262662
744,639.4045095718029
745,639.4319762441907
746,639.4586012173356
747,639.4829276004253
748,639.5035156912622
749,639.5192539400053
750,639.5297019304558
751,639.5354142884521
752,639.5381813878184
753,639.5411184871147
754,639.5485509457237
755,639.5656858176958
756,639.5981110086657
757,639.6511939072219
758,639.729455125607
759,639.8359838483384
760,639.9719517735854
761,640.1362762828257
762,640.3254791537579
763,640.5337802852723
764,640.7534522332734
765,640.9754389943547
766,641.1902066384023
767,641.388740882134
768,641.5635513396898
769,641.7095114255001
770,641.8243762911346
771,641.9088812378999
772,641.9664171482588
773,642.0023770521218
774,642.0233285507262
775,642.036170580307
776,642.0473950756742
777,642.06252067042
778,642.0857138665037
779,642.1195758769511
780,642.1650590437209
781,642.2214843522682
782,642.2866533057978
783,642.3570701922966
784,642.4282980009982
785,642.4954529861168
786,642.5538036075587
787,642.5993945780236
788,642.6295853218124
789,642.6433915221094
790,642.6415525331201
791,642.6263022351633
792,642.600878155912
793,642.5688528825605
794,642.5334068022084
795,642.4966759796122
796,642.4592985552222
797,642.4202470535481
798,642.3769826435977
799,642.325917363221
800,642.2631266681892
801,642.1852072646487
802,642.0901236347981
803,641.9778568536145
804,641.8506914713778
805,641.7130557388633
806,641.5709463431921
807,641.4310830899785
808,641.3000039772111
809,641.1832970146212
810,641.0850893993507
811,641.0078257345182
812,640.9523001268208
813,640.9178697613565
814,640.9027663245453
815,640.9044336635769
816,640.9198512143636
817,640.9458396328207
818,640.9793647248437
819,641.0178433363045
820,641.0594195898258
821,641.1031470897095
822,641.1490082729138
823,641.1977407960916
824,641.2505107020902
825,641.3085321503748
826,641.3727442083045
827,641.4436112397314
828,641.521045569754
829,641.6044027469327
830,641.6924966717014
831,641.7836152867085
832,641.8755548286132
833,641.9657029700694
834,642.0511822628611
835,642.1290309795432
836,642.1963746871869
837,642.2505499214359
838,642.2891812803588
839,642.3102570829201
840,642.3122619279035
841,642.2943976590434
842,642.2568720159264
843,642.2011768971487
844,642.1302435853802
845,642.0483801495375
846,641.9609654933412
847,641.8739557762813
848,641.7933089363041
849,641.7244341349347
850,641.6717352211467
851,641.6382684735299
852,641.625504593906
853,641.6331860874831
854,641.6592933222138
855,641.7001536125568
856,641.7507296474768
857,641.8051003687387
858,641.8571032799045
859,641.901054663541
860,641.9324275807006
861,641.9483728976368
862,641.9480128362745
863,641.9324815626852
864,641.9047064771058
865,641.8689382852244
866,641.8300803159751
867,641.792925986751
868,641.7614435013147
869,641.7382286650139
870,641.72419915017
871,641.7185526769204
872,641.7189676880826
873,641.721990299274
874,641.7235321360141
875,641.719406973762
876,641.705854600673
877,641.6800206685537
878,641.6403666011576
879,641.5869728962631
880,641.521683972471
881,641.4480406707759
882,641.3709722316964
883,641.2962709367505
884,641.2299255518429
885,641.177415406683
886,641.1430569440743
887,641.1294667185897
888,641.1371853396431
889,641.1645044484372
890,641.2075342194331
891,641.2605180902729
892,641.3163501846192
893,641.3672116143498
894,641.4052352161322
895,641.4231248144605
896,641.4146780675345
897,641.3751879258917
898,641.3017243824875
899,641.193313838941
900,641.0510319337512
901,640.8780122940418
902,640.6793545833361
903,640.461901815355
904,640.2338670570475
905,640.0043238471206
906,639.7826087690514
907,639.5776992015442
908,639.3976270990473
909,639.2489792717446
910,639.1365172050577
911,639.0629288922788
912,639.0287152277609
913,639.0322223633779
914,639.0698437199668
915,639.1364027591648
916,639.2256834704576
917,639.3310301229071
