frame_number,force
0,684.7254700000295
1,685.2486429096998
2,685.7528966066417
3,686.2209896200735
4,686.6387818955907
5,686.9962258241574
6,687.2878489960333
7,687.5127404441259
8,687.6741122474235
9,687.7785469627379
10,687.8350640003148
11,687.8541406796066
12,687.8467985118265
13,687.8238175810718
14,687.7950954324568
15,687.7691479871299
16,687.7527619633405
17,687.7508245013353
18,687.7663467032191
19,687.800660236277
20,687.8537244240811
21,687.9244658708311
22,688.0110913175786
23,688.11134669775
24,688.2227194652187
25,688.3425912870573
26,688.4683460871324
27,688.5974303350293
28,688.7273613482977
29,688.85569490474
30,688.9799880871545
31,689.0978051867542
32,689.2067972555759
33,689.3048448832698
34,689.3902137685296
35,689.4616601495604
36,689.5184483890451
37,689.5602933966428
38,689.5872848949487
39,689.5998554780433
40,689.5988138684826
41,689.5854109293342
42,689.5613790121176
43,689.5288984548083
44,689.4904832896273
45,689.4488141761552
46,689.406556486271
47,689.3661838724744
48,689.3298078751252
49,689.2990121869849
50,689.2746955325501
51,689.2569265857794
52,689.2448185095444
53,689.236446493316
54,689.22884215176
55,689.2180921843828
56,689.1995565195693
57,689.16821267816
58,689.1191203568217
59,689.0479737487013
60,688.9516725401975
61,688.8288116150312
62,688.6799840035188
63,688.5078220484442
64,688.3167579412918
65,688.1125422794505
66,687.9016007092388
67,687.6903326143849
68,687.4844636435542
69,687.2885502906719
70,687.1056942724924
71,686.9374614392051
72,686.7839382227212
73,686.6438370766032
74,686.5145974210367
75,686.3924883591941
76,686.2727581393458
77,686.1498782521212
78,686.017909545319
79,685.8709872438327
80,685.7038861176635
81,685.5125895009419
82,685.2947602533028
83,685.0500187151101
84,684.7799762708337
85,684.4880332012641
86,684.1790011494406
87,683.8586393750335
88,683.5331975352999
89,683.2090400578471
90,682.8923921800545
91,682.5892051307625
92,682.3051078729998
93,682.0454027442041
94,681.8150540463084
95,681.6186028072373
96,681.4599417188047
97,681.3419278993988
98,681.2658878729477
99,681.2311371959164
100,681.234657313468
101,681.271039087887
102,681.3327418144893
103,681.4106547813589
104,681.4948963030913
105,681.5757476872224
106,681.6446015507019
107,681.6948041875538
108,681.7222860274034
109,681.7259022244948
110,681.7074459854757
111,681.6713426073345
112,681.6240738745934
113,681.5734153639111
114,681.5275861863162
115,681.494404717071
116,681.4805190169568
117,681.4907547283483
118,681.5276167245107
119,681.5909969435704
120,681.6781540500047
121,681.7840076891005
122,681.9017291271674
123,682.0235454317241
124,682.1416381002707
125,682.2490100934434
126,682.3402060143965
127,682.4117975756513
128,682.4625878652093
129,682.4935319222479
130,682.5074132705346
131,682.50835299797
132,682.5012412779454
133,682.4911596105321
134,682.4828288085206
135,682.4801066208415
136,682.4855727416086
137,682.5002536584628
138,682.5235381590661
139,682.5533151571371
140,682.5863290394735
141,682.618698316649
142,682.6465013445156
143,682.6663189664051
144,682.6756379989926
145,682.6730523038493
146,682.6582479678915
147,682.63181973703
148,682.5950142095935
149,682.5495060665522
150,682.4972812213939
151,682.4406416325944
152,682.3822843937064
153,682.3253618863346
154,682.2734154592838
155,682.2301039419206
156,682.1987188417327
157,682.1815678970869
158,682.1793810846913
159,682.1909157174167
160,682.2128984134989
161,682.2403532487409
162,682.2672562642769
163,682.2873667815196
164,682.295049858509
165,682.2859287634224
166,682.2572731004085
167,682.2081105103789
168,682.1391206787414
169,682.0524066045672
170,681.9512310719563
171,681.8397667834374
172,681.7228600129907
173,681.6057744813261
174,681.4938778108755
175,681.392252738962
176,681.3052445576214
177,681.2359839740291
178,681.1859475971651
179,681.1546366704238
180,681.1394637084634
181,681.1359215741321
182,681.1380580784706
183,681.1392038096233
184,681.1328338813768
185,681.113408157421
186,681.0770324486226
187,681.0218169763443
188,680.947882480328
189,680.8570633408367
190,680.7524362200799
191,680.6378187276794
192,680.5173351376642
193,680.3950792555376
194,680.2748630097176
195,680.1600313207312
196,680.0533278183182
197,679.9567923634709
198,679.8716600703586
199,679.7982278060726
200,679.7356738974761
201,679.6818636969027
202,679.6332304669297
203,679.5848516601133
204,679.5308145100357
205,679.464885974283
206,679.3814073339554
207,679.2762623657613
208,679.1477391496556
209,678.9971178917103
210,678.8288574020587
211,678.6503092366032
212,678.4709613176797
213,678.301303488438
214,678.1514953517263
215,678.0300647657816
216,677.942855477386
217,677.8923902175272
218,677.8777417109271
219,677.8949124503785
220,677.9376240546187
221,677.9983411659986
222,678.0693341515073
223,678.143618472905
224,678.2156671856541
225,678.2818463062016
226,678.3405601489737
227,678.3921216555013
228,678.4383927681058
229,678.4822777556656
230,678.5271843984408
231,678.5765657229327
232,678.6336071015646
233,678.7010532932396
234,678.7811172112757
235,678.8754026873944
236,678.9848023492176
237,679.1093720455254
238,679.2482118370854
239,679.3993958968435
240,679.5599942128117
241,679.7262167325201
242,679.8936834896332
243,680.0577921783782
244,680.2141349823058
245,680.3589168207632
246,680.4893385139716
247,680.6039144561156
248,680.7026870526907
249,680.7872888223307
250,680.8608088292992
251,680.9274547982446
252,680.9920519151617
253,681.0594557983824
254,681.1339661188862
255,681.2188157673302
256,681.3157911744441
257,681.4250222941514
258,681.5449711129517
259,681.6726391870305
260,681.8039908197927
261,681.9345410697218
262,682.060006781182
263,682.1768988446121
264,682.2829559873267
265,682.3773645284335
266,682.4607548152977
267,682.5350076166155
268,682.6029359993034
269,682.6679187503509
270,682.7335467099032
271,682.803314682657
272,682.8803652012776
273,682.9672741429728
274,683.0658633334283
275,683.1770349368596
276,683.3006455011013
277,683.4354608371289
278,683.5792391762941
279,683.7289689269002
280,683.8812406239915
281,684.0326793026627
282,684.1803348070622
283,684.3219429997762
284,684.4560200694101
285,684.5818060287056
286,684.6991086076681
287,684.8081097403078
288,684.9091888187485
289,685.0027912374387
290,685.0893328536152
291,685.1691069429335
292,685.2421747572506
293,685.3082588803775
294,685.3666806235336
295,685.4163739579002
296,685.4559885258941
297,685.48408418672
298,685.4994152288745
299,685.5012826273869
300,685.4898944952157
301,685.4666465206901
302,685.4342404820351
303,685.3965931416288
304,685.3585317615126
305,685.325318901068
306,685.3020898489278
307,685.2933027532239
308,685.3022857935528
309,685.3309302286204
310,685.3795398067937
311,685.446817546602
312,685.5299612771801
313,685.6248499333218
314,685.7263154258635
315,685.8284951272905
316,685.9252513159917
317,686.0106317711763
318,686.0793297615666
319,686.1270910562218
320,686.1510237982131
321,686.1497896141298
322,686.123673874374
323,686.0745418812318
324,686.005688735536
325,685.9215867058135
326,685.8275316830058
327,685.7292014783364
328,685.6321650592778
329,685.541405413156
330,685.4609163920262
331,685.3934040237175
332,685.3400948864498
333,685.3006589677153
334,685.2732822264287
335,685.2549293136607
336,685.2417916336459
337,685.2298453896055
338,685.2154005702844
339,685.195534070171
340,685.16835837776
341,685.1331462314681
342,685.0903674973382
343,685.041673633115
344,684.9898131513809
345,684.9384326379795
346,684.8917376924642
347,684.8540362899658
348,684.8292291109448
349,684.8203278497385
350,684.8290752742749
351,684.8557218223833
352,684.8989874907177
353,684.9562053909908
354,685.0236161498356
355,685.0967710334277
356,685.1709949344074
357,685.2418415686591
358,685.3054555007666
359,685.3587714710679
360,685.3995343254518
361,685.4261777957901
362,685.4376301520563
363,685.4331236898388
364,685.4120818073811
365,685.3741352499994
366,685.3192740298605
367,685.248091392088
368,685.1620467742309
369,685.063674135138
370,684.9566804792613
371,684.8459037644582
372,684.7371181287741
373,684.6366852249017
374,684.5510677728864
375,684.4862555994797
376,684.4471870594966
377,684.4372491097254
378,684.4579054202195
379,684.50847106853
380,684.5860590998064
381,684.6857523088453
382,684.8010511997379
383,684.9245928126671
384,685.0490540330039
385,685.1680894119535
386,685.2771294219988
387,685.3738870880868
388,685.4584856276985
389,685.5332068098999
390,685.6019385239618
391,685.6694448336165
392,685.740581688463
393,685.8195500143696
394,685.9092478739741
395,686.0107742496616
396,686.1231365518142
397,686.243201713176
398,686.3659027051314
399,686.4846769471849
400,686.5920800205794
401,686.6804965327955
402,686.742868795459
403,686.7733842149759
404,686.768084217453
405,686.7253505546029
406,686.6461912155391
407,686.5342369866298
408,686.3954080688878
409,686.2372919236412
410,686.0683340635393
411,685.8969619056584
412,685.7307552587158
413,685.575764964991
414,685.4360639554061
415,685.3135817333213
416,685.2082240805123
417,685.1182311051135
418,685.0406943329856
419,684.9721422619536
420,684.9091131486246
421,684.8486558534115
422,684.7887155116822
423,684.7283591599504
424,684.6677934809805
425,684.6081497101491
426,684.5510613167775
427,684.4981143348937
428,684.4502870574076
429,684.4075048823879
430,684.3684111469308
431,684.3304027468652
432,684.2899244721324
433,684.2429784020605
434,684.1857813429087
435,684.1154788473026
436,684.0307968929887
437,683.9324986756887
438,683.8235304608277
439,683.7087871649918
440,683.5944957914182
441,683.4872966607027
442,683.3931873274045
443,683.3165506695202
444,683.2594817818967
445,683.2215517206478
446,683.2000258269978
447,683.1904341202686
448,683.1873201674675
449,683.1849990230443
450,683.178212154182
451,683.162631006328
452,683.1352039062579
453,683.0943603445934
454,683.0400833545484
455,682.9738412219458
456,682.8983576417254
457,682.8172180999965
458,682.7343531088331
459,682.6534771327024
460,682.5775778244121
461,682.5085411895857
462,682.4469640904128
463,682.3921558506397
464,682.3422912623467
465,682.2946644988128
466,682.245998264291
467,682.1927713296911
468,682.1315407781155
469,682.0592521360811
470,681.9735354813203
471,681.8729696655323
472,681.7572795923282
473,681.6274394561044
474,681.4856854489341
475,681.3354648293703
476,681.1813405947429
477,681.0288389269474
478,680.8841979645583
479,680.7539731590743
480,680.6444816200996
481,680.5611186444756
482,680.5076367016194
483,680.4855180595489
484,680.4935809463628
485,680.5279304332267
486,680.5823034517176
487,680.6487746745632
488,680.7187072830594
489,680.7837786628317
490,680.8369046058278
491,680.8729195863903
492,680.8889267183096
493,680.8842965373577
494,680.8603579648956
495,680.8198765093109
496,680.7664453223405
497,680.7039140792789
498,680.6359440778692
499,680.5657234767175
500,680.495834869515
501,680.4282469229225
502,680.3643890155972
503,680.3052625290615
504,680.2515567741282
505,680.2037613747583
506,680.1622741243633
507,680.1274904915939
508,680.0998499565511
509,680.0798191981532
510,680.0678057203068
511,680.0640086370367
512,680.0682290052015
513,680.0796849017444
514,680.0968971650864
515,680.1177111623537
516,680.1394878691452
517,680.1594424815755
518,680.175053492302
519,680.1844371969853
520,680.1865979730741
521,680.1815142750494
522,680.1700770330758
523,680.1539350669109
524,680.1353088987987
525,680.1168139269242
526,680.10130370832
527,680.0917249587803
528,680.0909734154201
529,680.1017400061432
530,680.1263319015201
531,680.1664578556412
532,680.2229958223938
533,680.2957973254742
534,680.3835938725515
535,680.4840444329265
536,680.5939228966764
537,680.7094165291102
538,680.826490990036
539,680.9412647946554
540,681.0503341687129
541,681.1510099134138
542,681.2414574364653
543,681.320745220307
544,681.3888058861111
545,681.4463181899272
546,681.4945354265354
547,681.5350976988725
548,681.5698526258105
549,681.6006824076114
550,681.629331019536
551,681.6572577961238
552,681.6855765288783
553,681.715123151718
554,681.7466280107744
555,681.7809021461171
556,681.818933753641
557,681.8618370244939
558,681.910664439946
559,681.9661464128233
560,682.0284425844334
561,682.0969796042348
562,682.1704224342777
563,682.2467933684687
564,682.3237225736077
565,682.3987872151479
566,682.469874225885
567,682.5354914017689
568,682.5949626973622
569,682.6484771928066
570,682.6970019771682
571,682.7420950321588
572,682.7856560471598
573,682.8296455413141
574,682.8758055623365
575,682.925426346768
576,682.9792018557918
577,683.0371906468295
578,683.0988589106366
579,683.1631580680182
580,683.2285986458463
581,683.2933136165759
582,683.3551313374955
583,683.4116879569431
584,683.4606021800702
585,683.4997108267467
586,683.5273283184335
587,683.5424718656183
588,683.545007569667
589,683.5357092601986
590,683.5162475152348
591,683.4891212451626
592,683.4575211932048
593,683.425104263813
594,683.3956785928028
595,683.3728391005018
596,683.3596202702382
597,683.3582301720119
598,683.3699072137721
599,683.3949142375678
600,683.4326565721592
601,683.4818809177517
602,683.5408898712906
603,683.6077078517576
604,683.680163597922
605,683.7558971649952
606,683.8323275283369
607,683.9066159352203
608,683.975645146607
609,684.0360311366704
610,684.0841947814326
611,684.1165244791584
612,684.1296374006347
613,684.1207026650569
614,684.0877492436457
615,684.0298720827268
616,683.9472851937813
617,683.8412369679384
618,683.7138613808478
619,683.5680503918425
620,683.407396598296
621,683.2362073847589
622,683.0595602478144
623,682.8833480381811
624,682.7142426244984
625,682.5594968440416
626,682.4265248883202
627,682.3222547274831
628,682.2523204998855
629,682.2202319034366
630,682.226691255948
631,682.2692113336456
632,682.3421290523529
633,682.4370379538925
634,682.5435944455375
635,682.6505919291374
636,682.747151166297
637,682.8238618469417
638,682.873728869259
639,682.892806787278
640,682.8804441172459
641,682.8391214347291
642,682.7739448411232
643,682.6919129248884
644,682.6010904325756
645,682.5098055141943
646,682.4259551832176
647,682.3564664622236
648,682.3069284836621
649,682.2813873739376
650,682.2822824741324
651,682.3105047385224
652,682.3655699588603
653,682.4458979008948
654,682.5491639697702
655,682.6726644026185
656,682.8136340966971
657,682.9694750675636
658,683.1378725923495
659,683.3167872313428
660,683.5043260645917
661,683.6985281666512
662,683.8971412778491
663,684.0974923547891
664,684.296534306535
665,684.4910792621506
666,684.6781400402944
667,684.8552492447926
668,685.0206381814086
669,685.1732213607456
670,685.3124077555027
671,685.4378138590699
672,685.5489752740133
673,685.6451484739363
674,685.7252674059671
675,685.788072889436
676,685.8323769957719
677,685.8573785408594
678,685.8629235677936
679,685.8496135675431
680,685.8187093091334
681,685.77185327862
682,685.710709290299
683,685.6366544140062
684,685.5506399236773
685,685.4532816884848
686,685.3451700168432
687,685.2273176789573
688,685.1016090472633
689,684.9710983630121
690,684.8400456707421
691,684.713658849
692,684.5975882308901
693,684.4972631970327
694,684.4171690784134
695,684.3601630554853
696,684.3269359695743
697,684.3157313755468
698,684.3224066236386
699,684.340853637665
700,684.3637152229192
701,684.3832766667157
702,684.3923981138307
703,684.3853621718245
704,684.3585201617792
705,684.3106320952747
706,684.2428347903389
707,684.158251492922
708,684.061346370561
709,683.9571789626019
710,683.8507061165095
711,683.7462369711802
712,683.6471059173463
713,683.555596117446
714,683.4731056556537
715,683.4004926129211
716,683.3384791844052
717,683.2879656484255
718,683.2501293748467
719,683.2262690807842
720,683.217467085769
721,683.2242196422901
722,683.2461844331731
723,683.2821294828601
724,683.3300886557673
725,683.3876698163635
726,683.4524271998558
727,683.5221961566033
728,683.5952982490219
729,683.6705607942896
730,683.7471545087492
731,683.8243189908052
732,683.9010870957981
733,683.9761140427872
734,684.0476739080101
735,684.113828451063
736,684.172718132687
737,684.2228891768405
738,684.2635708924181
739,684.2948490269156
740,684.3177135780959
741,684.3339779605652
742,684.3460868121911
743,684.3568584160938
744,684.3692180579689
745,684.3859527801919
746,684.4094823050144
747,684.4416341828111
748,684.4834352075039
749,684.534955931734
750,684.5952535447674
751,684.662456215704
752,684.7340177848447
753,684.8071328947265
754,684.8792466378759
755,684.9485486925722
756,685.014330209844
757,685.0771069313854
758,685.1384731348983
759,685.2007318960561
760,685.2664103122389
761,685.3377823992373
762,685.4164897495426
763,685.5032972149477
764,685.5979743523412
765,685.6992721683938
766,685.8049756085427
767,685.912037778799
768,686.0168086085583
769,686.115345315461
770,686.2037614793089
771,686.2785708920072
772,686.3370079096022
773,686.3773214393628
774,686.3990269112056
775,686.4030777899021
776,686.3919088632682
777,686.3693141505513
778,686.3401489261262
779,686.3098819989152
780,686.2840620144221
781,686.2677881402
782,686.2652796117268
783,686.2796142301102
784,686.3126581279437
785,686.3651563265353
786,686.4369193656879
787,686.5270387912542
788,686.6340858924118
789,686.7562710318682
790,686.8915476823172
791,687.0376414915935
792,687.1919930139329
793,687.3516335330851
794,687.51304733757
795,687.6720846932451
796,687.8239773834347
797,687.9634894276795
798,688.085210010679
799,688.183955291743
800,688.2552036682991
801,688.2954745775072
802,688.3025868887916
803,688.2757803459896
804,688.2157196036931
805,688.1244112029467
806,688.0050595792194
807,687.8618798936869
808,687.6998777360732
809,687.5246030806281
810,687.3418842374382
811,687.1575398218163
812,686.9770653815795
813,686.8053114102504
814,686.646193819799
815,686.5024772025037
816,686.3756474790547
817,686.2658699311587
818,686.1720257880686
819,686.0918306173885
820,686.0220480245689
821,685.9588079669506
822,685.8980099368276
823,685.8357446181576
824,685.7686342995437
825,685.6940059147828
826,685.6098720417477
827,685.5147677540746
828,685.4075339735916
829,685.2871363234968
830,685.1525760018121
831,685.0029101475516
832,684.8373710114415
833,684.6555613645838
834,684.4577012441532
835,684.2448922970694
836,684.019343309759
837,683.7844803697091
838,683.5448710075987
839,683.3059309276223
840,683.0734454628731
841,682.8530043744535
842,682.6494862227471
843,682.4667132480516
844,682.3073344593719
845,682.1729152537667
846,682.064152260613
847,681.981109928594
848,681.9233893150034
849,681.8901818852954
850,681.8802170694819
851,681.8916552927635
852,681.921987734278
853,681.9679872670982
854,682.0257366266093
855,682.0907538475108
856,682.1582345897276
857,682.2234187350085
858,682.2820516333493
859,682.330856942157
860,682.3679003401325
861,682.3927307864031
862,682.406238572986
863,682.4102442047482
864,682.406903147264
865,682.39806060153
866,682.3847104846589
867,682.3667013013376
868,682.3427822906682
869,682.3109963542009
870,682.269328251172
871,682.2164513846884
872,682.1524081604585
873,682.079090395442
874,682.0004241268357
875,681.9221966182891
876,681.85150865101
877,681.7959040568427
878,681.7623045452177
879,681.7559302062641
880,681.7793972842945
881,681.8321564467848
882,681.9103741482047
883,682.0072778304176
884,682.1139031065754
885,682.220120069483
886,682.3157850081658
887,682.3918572597875
888,682.4413340997269
889,682.459892840612
890,682.4461869334344
891,682.4018037212655
892,682.3309300146132
893,682.2397774647307
894,682.1358108978259
895,682.0268307629807
896,681.9199977216165
897,681.8209312946419
898,681.7330309991266
899,681.6571426543753
900,681.5916343681469
901,681.5328708011345
902,681.4759910061263
903,681.4158252166035
904,681.3477636355377
905,681.2684309101852
906,681.1760958354704
907,681.0708116499856
908,680.9543167975012
909,680.8297402155483
910,680.7011687753965
911,680.5731507582589
912,680.4502149385181
913,680.3364710126875
914,680.2353294169242
915,680.1493472545444
916,680.0801797978468
917,680.0286026341292
