frame_number,force
0,636.2410900000435
1,636.8725092229168
2,637.4813561215813
3,638.0468635739069
4,638.5515824060893
5,638.9824257104369
6,639.3312197083773
7,639.5948341932163
8,639.7749832098434
9,639.8777559802393
10,639.9129071255186
11,639.8929301169871
12,639.8319598221593
13,639.7445889435515
14,639.6447215774413
15,639.5446007332849
16,639.4541192599343
17,639.3804638954819
18,639.3280775159501
19,639.2988800726607
20,639.2926729783624
21,639.3076546793928
22,639.3409788961857
23,639.3892881986532
24,639.4491678065637
25,639.5174922669147
26,639.5916659455703
27,639.6697739129339
28,639.750664690257
29,639.8339870710776
30,639.9202002214743
31,640.0105618953689
32,640.1070689478391
33,640.2122936768375
34,640.329062254825
35,640.4599739480607
36,640.6068370238593
37,640.7701477169126
38,640.9487266056979
39,641.1395673824086
40,641.3379001489789
41,641.5374593659968
42,641.7309549872276
43,641.9107340859016
44,642.0695811673547
45,642.2015633833573
46,642.3028074296685
47,642.3721007763187
48,642.4112257055931
49,642.424953281371
50,642.4206595360743
51,642.4075860983907
52,642.3958313294504
53,642.3951989458848
54,642.4140485638125
55,642.458299994526
56,642.5307357400587
57,642.6307069404219
58,642.7542818741247
59,642.8948116815216
60,643.0438418469865
61,643.1922601204639
62,643.3315310652417
63,643.4548346873553
64,643.5579242754615
65,643.6395582968122
66,643.7014353703476
67,643.7476544500129
68,643.7838172638886
69,643.8159621922968
70,643.849542211342
71,643.888625631435
72,643.9354204965666
73,643.9901276832638
74,644.0510455353669
75,644.1148102523717
76,644.176676252477
77,644.2308057278128
78,644.270602055962
79,644.2891381160797
80,644.2796880438775
81,644.2363114162544
82,644.1544129119814
83,644.0312190162977
84,643.8661450760326
85,643.661034869425
86,643.4202346180592
87,643.1504419123683
88,642.8602837206805
89,642.559633502285
90,642.2587417375121
91,641.9672907186248
92,641.6934897394458
93,641.4433140898952
94,641.2199677686626
95,641.0236232533323
96,640.8514696539978
97,640.6980771881606
98,640.5560493681577
99,640.4168869823225
100,640.271947534413
101,640.1133687959928
102,639.9348407241963
103,639.732144023731
104,639.5034116224745
105,639.2491095349413
106,638.9717764249413
107,638.6755968938043
108,638.3659003710616
109,638.0486693863868
110,637.730110294564
111,637.4163018418839
112,637.1129097497274
113,636.8249400974388
114,636.5564964125165
115,636.3105134933495
116,636.0884721329949
117,635.890138626194
118,635.7134005683811
119,635.5542773948956
120,635.4071610187514
121,635.2652799817798
122,635.1213055261895
123,634.9679844614682
124,634.7987125029978
125,634.608015924438
126,634.3919434690301
127,634.1483710398903
128,633.8771961533757
129,633.580363417591
130,633.2616449638984
131,632.9261267846045
132,632.5794216259252
133,632.2267153856062
134,631.8718268381152
135,631.5164943858597
136,631.1600782910006
137,630.7997765957912
138,630.4313187619961
139,630.0499715070002
140,629.6516212123698
141,629.2337133137872
142,628.7959073677183
143,628.3403888815565
144,627.8718244540804
145,627.3969653685949
146,626.923931301462
147,626.4612515540246
148,626.0167892765323
149,625.5967075761678
150,625.2046459137742
151,624.841248673222
152,624.5041189070878
153,624.1881772660687
154,623.8863240451346
155,623.5902565029547
156,623.2912912921366
157,622.9810798867197
158,622.6521696834188
159,622.2984281600244
160,621.9153821814299
161,621.5005118636977
162,621.0534866726746
163,620.5762783914828
164,620.0730767278345
165,619.5499821234456
166,619.0145210683103
167,618.4750674646308
168,617.9402376017126
169,617.4182851728198
170,616.9165014845156
171,616.4406420860224
172,615.9944365761037
173,615.5792597955203
174,615.1940294736088
175,614.8353585647887
176,614.4979542810615
177,614.1752261001889
178,613.8600348999285
179,613.5454905419059
180,613.2256974844049
181,612.8963549518544
182,612.5551319224264
183,612.2017596425103
184,611.8378208235665
185,611.4662655464085
186,611.0907429205339
187,610.7148862097955
188,610.3417018056451
189,609.9731763707166
190,609.6101444028816
191,609.2523837275876
192,608.898862407055
193,608.5480559970562
194,608.1982717667177
195,607.8479357403139
196,607.4958116424995
197,607.1411333590673
198,606.7836507127988
199,606.4236063031215
200,606.0616675956302
201,605.6988355699348
202,605.3363493742612
203,604.9756044458969
204,604.6180917564342
205,604.2653534903278
206,603.9189509132626
207,603.5804550493078
208,603.2514802525897
209,602.9337676959786
210,602.6292972356378
211,602.3403823062564
212,602.0696943704334
213,601.8201691209189
214,601.5947654846551
215,601.3960875006728
216,601.2259360243646
217,601.0849030462729
218,600.9721201756008
219,600.885222612365
220,600.8205270478784
221,600.7733795511946
222,600.7386113152173
223,600.7110371069597
224,600.6859406673871
225,600.6595106907299
226,600.6292070694317
227,600.5940324457781
228,600.5546598732878
229,600.5133532154969
230,600.4736421577499
231,600.4397706584209
232,600.4159953625251
233,600.4058541450587
234,600.4115504183673
235,600.4335872599415
236,600.4707227566136
237,600.5202286782028
238,600.5783643321519
239,600.6409464263122
240,600.7038919451294
241,600.7636252973426
242,600.8172820224897
243,600.8627104271118
244,600.8983442090907
245,600.9230555621187
246,600.9360774112034
247,600.9370199313204
248,600.9259473552459
249,600.9034629045022
250,600.8707609413387
251,600.8296156288892
252,600.7822853622506
253,600.7313372218755
254,600.679422883756
255,600.6290443440301
256,600.5823398234302
257,600.5409152537225
258,600.5057444542265
259,600.4771513091194
260,600.4548719614721
261,600.4381840352343
262,600.4260840149567
263,600.4174860608061
264,600.4114074971053
265,600.4071119581519
266,600.4042044232604
267,600.4026928010245
268,600.4030281602647
269,600.4061178831076
270,600.4132947355654
271,600.4262248251134
272,600.4467409976189
273,600.476602234415
274,600.5172168135979
275,600.5694099786633
276,600.6333220131851
277,600.708472697533
278,600.79395690832
279,600.8886886195656
280,600.9916036979955
281,601.1017620547904
282,601.2183428054346
283,601.3405708383176
284,601.4676214817875
285,601.5985301821846
286,601.7321190937527
287,601.8669579830149
288,602.0013888133957
289,602.1336399885413
290,602.2620311821
291,602.3852352886622
292,602.5025391210083
293,602.6140405526515
294,602.7207344830451
295,602.8244646886759
296,602.92774833078
297,603.03350607093
298,603.1447389896587
299,603.2641848221933
300,603.3939799390291
301,603.5353584396851
302,603.6884265606452
303,603.8520556913998
304,604.0239408513248
305,604.2008602059116
306,604.3791317377893
307,604.5552062970328
308,604.7262899639987
309,604.8908726105515
310,605.0490545462649
311,605.2025999857279
312,605.3546959806359
313,605.5094536384331
314,605.6712491247292
315,605.8440447176049
316,606.0308239191569
317,606.2332156466676
318,606.4513135703787
319,606.6836641362668
320,606.9274037184271
321,607.1785407096279
322,607.4323754394841
323,607.6840252410274
324,607.9289864115159
325,608.1636383251171
326,608.3855940616862
327,608.5938319315568
328,608.7885931300109
329,608.9710843316166
330,609.1430668207573
331,609.3064359176507
332,609.4628834806728
333,609.6136917870373
334,609.7596550535737
335,609.9010948249806
336,610.0379327346982
337,610.1697960461861
338,610.2961430294934
339,610.4163934714645
340,610.5300335184754
341,610.6366546935233
342,610.7359075823518
343,610.8273956775985
344,610.9105730781376
345,610.9847190827234
346,611.0490455475577
347,611.1029572582337
348,611.1464351391655
349,611.1804602705179
350,611.2073663801324
351,611.2310125686836
352,611.2567044776157
353,611.2908494608248
354,611.3403871377557
355,611.4120691676328
356,611.5116729409275
357,611.6432439303029
358,611.8084789226119
359,612.0063689450764
360,612.2331942379735
361,612.4829054785608
362,612.747855690082
363,613.0197800878742
364,613.2908620921462
365,613.5546899280984
366,613.8069276072612
367,614.0456023692437
368,614.2710142014881
369,614.4853541693451
370,614.6921485365067
371,614.8956301749226
372,615.1001096976725
373,615.3094044092818
374,615.5263794016728
375,615.7526393368786
376,615.9883775450909
377,616.2323604795307
378,616.4820167507415
379,616.7336111675526
380,616.9825083429258
381,617.2235536899227
382,617.4515951646066
383,617.6621183647658
384,617.8518953478492
385,618.0195078895067
386,618.1656258810455
387,618.292982930483
388,618.4060646465559
389,618.5105894027866
390,618.612893665367
391,618.7193195325291
392,618.8356586490855
393,618.9666710698584
394,619.1156895723565
395,619.2843323666199
396,619.4723631805999
397,619.6777437454207
398,619.8969106255115
399,620.1252706037952
400,620.3578531434343
401,620.5900087762537
402,620.8180236876018
403,621.0395396166792
404,621.2537111857671
405,621.4610819164662
406,621.6632100316741
407,621.8621304924704
408,622.0597902799092
409,622.2576085515982
410,622.456271554731
411,622.655785708301
412,622.8557150064836
413,623.0554635979887
414,623.2544648603815
415,623.4522030035671
416,623.6480838735154
417,623.8412434577631
418,624.0304116595792
419,624.2139336571624
420,624.3899968669449
421,624.5570280032715
422,624.714143706051
423,624.8615046744472
424,625.0004528135453
425,625.1333782876127
426,625.2633390127119
427,625.3935253614765
428,625.5267105950205
429,625.6648273631945
430,625.8087584280505
431,625.9583547764171
432,626.1126304303452
433,626.2700457978668
434,626.4287841022183
435,626.5869483269643
436,626.7426499897231
437,626.8940099445211
438,627.0391315025539
439,627.1761233229172
440,627.3032304080267
441,627.4190791943473
442,627.5229813011459
443,627.615201164516
444,627.6970970534965
445,627.7710892814015
446,627.8404651239415
447,627.9090685794941
448,627.9809350099051
449,628.0599187785236
450,628.149336363886
451,628.2516291658179
452,628.3680605681142
453,628.4984951197791
454,628.6413266471595
455,628.7935951184605
456,628.9512714177929
457,629.1096418459342
458,629.2637225907142
459,629.4086620199804
460,629.540106027201
461,629.6545008362775
462,629.7493142786387
463,629.8231802450346
464,629.8759874711083
465,629.9089222910662
466,629.9244461683417
467,629.9261687128372
468,629.9185833210425
469,629.906668072367
470,629.8954045467005
471,629.8893049516663
472,629.8920412562609
473,629.9062358769157
474,629.9334187068763
475,629.9741078880678
476,630.0279536227885
477,630.0938951686792
478,630.1703040072445
479,630.2551070975552
480,630.3458965425891
481,630.4400322548559
482,630.534736481896
483,630.6271741918531
484,630.7145159461824
485,630.7939865792499
486,630.8629135743365
487,630.9188060576552
488,630.9595077029257
489,630.9834493378414
490,630.9899714883694
491,630.9796237436062
492,630.9543216166195
493,630.9172722759489
494,630.8726499102469
495,630.8250719760514
496,630.7789722637534
497,630.7379858033089
498,630.7044671963223
499,630.6792560232624
500,630.6617626258313
501,630.6503705754158
502,630.6430643347318
503,630.6381299822855
504,630.6347649758101
505,630.6334631119629
506,630.6360939114878
507,630.6456633785027
508,630.6658206786034
509,630.7002361063761
510,630.7519869210274
511,630.8230530574044
512,630.9139781601837
513,631.0237133875772
514,631.1496350764717
515,631.2877173862848
516,631.432843951697
517,631.5792371982033
518,631.7209580973847
519,631.8524026056275
520,631.968724320494
521,632.0661483380549
522,632.1421781529161
523,632.1957063005525
524,632.2270231068146
525,632.237703831922
526,632.2303619478339
527,632.2082790274102
528,632.1749438292668
529,632.1335519210601
530,632.0865406113609
531,632.0352577136824
532,631.9798608628281
533,631.9194962491523
534,631.852728795537
535,631.7781292035332
536,631.694887144473
537,631.6033135647891
538,631.5051180589741
539,631.4033948084126
540,631.3023074458081
541,631.2065169575978
542,631.1204444821133
543,631.0474995194683
544,630.9894223891226
545,630.9458758144478
546,630.9143753202367
547,630.8905820680967
548,630.86890283867
549,630.8432654008069
550,630.8078966159226
551,630.7579500334073
552,630.6898947744658
553,630.6016513345797
554,630.4925211508923
555,630.3629996323582
556,630.214575616433
557,630.0495925829155
558,629.8711876711577
559,629.6832617080528
560,629.490396596483
561,629.2976448570373
562,629.1101681601424
563,628.9327667697233
564,628.7693769899699
565,628.6226027962574
566,628.4933201592617
567,628.3803874224666
568,628.280513152102
569,628.1883407763079
570,628.0967849319763
571,627.9976091640372
572,627.8821924390473
573,627.742402726687
574,627.5714788185588
575,627.364819913679
576,627.1205976935
577,626.840126690431
578,626.5279439815233
579,626.1915627771494
580,625.8408943845014
581,625.4873904348206
582,625.1430226322905
583,624.8192469561438
584,624.5260714067135
585,624.2712890253636
586,624.059897454812
587,623.8937241340886
588,623.7713009707553
589,623.6880511759879
590,623.6368266970204
591,623.6087579412117
592,623.594287409257
593,623.5842138842029
594,623.5705954623785
595,623.5474145871973
596,623.5109502609924
597,623.4598246379853
598,623.394723429167
599,623.3178483319405
600,623.2322179337033
601,623.1409526314815
602,623.0466537019882
603,622.950944708604
604,622.8542117721661
605,622.7555587246181
606,622.6529675714173
607,622.5436181575101
608,622.4242903158503
609,622.2917721140801
610,622.1432333203488
611,621.9765628168498
612,621.7906767499001
613,621.5857839306037
614,621.3635761471626
615,621.1273047912235
616,620.8817043880053
617,620.6327331396152
618,620.3871310579189
619,620.1518378102702
620,619.9333421293175
621,619.7370422482463
622,619.5666890105181
623,619.4239718622285
624,619.308298632276
625,619.216807295919
626,619.1446226343089
627,619.0853327907744
628,619.0316182752391
629,618.97593078296
630,618.9111098362614
631,618.830854719304
632,618.7300229640645
633,618.6047738267414
634,618.4525995471718
635,618.2722922775671
636,618.0638892909847
637,617.8286269005083
638,617.5689111019068
639,617.2882841799224
640,616.9913498213983
641,616.6836254588264
642,616.3713066565784
643,616.0609379969507
644,615.7589938825076
645,615.4713992298259
646,615.203058836254
647,614.9574796977724
648,614.7365429167668
649,614.5404365156377
650,614.3677314908426
651,614.2155743519851
652,614.079968418636
653,613.9561207317071
654,613.8388402235013
655,613.7229745060889
656,613.6038602483823
657,613.4777473620437
658,613.342153144052
659,613.1961017664557
660,613.0401988678271
661,612.8764972184081
662,612.708146348878
663,612.5388745834397
664,612.372394476165
665,612.2118311181172
666,612.0592486865497
667,611.9153171197482
668,611.7791474250579
669,611.6483346296792
670,611.5192486057641
671,611.3875715324561
672,611.2490047750525
673,611.1000011039037
674,610.9383604498602
675,610.763569223395
676,610.5768432199931
677,610.3809135224636
678,610.1796436315631
679,609.9775782204705
680,609.779508009542
681,609.5901037626163
682,609.4136395527817
683,609.2537999357933
684,609.1135464943911
685,608.9950080669751
686,608.899367997742
687,608.8267568212588
688,608.7761998967409
689,608.7456816340244
690,608.7323559401968
691,608.7328767273257
692,608.7437784543391
693,608.7618288455875
694,608.7843040948645
695,608.8091752055835
696,608.8352093927713
697,608.8619790302216
698,608.8897651802199
699,608.9193674382
700,608.951868607947
701,608.988417012783
702,609.0300725759067
703,609.0777345134006
704,609.1321433759609
705,609.1939248661593
706,609.2636194045705
707,609.3416408727614
708,609.4281436330451
709,609.5228312570997
710,609.6247808228004
711,609.732361865761
712,609.8432996954962
713,609.9548885561611
714,610.064321548371
715,610.1690755351791
716,610.2672705139528
717,610.3579250594606
718,610.4410570770435
719,610.5176154998209
720,610.5892571541118
721,610.658009289472
722,610.7258907906015
723,610.7945865025877
724,610.8652504865279
725,610.9384564037606
726,611.0142555802914
727,611.0922847058449
728,611.1718871399605
729,611.2522430702902
730,611.3325167023388
731,611.4120219861921
732,611.4903955206356
733,611.5677552932038
734,611.6448196001493
735,611.7229621506606
736,611.804182638228
737,611.890971657123
738,611.9860497392427
739,612.0919783486532
740,612.2106842713171
741,612.3429895512256
742,612.4882621016421
743,612.6442797500475
744,612.8073448718826
745,612.9726235150629
746,613.1346360207887
747,613.2878082253153
748,613.4269966283362
749,613.5479121013054
750,613.6473829376084
751,613.7234307432818
752,613.7751827836082
753,613.8026895791145
754,613.8067293043877
755,613.7886577588143
756,613.7503298273411
757,613.6940998427492
758,613.6229004111241
759,613.540382571634
760,613.4510698989681
761,613.3604497503402
762,613.2749139586333
763,613.2014816246373
764,613.1472914534123
765,613.11892632851
766,613.1216996497769
767,613.1590604138819
768,613.2322432226883
769,613.340210377833
770,613.4798509552645
771,613.646364437086
772,613.8337685118045
773,614.0354924802093
774,614.2450142526988
775,614.4564750329719
776,614.6651942956648
777,614.8680304486827
778,615.0635747708491
779,615.2521915010119
780,615.435909727461
781,615.6181562381821
782,615.80332408121
783,615.9962019484221
784,616.2013244883536
785,616.4223290910279
786,616.6614178917175
787,616.9190185537102
788,617.193702719251
789,617.4823597858039
790,617.7805647499599
791,618.0830562308553
792,618.3842584796408
793,618.6788110156807
794,618.962082192302
795,619.230630957209
796,619.4825576970153
797,619.7176728807003
798,619.9374308663579
799,620.144629621995
800,620.3429421971549
801,620.5363841177056
802,620.7288158328158
803,620.9235508704542
804,621.1231108828664
805,621.3291355573893
806,621.5424146269272
807,621.7629822738159
808,621.990224473698
809,622.2229876582375
810,622.459706464945
811,622.6985650727661
812,622.9376787767719
813,623.1752535053723
814,623.4096684968083
815,623.6394403148327
816,623.8630633315355
817,624.0787675608781
818,624.2842707872737
819,624.476616876348
820,624.6521795370552
821,624.8068703886314
822,624.936533427318
823,625.0374538236608
824,625.1068766957864
825,625.1434346459062
826,625.1474176805982
827,625.1208619182753
828,625.0674590819348
829,624.9922936875093
830,624.901419745817
831,624.801311905089
832,624.698257248592
833,624.5977704211488
834,624.5041105866393
835,624.4199597325462
836,624.3462882679773
837,624.2823927592337
838,624.2260660730182
839,624.1738678540981
840,624.1214889223297
841,624.0642193876596
842,623.9975196229793
843,623.9176514132614
844,623.8222657095523
845,623.7108003115915
846,623.5845598501529
847,623.4464415077798
848,623.3003921752686
849,623.1507745726881
850,623.0018358923068
851,622.8574033466429
852,622.7208127799015
853,622.5949767866499
854,622.4824691284584
855,622.385539855321
856,622.3060386646112
857,622.2452782179902
858,622.20390269433
859,622.181829152305
860,622.1782891559482
861,622.191935554574
862,622.2209468050628
863,622.2630889814316
864,622.3157530300717
865,622.376018197129
866,622.4407842904496
867,622.5069851027721
868,622.5718624099968
869,622.6332524361973
870,622.6898237864191
871,622.7412152803049
872,622.7880454251075
873,622.8317854405669
874,622.8745017810546
875,622.9184917970542
876,622.9658585081285
877,623.0180874303597
878,623.0756973398223
879,623.1380426926647
880,623.203341570627
881,623.2689699567248
882,623.3319914840736
883,623.3898022163559
884,623.4407095237214
885,623.4842753270256
886,623.5213361365296
887,623.5537161428164
888,623.583722834424
889,623.6135466714707
890,623.6446963931099
891,623.6775966868412
892,623.7114449451875
893,623.7443686126138
894,623.7738582616657
895,623.797383921374
896,623.8130448909457
897,623.8200841491513
898,623.8191404012947
899,623.8122003295606
900,623.8023065696265
901,623.7931292206397
902,623.7885011588239
903,623.791969149229
904,623.8063705161186
905,623.833442141936
906,623.8734974011421
907,623.9252379456957
908,623.9857739880745
909,624.0508920025817
910,624.115541378376
911,624.1744520530551
912,624.2227802076229
913,624.2567025553269
914,624.273907056247
915,624.2739384590232
916,624.258353478826
917,624.2306337175961
