acceleration,velocity,displacement
0.029802406104221732,0.0,0.0
0.029341447902107486,1.4785963501582306e-05,3.6964908753955766e-09
0.028821103278673234,2.9326601296777486e-05,1.4724632074985524e-08
0.028239250754206035,4.3591689804997306e-05,3.295420485042922e-08
0.02759489810360946,5.755022701945118e-05,5.8239684056541344e-08
0.026888267355533194,7.117101838423684e-05,9.041999540746335e-08
0.026120834471978202,8.442329384111469e-05,1.2931857346380124e-07
0.025295319989846732,9.727733245657092e-05,1.7474373003822265e-07
0.024415629542579274,0.00010970506983967742,2.2648933061228472e-07
0.02348674819572975,0.00012168066427425468,2.843357641407678e-07
0.022514598480922424,0.00013318100094341772,3.4805118044518584e-07
0.021505875963849976,0.00014418611955461082,4.1739296056969297e-07
0.02046787623193422,0.00015467955760355688,4.921093798592349e-07
0.019408323715137656,0.00016464860759032485,5.719414211577053e-07
0.018335207785545697,0.0001740844904654957,6.566246956716605e-07
0.017256627681075578,0.000182982449332151,7.458914306210722e-07
0.016180646835738024,0.0001913417679613544,8.394724849444485e-07
0.015115158927368484,0.00019916571940213103,9.370993567853199e-07
0.014067769977788226,0.0002064614516284202,1.0385061495429577e-06
0.013045700533087165,0.00021323981925613905,1.1434314672640975e-06
0.012055708480279566,0.00021951517150948073,1.2516202149555024e-06
0.011104028080735021,0.00022530510564973438,1.3628252842453062e-06
0.010196317410643441,0.000230630192022579,1.4768091086633846e-06
0.009337606461091321,0.00023551367299051268,1.5933450749166574e-06
0.008532240446364109,0.00023998113471737653,1.7122187768436298e-06
0.007783814762603775,0.0002440601485196185,1.8332290976528787e-06
0.007095098801069376,0.0002477798769105368,1.9561891040104175e-06
0.006467946948434719,0.00025117063834791283,2.08092673282503e-06
0.005903197747593873,0.00025426342452191997,2.207285248542488e-06
0.005400565977310678,0.0002570893654531461,2.3351234460362547e-06
0.004958536416965132,0.00025967914105171503,2.46431557266247e-06
0.004574271199534242,0.00026206234295583986,2.5947509436643586e-06
0.004243543458653884,0.0002642667966203869,2.7263332285584153e-06
0.003960707557179892,0.0002663178593743453,2.8589793925570985e-06
0.0037187113758004884,0.0002682377141075904,2.9926182859275825e-06
0.0035091510222957645,0.0002700446797071145,3.1271888843812586e-06
0.0033223646864970883,0.0002717525586343127,3.2626381939666156e-06
0.0031475608171886572,0.0002733700400102341,3.3989188436277522e-06
0.0029729760422972248,0.0002749001742251056,3.535986397186587e-06
0.002786059688532337,0.00027633993315781297,3.673796424032317e-06
0.0025736835582348037,0.0002776798689695048,3.8123013745641464e-06
0.0023223766338295202,0.00027890388401752086,3.951447312810902e-06
0.0020185834732508786,0.00027998912404429097,4.0911705648263554e-06
0.0016489421394196208,0.0002809060054474586,4.231394347199293e-06
0.001200574183981113,0.0002816183845283088,4.372025444693235e-06
0.0006613777010238067,0.00028208387249956004,4.512951008950202e-06
2.0315605450445212e-05,0.0002822542958261786,4.654035551031637e-06
-0.0007323060982470267,0.0002820762982029795,4.795118199538927e-06
-0.0016045733649544894,0.0002814920783371791,4.936010293673967e-06
-0.002602716132399788,0.0002804402559628405,5.076493377248972e-06
-0.003730883127226321,0.000278856856147934,5.216317655276666e-06
-0.004990946949139832,0.00027667639862884245,5.35520096897086e-06
-0.006382346835716572,0.00027383307518262837,5.492828337423727e-06
-0.007901975783728856,0.000270261994527767,5.628852104851326e-06
-0.009544118629833113,0.0002659004709243765,5.762892721214362e-06
-0.01130044749559914,0.00026068932939301843,5.8945401712937106e-06
-0.013160079222782454,0.00025457419771342303,6.023356053070321e-06
-0.015109696224814605,0.0002475067538515238,6.148876290961558e-06
-0.017133729334276954,0.00023944589746175088,6.270614453789876e-06
-0.01921460015727715,0.00023035881508886235,6.388065631927529e-06
-0.021333020541769804,0.0002202219099141006,6.50071081317827e-06
-0.02346834612050016,0.0002090215682485331,6.608021682718929e-06
-0.02559897864054733,0.00019675473705827123,6.70946575904563e-06
-0.02770280879106128,0.0001834292902003691,6.804511765860291e-06
-0.02975768845038082,0.00016906416589000856,6.892635129882885e-06
-0.03174191865949875,0.00015368926411253868,6.973323487383522e-06
-0.033634736974270205,0.00013734510020409644,7.0460820784626805e-06
-0.03541678585162801,0.00012008221949762188,7.11043890838811e-06
-0.03707054366634014,0.00010196038711812985,7.165949560042048e-06
-0.03858070241980518,8.304757559659352e-05,7.2122015507207285e-06
-0.03993448046864246,6.341877987448161e-05,7.248818139588497e-06
-0.04112186336632038,4.31546939157409e-05,7.275461508036053e-06
-0.042135770136622286,2.2340285540005238e-05,7.291835252899989e-06
-0.042972145187712724,1.0633067089214844e-06,7.2976861509622205e-06
-0.04362997736868909,-2.058722393017897e-05,7.292805171656906e-06
-0.04411124815935339,-4.2522530312189585e-05,7.277027733096314e-06
-0.044420811518651064,-6.46555452316907e-05,7.250233214210344e-06
-0.04456620832165011,-8.690230019176599e-05,7.21234375285448e-06
-0.04455741819633474,-0.00010918320682126221,7.1633223761012225e-06
-0.04440655128442913,-0.00013142419919145317,7.103170524598044e-06
-0.044127482880157304,-0.0001535577077325998,7.03192504786703e-06
-0.043735435980715755,-0.00017552343744781806,6.949654761571925e-06
-0.043246520948004304,-0.00019726892667999807,6.856456670539972e-06
-0.042677247002586814,-0.00021874986866764586,6.752451971703061e-06
-0.042044025325534536,-0.0002399301867496762,6.63778195784873e-06
-0.041362686462261954,-0.0002607818646966253,6.512603944987155e-06
-0.040648035189548806,-0.000281284545109578,6.377087342535604e-06
-0.039913464702289014,-0.00030142492008253745,6.231409976237575e-06
-0.03917064924816869,-0.0003211959485701519,6.075754759074403e-06
-0.038429329630567714,-0.00034059594328983596,5.910306786109406e-06
-0.03769719863131513,-0.0003596275753553067,5.735250906448121e-06
-0.03697988416156324,-0.0003782968460535263,5.550769801095912e-06
-0.03628101950154527,-0.0003966120719693034,5.357042571590205e-06
-0.03560238476174589,-0.00041458292303512623,5.154243822839098e-06
-0.03494410176741519,-0.0004322195446674165,4.942543205913462e-06
-0.03430486432916036,-0.0004495317861915604,4.722105373198718e-06
-0.03368218600589363,-0.0004665285487753239,4.493090289456997e-06
-0.03307264807476877,-0.0004832172572954895,4.255653837939293e-06
-0.03247213270945615,-0.0004996034524915458,4.009948660492535e-06
-0.031876031177413305,-0.0005156904934632632,3.7561251740038324e-06
-0.031279423349446354,-0.0005314793570949781,3.494332711364272e-06
-0.03067723107900949,-0.0005469685207020921,3.2247207419150044e-06
-0.03006435249362209,-0.00056215391659525,2.947440132590669e-06
-0.029435785856237837,-0.000577028951182715,2.6626444156461777e-06
-0.028786749984991887,-0.0005915845851430224,2.3704910315647433e-06
-0.028112804640198778,-0.0006058094737993201,2.0711425168291576e-06
-0.02740997151110356,-0.0006196901678371457,1.7647676064200411e-06
-0.02667485585405999,-0.0006332113746784366,1.4515422207911455e-06
-0.0259047691428105,-0.0006463562809276541,1.1316503068896229e-06
-0.025097852049711593,-0.0006591069362257846,8.052845026012632e-07
-0.024253193816206078,-0.0006714446976922641,4.72646594121751e-07
-0.023370939683184315,-0.0006833507310671117,1.3394773693190702e-07
-0.02245237472991851,-0.0006948065596703874,-2.1059158575246777e-07
-0.02149997179872546,-0.0007057946463025483,-5.607418872457017e-07
-0.020517392966304986,-0.0007162989874938059,-9.162652956947902e-07
-0.019509437031837606,-0.0007263056949933415,-1.276916466316577e-06
-0.018481928994630033,-0.0007358035364999584,-1.6424437741899022e-06
-0.017441551959981632,-0.0007447844067386114,-2.0125907599995447e-06
-0.016395628161810893,-0.0007532437017690595,-2.3870977871264625e-06
-0.015351862933244082,-0.0007611805745428233,-2.765703856204433e-06
-0.014318070566970563,-0.000768598057917877,-3.1481485143196084e-06
-0.013301901932025432,-0.0007755030510426259,-3.534173791559734e-06
-0.012310591016328424,-0.0007819061742797144,-3.923526097890319e-06
-0.011350733160579664,-0.0007878215053239414,-4.3159580177912324e-06
-0.010428103207342903,-0.000793266214415922,-4.711229947726198e-06
-0.009547517995912044,-0.0007982601197167357,-5.109111531259363e-06
-0.008712744473854114,-0.0008028251853341772,-5.509382857522091e-06
-0.007926451212646969,-0.0008069849842558025,-5.911835399919586e-06
-0.007190197105844434,-0.0008107641463354253,-6.3162726825673924e-06
-0.006504447888735649,-0.0008141878075840703,-6.722510671047266e-06
-0.005868610394403875,-0.0008172810721548552,-7.130377890981997e-06
-0.0052810765461769335,-0.0008200684938900004,-7.539715282493211e-06
-0.004739273461554514,-0.0008225735813919332,-7.950375801313694e-06
-0.004239721245886139,-0.0008248183300687934,-8.362223779178877e-06
-0.0037781036237434736,-0.0008268227862862008,-8.775134058267625e-06
-0.003349356937564006,-0.0008286046514265277,-9.188990917695808e-06
-0.0029477814696779307,-0.0008301789360283382,-9.603686814559524e-06
-0.0025671779526628725,-0.0008315576758839234,-1.001912096753759e-05
-0.0022010121453773608,-0.0008327497234084334,-1.043519781736068e-05
-0.0018426100930579682,-0.0008337606289680423,-1.0851825405454799e-05
-0.0014853846771546813,-0.0008345926276605955,-1.1268913719611959e-05
-0.0011230897269103716,-0.0008352447462616117,-1.1686373063092511e-05
-0.0007500919490860604,-0.0008357130416806109,-1.2104112510078067e-05
-0.0003616452080514975,-0.0008359909759698953,-1.2522038514490692e-05
4.5851393029478787e-05,-0.0008360699244236507,-1.294005373958908e-05
0.00047462948350519455,-0.0008359398042045171,-1.3358056171746121e-05
0.0009253753695075283,-0.0008355898029912638,-1.3775938573545067e-05
0.001397110187527266,-0.0008350091816020052,-1.4193588319693385e-05
0.0018871290054713276,-0.0008341881218037556,-1.4610887645544824e-05
0.0023909982889089463,-0.0008331185899801605,-1.5027714323490804e-05
0.002902610814640839,-0.0008317951877042731,-1.5443942767911913e-05
0.0034142987178350757,-0.0008302159603211541,-1.585944555491827e-05
0.003917007179817739,-0.0008283831338467409,-1.6274095328460244e-05
0.004400531791623678,-0.0008263037491038805,-1.66877670491979e-05
0.004853820336480654,-0.0008239901610718545,-1.7100340526741833e-05
0.00526533420205696,-0.00082146037243722,-1.7511703160119102e-05
0.0056234580115579426,-0.0008187381743838164,-1.792175279682436e-05
0.00591694116957167,-0.000815853074588534,-1.833040060906745e-05
0.006135352256001933,-0.0008128400012321406,-1.8737573878022618e-05
0.006269525166859324,-0.0008097387818764253,-1.914321857379976e-05
0.006311974318551278,-0.0008065934070050726,-1.9547301621020133e-05
0.006257256539503426,-0.000803451099290559,-1.994981274759404e-05
0.006102260425654871,-0.0008003612200492695,-2.0350765827428996e-05
0.005846408941542544,-0.0007973740527074701,-2.075019964561818e-05
0.005491766309278038,-0.000794539508894765,-2.114817803601874e-05
0.005043045498992695,-0.0007919058059426973,-2.1544789364728105e-05
0.004507518432197904,-0.0007895181649598997,-2.1940145357453755e-05
0.003894836526726165,-0.0007874175762201687,-2.2334379292748773e-05
0.0032167725129593114,-0.0007856396739602473,-2.2727643605293878e-05
0.0024868949974554615,-0.0007842137570826436,-2.31201069630546e-05
0.0017201868038299456,-0.0007831619866323223,-2.3511950898983342e-05
0.0009326187022022791,-0.0007824987852558142,-2.3903366091955377e-05
0.00014069224328564606,-0.0007822304575194422,-2.429454840264919e-05
-0.0006390314420497474,-0.0007823550423191332,-2.4685694777608836e-05
-0.0013903965728090507,-0.000782862399322848,-2.507699913801933e-05
-0.002098089134990473,-0.0007837345207497978,-2.5468648368037493e-05
-0.0027480247743556334,-0.0007849460492271343,-2.5860818510531725e-05
-0.0033276752411627564,-0.000786464974231014,-2.6253671266396263e-05
-0.0038263294149669014,-0.0007882534753950464,-2.6647350878802776e-05
-0.004235291479303541,-0.0007902688806186141,-2.704198146780619e-05
-0.004548021046028463,-0.0007924647087499471,-2.743766486514833e-05
-0.004760219293794241,-0.0007947917688349027,-2.7834478984544544e-05
-0.004869863999621885,-0.0007971992896582568,-2.8232476749167833e-05
-0.004877196136170087,-0.0007996360546922047,-2.8631685585255448e-05
-0.004784661323769242,-0.0008020515190571895,-2.9032107478692795e-05
-0.004596809861129546,-0.0008043968868534142,-2.9433719580170444e-05
-0.004320158482934753,-0.0008066261289394303,-2.9836475334118654e-05
-0.003963015443504132,-0.00080869692242104,-3.0240306096958773e-05
-0.003535268714742078,-0.0008105714934606015,-3.0645123200929183e-05
-0.0030481360054234494,-0.0008122173446406429,-3.105082041045449e-05
-0.0025138761460762812,-0.0008136078476785178,-3.145727670853428e-05
-0.0019454647446245188,-0.000814722682901193,-3.186435934117921e-05
-0.0013562419706285047,-0.0008155481095800062,-3.227192703929951e-05
-0.0007595449839652623,-0.0008160770563186547,-3.2679833330774174e-05
-0.00016834023218510936,-0.0008163090276226923,-3.308792985175951e-05
0.00040512948875412214,-0.00081624983030855,-3.349606956624232e-05
0.0009496716096184173,-0.0008159111300339569,-3.390410980632794e-05
0.0014554366552824724,-0.0008153098529677317,-3.4311915052078364e-05
0.0019141726272571846,-0.0008144674506470967,-3.471935937798207e-05
0.002319435893972181,-0.0008134090485167894,-3.512632850277304e-05
0.0026667512173626307,-0.0008121625017389557,-3.553272139033698e-05
0.0029537108355656926,-0.0008107573862257236,-3.593845136232815e-05
0.0031800020761304565,-0.0008092239579977996,-3.634344669838403e-05
0.0033473564452136716,-0.0008075921183674635,-3.674765071747535e-05
0.0034594195362073897,-0.0008058904243721083,-3.7151021353160245e-05
0.0035215482346838325,-0.0008041451824293854,-3.755353025486062e-05
0.0035405478457481154,-0.0008023796584092775,-3.795516146507029e-05
0.0035243651075086116,-0.0008006134301709633,-3.835590973721535e-05
0.0034817522585563264,-0.0007988619008294472,-3.8755778569965454e-05
0.0034219138429464687,-0.0007971359843040714,-3.915477804124883e-05
0.0033541453166278665,-0.0007954419695141778,-3.9552922529703396e-05
0.0032874728011663594,-0.0007937815649847293,-3.995022841332812e-05
0.003230305401926681,-0.0007921521204339561,-4.0346711834682795e-05
0.0031901131036593117,-0.0007905470158075595,-4.0742386618743175e-05
0.003173143431684674,-0.0007889562016737236,-4.1137262423113495e-05
0.0031841895046841777,-0.0007873668684396314,-4.153134319064183e-05
0.0032264214849718775,-0.0007857642156922173,-4.1924625961674794e-05
0.003301291880676729,-0.0007841322873508051,-4.231710008743555e-05
0.003408520938501235,-0.0007824548341460106,-4.270874686780975e-05
0.003546161318328458,-0.0007807161635818033,-4.30995396172417e-05
0.00371073374549392,-0.0007789019398158477,-4.348944414309111e-05
0.0038974205173089617,-0.000776999901250147,-4.387841960335761e-05
0.004100302876528207,-0.0007750004704016877,-4.426641969627057e-05
0.004312629913128365,-0.0007728972372042736,-4.465339412317206e-05
0.0045271081901317265,-0.0007706873026784586,-4.5039290258142744e-05
0.004736201398100249,-0.0007683714752814006,-4.5424054952632706e-05
0.0049324289936759635,-0.0007659543176834566,-4.580763640087392e-05
0.005108653567758779,-0.0007634440470430979,-4.6189985992055554e-05
0.005258348566549424,-0.0007608522965095208,-4.657106007794371e-05
0.005375839395731484,-0.0007581937495189506,-4.6950821589450826e-05
0.005456511107295344,-0.0007554856618931939,-4.732924144230386e-05
0.005496975817581809,-0.0007527472901619745,-4.770629968031765e-05
0.005495194161090111,-0.0007499992476673066,-4.808198631477497e-05
0.005450547991113697,-0.0007472628121292556,-4.8456301829724115e-05
0.005363865720527152,-0.0007445592087013454,-4.882925733493177e-05
0.0052374057033299105,-0.0007419088908453811,-4.920087435981845e-05
0.005074805050250493,-0.0007393308381569859,-4.957118429206904e-05
0.004881000620924328,-0.0007368418867391922,-4.994022747329309e-05
0.0046621269400871235,-0.0007344561048489393,-5.030805197119012e-05
0.004425394241412894,-0.0007321842245535643,-5.0674712053540747e-05
0.004178949268689705,-0.0007300331386760387,-5.104026639434815e-05
0.003931721068353827,-0.0007280054710917778,-5.14047760467901e-05
0.0036932531406659473,-0.0007260992275395228,-5.1768302221447924e-05
0.003473522538057751,-0.0007243075336198419,-5.213090391173777e-05
0.003282746944661842,-0.000722618466249162,-5.249263541170502e-05
0.00313118255949499,-0.0007210149838731228,-5.285354377423559e-05
0.003028917306624719,-0.0007194749589065929,-5.321366625993052e-05
0.0029856638613795883,-0.0007179713136145918,-5.3573027828060816e-05
0.003010555032057862,-0.0007164722588912325,-5.393163872118727e-05
0.0031119416713384475,-0.0007149416347153834,-5.428949219458893e-05
0.00329719234759876,-0.0007133393512106491,-5.4646562441070434e-05
0.0035724950446707313,-0.0007116219293625817,-5.5002802761213744e-05
0.003942663062758404,-0.0007097431398357245,-5.535814402851332e-05
0.004410948761315701,-0.000707654736879706,-5.571249349769218e-05
0.004978870071322562,-0.0007053072821715464,-5.6065734002454993e-05
0.005646056890018243,-0.0007026510504312112,-5.6417723585605684e-05
0.00641012733897784,-0.0006996370043739622,-5.676829559930698e-05
0.00726660601601573,-0.0006962178210352137,-5.711725930565927e-05
0.008208896908780287,-0.0006923489453040147,-5.7464400997244074e-05
0.009228322367893001,-0.0006879896404848464,-5.780948564369129e-05
0.010314236143907656,-0.0006831040008568963,-5.8152259054026726e-05
0.011454212617177776,-0.000677661888666625,-5.8492450526407605e-05
0.012634306642509618,-0.0006716397588517031,-5.882977593828719e-05
0.01383937119284247,-0.0006650213393928651,-5.916394121284833e-05
0.015053415842529786,-0.000657798142634022,-5.949464608335505e-05
0.01625998880099723,-0.0006499697914731403,-5.982158806688184e-05
0.017442567273591524,-0.0006415441524544931,-6.014446655286375e-05
0.018584943482417002,-0.000632537274765491,-6.0462986909668745e-05
0.01967159568914204,-0.0006229731399726013,-6.077686451335327e-05
0.020688035052359215,-0.000612883232287226,-6.108582860641822e-05
0.021621120400424656,-0.00060230594342403,-6.138962590034604e-05
0.022459333874501993,-0.0005912858298552984,-6.168802384366588e-05
0.023193011058818363,-0.0005798727436219683,-6.19808134870352e-05
0.02381452066930478,-0.0005681208606899375,-6.226781188811317e-05
0.024318391658234257,-0.0005560876326080527,-6.254886401143767e-05
0.02470138873830092,-0.0005438326875089189,-6.282384409146691e-05
0.024962539592718012,-0.0005314167054261641,-6.309265643970068e-05
0.02510311824321347,-0.0005189002909671813,-6.335523568879901e-05
0.025126589342957226,-0.0005063428640706386,-6.361154647755846e-05
0.025038517126341055,-0.0004938015874533141,-6.386158259043945e-05
0.024846440448969356,-0.0004813303480594865,-6.410536557431765e-05
0.024559713309675865,-0.00046897880961982517,-6.434294286373749e-05
0.024189310123354263,-0.00045679155376156765,-6.457438545458284e-05
0.023747596917927962,-0.00044480732700124707,-6.479978517477355e-05
0.02324807219355301,-0.0004330584097233768,-6.501925160895471e-05
0.022705082852704547,-0.0004215701209618124,-6.5232908741626e-05
0.022133520940959148,-0.0004103604700133965,-6.544089138936981e-05
0.02154850668877614,-0.0003994399631059627,-6.564334149764965e-05
0.02096506323291434,-0.00038881157062554007,-6.584040438108253e-05
0.02039778858278453,-0.00037847085767161537,-6.603222498815682e-05
0.01986053113466045,-0.0003684062777422541,-6.621894427201028e-05
0.019366076275669657,-0.00035859962588967155,-6.640069574791826e-05
0.018925852159203903,-0.00034902664378095314,-6.657760231533592e-05
0.018549661716590792,-0.00033965776531200446,-6.674977341760917e-05
0.018245446873613833,-0.0003304589881644533,-6.691730260597828e-05
0.018019091825561818,-0.0003213928534896594,-6.708026556639181e-05
0.017874274270351653,-0.00031241951196568104,-6.723871865775564e-05
