frame_number,force
0,537.8547427871856
1,537.8295462898373
2,537.8011036634463
3,537.769298945529
4,537.7340778999381
5,537.695452663011
6,537.6535039125021
7,537.6083803560393
8,537.5602954799697
9,537.5095217736217
10,537.4563829692811
11,537.4012450541511
12,537.3445068133022
13,537.286590472824
14,537.2279327408421
15,537.1689763308734
16,537.1101619993525
17,537.0519212236492
18,536.9946697575298
19,536.9388022842206
20,536.884688197479
21,536.8326682690915
22,536.7830517759103
23,536.7361136629444
24,536.6920914445275
25,536.6511816490844
26,536.6135356546775
27,536.5792548241826
28,536.5483849933038
29,536.5209105715253
30,536.4967487351721
31,536.475744363219
32,536.4576664103636
33,536.4422062796862
34,536.4289784943588
35,536.4175236881157
36,536.4073137354712
37,536.3977587580149
38,536.3882157565075
39,536.3779986969338
40,536.3663899771424
41,536.3526532560571
42,536.3360475778636
43,536.3158425639491
44,536.2913342637421
45,536.2618611733604
46,536.2268199932336
47,536.1856808385888
48,536.1380017219751
49,536.083442107941
50,536.0217752223898
51,535.952898706901
52,535.8768432133837
53,535.793778574153
54,535.7040171865093
55,535.6080142617188
56,535.506364685536
57,535.3997964123245
58,535.2891604704068
59,535.1754177147003
60,535.0596224574389
61,534.9429031431158
62,534.8264403566951
63,534.711442618146
64,534.5991205688804
65,534.4906602985711
66,534.387196705928
67,534.2897878961768
68,534.1993916211954
69,534.1168446335233
70,534.0428455922624
71,533.9779418984012
72,533.9225206061187
73,533.8768033986574
74,533.8408455466708
75,533.814538740229
76,533.7976176564389
77,533.7896701025296
78,533.7901505807339
79,533.7983971369907
80,533.8136513320045
81,533.8350810595089
82,533.8618057088779
83,533.8929228674194
84,533.9275354813909
85,533.9647782352524
86,534.0038418831392
87,534.043994337851
88,534.0845974717886
89,534.125118841608
90,534.1651379511427
91,534.2043471723956
92,534.2425479061546
93,534.2796428495648
94,534.3156253435199
95,534.3505667858113
96,534.3846030881249
97,534.4179211217229
98,534.4507459716558
99,534.4833295564637
100,534.5159408159801
101,534.5488573274462
102,534.5823579649893
103,534.6167161292209
104,534.6521931649561
105,534.6890317807246
106,534.7274494354975
107,534.7676316898071
108,534.8097255015432
109,534.8538325036604
110,534.900002479253
111,534.9482274892893
112,534.9984372898809
113,535.0504967126666
114,535.1042055843866
115,535.1593015972433
116,535.2154663501778
117,535.2723345370863
118,535.3295059163704
119,535.3865593057955
120,535.4430675672736
121,535.498612495639
122,535.5527986729197
123,535.605265590324
124,535.6556975884176
125,535.7038313733098
126,535.7494610393804
127,535.7924407194906
128,535.8326852027533
129,535.8701690315501
130,535.9049246290564
131,535.9370398945642
132,535.9666554647448
133,535.9939615545806
134,536.0191940965744
135,536.0426298759833
136,536.0645804458296
137,536.0853846650913
138,536.1053997027889
139,536.1249903648478
140,536.1445167106277
141,536.1643201628958
142,536.18470864384
143,536.2059415826088
144,536.2282158083011
145,536.2516533043043
146,536.2762915848889
147,536.3020771442668
148,536.3288621277867
149,536.3564041934357
150,536.3843695134774
151,536.4123389537366
152,536.4398175675702
153,536.4662475704281
154,536.4910248356251
155,536.5135186495442
156,536.5330941025355
157,536.5491362243131
158,536.5610748216411
159,536.5684088648952
160,536.570729183599
161,536.5677382478301
162,536.5592659847189
163,536.5452808528535
164,536.5258956849522
165,536.5013680972996
166,536.4720955813609
167,536.4386056945647
168,536.4015419476858
169,536.3616460161248
170,536.3197368779881
171,536.2766875136568
172,536.2333999165804
173,536.1907793369272
174,536.1497088679823
175,536.1110255910937
176,536.0754993730142
177,536.0438150220624
178,536.016558020212
179,535.9942036906385
180,535.9771095383649
181,535.9655105418341
182,535.9595172380443
183,535.9591164551572
184,535.9641745127958
185,535.9744426864796
186,535.9895647641108
187,536.0090866070994
188,536.0324677277034
189,536.0590949532574
190,536.0882982022019
191,536.1193682131135
192,536.1515757972165
193,536.1841919302483
194,536.2165078515015
195,536.2478543558847
196,536.2776196448881
197,536.3052653350472
198,536.3303403627796
199,536.3524925118862
200,536.3714771607865
201,536.3871626984903
202,536.3995320339674
203,536.4086798133051
204,536.4148053087667
205,536.4182013337843
206,536.4192398740415
207,536.4183553072429
208,536.4160260406614
209,536.4127552050991
210,536.4090509007048
211,536.4054065055051
212,536.4022816707223
213,536.4000847141825
214,536.3991571326948
215,536.3997609235543
216,536.4020693714232
217,536.4061618720408
218,536.412023133775
219,536.4195467128098
220,536.4285424280519
221,536.4387469384162
222,536.4498367179291
223,536.4614427542034
224,536.4731663797144
225,536.4845956512535
226,536.4953216738493
227,536.5049543086375
228,536.5131368067963
229,536.5195589885741
230,536.5239685956864
231,536.5261804425757
232,536.5260830552141
233,536.5236426450028
234,536.5189044939276
235,536.5119920461756
236,536.5031041103381
237,536.4925105407536
238,536.4805466574915
239,536.4676065800895
240,536.4541356187892
241,536.4406218453806
242,536.4275869183957
243,536.4155761948191
244,536.4051481848367
245,536.3968635039015
246,536.3912735693674
247,536.3889092870671
248,536.3902698666449
249,536.3958117751652
250,536.4059377869202
251,536.4209861441138
252,536.4412199471863
253,536.4668169737884
254,536.4978601957465
255,536.5343293828247
256,536.5760943388508
257,536.6229104332731
258,536.6744171205867
259,536.7301400706493
260,536.7894973474098
261,536.8518097524266
262,536.9163150282709
263,536.9821852212901
264,537.0485462767098
265,537.1144989210259
266,537.1791399995711
267,537.241583576851
268,537.3009812170703
269,537.3565409437497
270,537.407544445565
271,537.4533621433087
272,537.49346576907
273,537.5274381882194
274,537.5549803470925
275,537.5759154012212
276,537.5901902026689
277,537.5978743909059
278,537.5991573477982
279,537.5943432206989
280,537.5838440919929
281,537.5681712618496
282,537.5479246042152
283,537.5237800601801
284,537.4964754730496
285,537.4667950607603
286,537.4355528393883
287,537.4035752978535
288,537.3716836178246
289,537.3406757430276
290,537.3113086424859
291,537.2842811799387
292,537.2602180311926
293,537.2396550355754
294,537.2230263077445
295,537.2106534844779
296,537.2027375929088
297,537.199354028525
298,537.2004509414014
299,537.2058510597486
300,537.2152568012406
301,537.2282584714733
302,537.2443453174966
303,537.2629191071496
304,537.2833097802686
305,537.3047926549651
306,537.3266067082762
307,537.3479735408051
308,537.3681166909847
309,537.3862809394903
310,537.4017511726571
311,537.413870311623
312,537.4220557867961
313,537.4258140523718
314,537.4247526878788
315,537.4185897013588
316,537.4071597198464
317,537.3904168407648
318,537.3684340483742
319,537.3413992998171
320,537.3096086441493
321,537.2734569571874
322,537.2334269334053
323,537.1900768471256
324,537.1440273570471
325,537.0959473986849
326,537.0465391102414
327,536.9965218342201
328,536.946615460596
329,536.8975235696404
330,536.8499168949711
331,536.8044175848119
332,536.7615846770123
333,536.7219011813969
334,536.6857631783892
335,536.6534713514006
336,536.6252253394807
337,536.6011212216472
338,536.581152316928
339,536.565213294037
340,536.5531073751008
341,536.5445562739768
342,536.5392124568582
343,536.536673288997
344,536.5364965701224
345,536.5382168496252
346,536.5413617887878
347,536.5454677760774
348,536.5500940683391
349,536.554834915493
350,536.5593293382973
351,536.5632683606591
352,536.5663995073435
353,536.5685283333296
354,536.5695167873191
355,536.5692784196473
356,536.5677707920221
357,536.5649857888844
358,536.5609387285145
359,536.5556572283718
360,536.5491707927204
361,536.5415020632896
362,536.5326604844785
363,536.5226387509263
364,536.5114119985689
365,536.4989394816379
366,536.4851684747568
367,536.4700401778506
368,536.4534972983137
369,536.4354927329938
370,536.4159985358934
371,536.395014297983
372,536.3725742022783
373,536.3487522351403
374,536.323665191099
375,536.2974731538428
376,536.2703771587147
377,536.2426138738522
378,536.2144474157585
379,536.1861587648475
380,536.1580335599032
381,536.1303492428295
382,536.1033625424428
383,536.0772981385088
384,536.0523391416451
385,536.0286198903859
386,536.006221525888
387,535.9851707559976
388,535.9654420501346
389,535.9469631991591
390,535.9296238171925
391,535.9132860533423
392,535.8977965677194
393,535.8829987400006
394,535.8687441658063
395,535.8549027621278
396,535.8413711575965
397,535.8280793407907
398,535.8149956840772
399,535.8021304555222
400,535.7895378534217
401,535.7773165483034
402,535.7656087531262
403,535.7545979200795
404,535.7445051827685
405,535.7355845811956
406,535.728116979812
407,535.7224025185028
408,535.7187514784412
409,535.7174735679345
410,535.7188657823843
411,535.7231991673382
412,535.7307050236004
413,535.7415612672171
414,535.7558797144769
415,535.7736950410798
416,535.7949561428763
417,535.8195205530599
418,535.8471523320763
419,535.8775234725673
420,535.910218540557
421,535.9447421449257
422,535.9805288565997
423,536.0169552612235
424,536.0533538438413
425,536.0890283832996
426,536.1232705103745
427,536.1553770256277
428,536.184667436707
429,536.2105010296287
430,536.2322927850896
431,536.2495276352882
432,536.2617728059757
433,536.2686881511447
434,536.270034426857
435,536.2656794385468
436,536.2556020125137
437,536.2398937861045
438,536.2187588047454
439,536.1925108165702
440,536.1615680627327
441,536.1264454253579
442,536.0877440383433
443,536.0461387514362
444,536.0023640138199
445,535.9571987693565
446,535.9114509042836
447,535.8659417489316
448,535.8214911089813
449,535.7789032125894
450,535.7389537657549
451,535.7023780718554
452,535.669860016519
453,535.6420217202652
454,535.6194137842176
455,535.6025062320716
456,535.5916804540634
457,535.5872226284365
458,535.5893191249131
459,535.598054246225
460,535.6134104305585
461,535.6352708289693
462,535.6634240257144
463,535.6975705968011
464,535.737331207183
465,535.7822559815975
466,535.8318348788226
467,535.8855087531018
468,535.942680748551
469,536.002727650209
470,536.0650107778932
471,536.1288859634396
472,536.1937121487616
473,536.2588582195958
474,536.3237078611495
475,536.3876624728674
476,536.4501424432495
477,536.510587281539
478,536.5684552145958
479,536.6232229219104
480,536.6743861109336
481,536.7214615762734
482,536.7639911801068
483,536.8015478646103
484,536.8337434719516
485,536.8602378850494
486,536.8807488059058
487,536.8950613343349
488,536.9030364346864
489,536.9046174533315
490,536.8998341036827
491,536.8888037269774
492,536.8717300767545
493,536.8489002296404
494,536.8206803636426
495,536.7875110512801
496,536.7499024971613
497,536.7084299208742
498,536.6637290886978
499,536.6164918143718
500,536.5674610414785
501,536.5174248927942
502,536.4672089093785
503,536.4176657181742
504,536.3696616189052
505,536.3240600202259
506,536.2817021571745
507,536.2433859575185
508,536.2098441905895
509,536.1817230810187
510,536.159562453333
511,536.1437783054381
512,536.134648562433
513,536.1323026387524
514,536.1367153118543
515,536.147705249554
516,536.1649382941971
517,536.1879353069385
518,536.2160841203486
519,536.2486550261284
520,536.2848192096794
521,536.3236695462492
522,536.3642431385273
523,536.4055448997965
524,536.4465714196674
525,536.4863343749241
526,536.5238829028665
527,536.5583245776364
528,536.5888448265359
529,536.6147247414912
530,536.6353572621996
531,536.6502616122359
532,536.6590956529546
533,536.6616655440711
534,536.6579319105084
535,536.6480117710677
536,536.6321758099558
537,536.6108409829694
538,536.5845587080961
539,536.5539989640263
540,536.5199306972634
541,536.4831991514902
542,536.4447009962134
543,536.4053582798892
544,536.3660921993838
545,536.3277975315133
546,536.2913184570634
547,536.2574265142543
548,536.2268014787448
549,536.2000159285402
550,536.1775240591144
551,536.1596550359268
552,536.1466108801352
553,536.1384686188234
554,536.1351862633643
555,536.1366121646648
556,536.1424973638277
557,536.1525105587093
558,536.1662551595333
559,536.1832876597454
560,536.2031363246683
561,536.225319122184
562,536.2493599301705
563,536.2748022777441
564,536.3012201026575
565,536.3282252321757
566,536.35547159387
567,536.3826565160921
568,536.4095197226259
569,536.435840642073
570,536.4614345397094
571,536.486147944782
572,536.5098539296719
573,536.5324478355928
574,536.5538439060597
575,536.5739730509111
576,536.5927817699733
577,536.6102321676366
578,536.6263029239644
579,536.6409910024627
580,536.6543137929903
581,536.66631135482
582,536.6770484585279
583,536.6866162190695
584,536.695133225558
585,536.7027461478339
586,536.7096298134688
587,536.7159867214035
588,536.722045903989
589,536.7280609678032
590,536.7343070661742
591,536.7410765593041
592,536.7486732602313
593,536.7574054043831
594,536.7675777022286
595,536.7794829800691
596,536.7933940032132
597,536.8095561058658
598,536.8281811828623
599,536.8494434259222
600,536.8734769505654
601,536.9003752052326
602,536.930191840326
603,536.9629426061022
604,536.9986078604253
605,537.0371353607519
606,537.0784431440923
607,537.122422422718
608,537.1689404887477
609,537.2178435927688
610,537.2689596689244
611,537.3221007005909
612,537.3770645235542
613,537.4336359603824
614,537.4915873396425
615,537.5506786260015
616,537.6106575176675
617,537.6712599043121
618,537.732210984526
619,537.7932271399204
620,537.8540184570717
621,537.9142916853002
622,537.9737534357328
623,538.0321135089038
624,538.0890883276547
625,538.1444045238925
626,538.1978027781074
627,538.2490420378003
628,538.2979042264667
629,538.3441994797657
630,538.3877718266905
631,538.4285051024298
632,538.4663287425913
633,538.5012229679779
634,538.5332227576939
635,538.5624199775463
636,538.5889631293163
637,538.6130544329583
638,538.6349442853125
639,538.6549234270705
640,538.6733133225096
641,538.6904553537232
642,538.7066995079846
643,538.7223932889526
644,538.7378715766688
645,538.753448069107
646,538.7694087439808
647,538.7860075109959
648,538.8034639586308
649,538.8219629105457
650,538.8416554198784
651,538.8626608221849
652,538.8850694915485
653,538.9089459508531
654,538.9343319650195
655,538.9612492402775
656,538.9897014220395
657,539.0196752321907
658,539.0511407426457
659,539.0840508538175
660,539.1183400165678
661,539.15392220168
662,539.1906881853785
663,539.228502355138
664,539.2671993370421
665,539.3065807672608
666,539.3464125324275
667,539.3864228289923
668,539.4263014058142
669,539.4657002891539
670,539.5042361287439
671,539.5414941279112
672,539.577033437235
673,539.610393910268
674,539.6411041433596
675,539.6686906690953
676,539.6926880674669
677,539.7126496715038
678,539.7281585122306
679,539.7388381815247
680,539.7443633944497
681,539.744470168218
682,539.7389656151175
683,539.7277372895913
684,539.7107618147048
685,539.6881121982776
686,539.6599629622242
687,539.6265920991714
688,539.5883790224287
689,539.5457980621651
690,539.4994075750717
691,539.4498352429785
692,539.3977605106625
693,539.3438952738534
694,539.2889638854879
695,539.2336833746263
696,539.1787445246079
697,539.1247941835481
698,539.0724189868588
699,539.0221306657427
700,538.9743532597313
701,538.9294126504612
702,538.8875287377713
703,538.8488103527735
704,538.813252821777
705,538.7807380323596
706,538.7510368672174
707,538.7238139393629
708,538.6986346906074
709,538.674975053136
710,538.6522339201423
711,538.6297485765882
712,538.6068130445328
713,538.5826990498216
714,538.5566790225532
715,538.5280502247042
716,538.4961588603652
717,538.4604229773141
718,538.4203530975707
719,538.3755696818387
720,538.3258166220832
721,538.2709699970674
722,538.2110414610979
723,538.1461759671762
724,538.0766439949343
725,538.0028288939644
726,537.9252102390835
727,537.844344226989
728,537.7608421886883
729,537.6753482802027
730,537.5885173405237
731,537.5009937806676
732,537.4133922288388
733,537.3262805439531
734,537.2401657203164
735,537.1554830816578
736,537.0725889676594
737,536.9917569068837
738,536.9131771200343
739,536.8369591051543
740,536.7631369905515
741,536.6916773115081
742,536.622488889851
743,536.5554345338958
744,536.4903442454565
745,536.4270294672784
746,536.3652976900573
747,536.3049666042857
748,536.2458769990538
749,536.1879037286262
750,536.1309642394783
751,536.0750243768407
752,536.0201014275848
753,535.9662645109236
754,535.913632462025
755,535.8623693135856
756,535.8126774501354
757,535.7647885747709
758,535.7189528195695
759,535.6754265752813
760,535.6344597932784
761,535.5962835633645
762,535.5610986993609
763,535.5290658782031
764,535.5002975978872
765,535.474851935076
766,535.4527279202531
767,535.4338623452907
768,535.4181278924938
769,535.4053325345324
770,535.3952201960268
771,535.3874727387164
772,535.3817134457282
773,535.3775122561369
774,535.3743929102583
775,535.3718418815696
776,535.3693186428779
777,535.3662666335138
778,535.3621243229793
779,535.3563359337027
780,535.3483615752101
781,535.3376866751294
782,535.3238306776655
783,535.3063550652012
784,535.2848708423836
785,535.2590456684778
786,535.2286108191803
787,535.193368108524
788,535.1531968130956
789,535.1080605239106
790,535.0580136980083
791,535.0032074773326
792,534.9438941162961
793,534.8804291863694
794,534.8132706760865
795,534.7429742311986
796,534.6701841256119
797,534.5956200985112
798,534.5200607826478
799,534.44432484802
800,534.3692510587761
801,534.2956782712306
802,534.2244261938224
803,534.1562776165414
804,534.0919627617812
805,534.0321462968832
806,533.9774173335304
807,533.9282824789392
808,533.8851617832322
809,533.8483872842036
810,533.818203772132
811,533.7947713393862
812,533.7781691984857
813,533.7684001601627
814,533.7653951373771
815,533.769017148376
816,533.7790645156012
817,533.7952732134468
818,533.8173185212794
819,533.8448162672144
820,533.877324056632
821,533.9143430103074
822,533.9553206319473
823,533.9996553738429
824,534.0467032345908
825,534.0957863781156
826,534.1462034408521
827,534.1972410019577
828,534.2481856467582
829,534.2983360953118
830,534.3470149341128
831,534.3935795622747
832,534.4374320645034
833,534.4780278733267
834,534.5148832530598
835,534.547581753075
836,534.5757797879354
837,534.599211410958
838,534.6176922016284
839,534.6311220671079
840,534.6394867312938
841,534.6428577515541
842,534.6413910276414
843,534.6353239095521
844,534.6249711000183
845,534.6107195192595
846,534.59302219812
847,534.5723912106749
848,534.5493896835065
849,534.5246229352921
850,534.4987287576247
851,534.4723668365481
852,534.4462074147573
853,534.4209194449068
854,534.3971585791784
855,534.3755553450754
856,534.3567037844117
857,534.3411507143775
858,534.329385678568
859,534.3218316647494
860,534.3188367717014
861,534.3206671165512
862,534.3275012759767
863,534.339426415313
864,534.3564360557451
865,534.3784293078451
866,534.4052114762587
867,534.4364961818728
868,534.4719093627211
869,534.5109955342564
870,534.5532265394771
871,534.5980128469271
872,534.6447173153017
873,534.6926711644641
874,534.7411916421648
875,534.7896006440828
876,534.8372434249212
877,534.8835065332888
878,534.9278341861507
879,534.9697424662608
880,535.0088309600143
881,535.0447917000399
882,535.0774154754223
883,535.1065956743918
884,535.1323298221101
885,535.1547189221775
886,535.1739646738583
887,535.1903646497076
888,535.2043055638424
889,535.2162547833792
890,535.2267501744936
891,535.2363882338238
892,535.2458103269943
893,535.2556868518787
894,535.2666993195095
895,535.2795206810953
896,535.2947946372739
897,535.3131149942508
898,535.335006259346
899,535.3609066109898
900,535.3911542182253
901,535.4259776389779
902,535.4654906849535
903,535.509691771284
904,535.5584674783865
905,535.6115998837549
906,535.6687771153694
907,535.7296064461448
908,535.7936290800387
909,535.8603356778439
910,535.9291817499029
911,535.9996023181425
912,536.0710256157696
913,536.1428858923615
914,536.2146355112994
915,536.2857564542828
916,536.355771165211
