frame_number,force
0,537.7949624981179
1,537.779331087956
2,537.7620668358906
3,537.7431886840241
4,537.7227179155503
5,537.7006778826657
6,537.6770937281036
7,537.6519921023082
8,537.6254008787024
9,537.5973488703145
10,537.5678655519652
11,537.5369807928085
12,537.5047246039551
13,537.4711269052399
14,537.4362173142683
15,537.4000249600824
16,537.362578323457
17,537.3239051059095
18,537.2840321296028
19,537.2429852700158
20,537.2007894224081
21,537.1574685019964
22,537.1130454768864
23,537.0675424324784
24,537.0209806660848
25,536.9733808104484
26,536.9247629846055
27,536.8751469703578
28,536.8245524126786
29,536.7729990426423
30,536.7205069217691
31,536.6670967068641
32,536.6127899342516
33,536.5576093216403
34,536.5015790848205
35,536.4447252653596
36,536.3870760646944
37,536.3286621796458
38,536.2695171343416
39,536.209677603737
40,536.1491837242406
41,536.0880793871984
42,536.0264125109674
43,535.9642352870319
44,535.9016043953111
45,535.8385811838583
46,535.7752318086804
47,535.7116273302204
48,535.6478437637905
49,535.5839620816539
50,535.5200681646038
51,535.4562527011406
52,535.3926110328999
53,535.3292429456588
54,535.2662524058092
55,535.203747242772
56,535.141838778647
57,535.0806414074247
58,535.0202721270362
59,534.9608500281322
60,534.9024957438725
61,534.8453308654623
62,534.7894773288357
63,534.7350567786093
64,534.6821899160585
65,534.6309958383989
66,534.5815913771326
67,534.5340904435137
68,534.4886033891115
69,534.445236388889
70,534.4040908533145
71,534.3652628749765
72,534.3288427141696
73,534.2949143270889
74,534.263554939661
75,534.2348346695364
76,534.2088161982316
77,534.1855544948852
78,534.1650965926447
79,534.1474814182836
80,534.1327396751259
81,534.1208937785766
82,534.111957842471
83,534.1059377131651
84,534.1028310471166
85,534.1026274269174
86,534.105308510377
87,534.1108482072377
88,534.1192128783424
89,534.1303615526906
90,534.1442461588986
91,534.1608117690029
92,534.1799968538797
93,534.2017335503932
94,534.225947940716
95,534.2525603443531
96,534.2814856234404
97,534.312633501873
98,534.3459088985462
99,534.3812122743133
100,534.418439991326
101,534.4574846825168
102,534.4982356283722
103,534.5405791379923
104,534.5843989318132
105,534.6295765240511
106,534.6759916034702
107,534.7235224112584
108,534.7720461148192
109,534.8214391765234
110,534.871577717054
111,534.9223378737427
112,534.973596154875
113,535.0252297910946
114,535.0771170847737
115,535.1291377577646
116,535.1811732974028
117,535.233107299938
118,535.2848258095858
119,535.3362176502654
120,535.3871747462981
121,535.4375924282346
122,535.4873697204706
123,535.5364096080787
124,535.5846192810864
125,535.6319103551162
126,535.6781990678855
127,535.7234064517091
128,535.7674584828771
129,535.8102862093672
130,535.8518258585489
131,535.8920189262737
132,535.930812248104
133,535.9681580526542
134,536.0040139964963
135,536.0383431800665
136,536.0711141443084
137,536.1023008479906
138,536.1318826256531
139,536.1598441261829
140,536.186175232339
141,536.2108709622361
142,536.2339313547427
143,536.2553613416443
144,536.275170609876
145,536.2933734569709
146,536.3099886421742
147,536.3250392346991
148,536.3385524596576
149,536.3505595416129
150,536.3610955456155
151,536.3701992158186
152,536.3779128120588
153,536.384281944881
154,536.3893554091431
155,536.3931850154828
156,536.3958254179237
157,536.397333935195
158,536.3977703630002
159,536.3971967742734
160,536.3956773043576
161,536.3932779182533
162,536.390066157779
163,536.386110867486
164,536.381481899214
165,536.3762497962244
166,536.3704854589724
167,536.3642597956492
168,536.3576433613208
169,536.3507059897124
170,536.3435164217243
171,536.3361419349408
172,536.3286479787816
173,536.3210978204668
174,536.3135522074971
175,536.3060690526024
176,536.2987031466399
177,536.2915059036286
178,536.2845251404706
179,536.2778048926306
180,536.2713852664372
181,536.2653023285159
182,536.2595880327613
183,536.2542701849771
184,536.2493724448897
185,536.244914364837
186,536.2409114642022
187,536.2373753385846
188,536.2343138026812
189,536.2317310657317
190,536.2296279379635
191,536.2280020656777
192,536.2268481915864
193,536.2261584360657
194,536.2259225943903
195,536.22612844495
196,536.2267620638954
197,536.2278081423107
198,536.2292503024084
199,536.231071409234
200,536.2332538740305
201,536.235779945064
202,536.2386319817405
203,536.2417927085471
204,536.2452454465384
205,536.2489743214134
206,536.2529644484063
207,536.2572020949397
208,536.2616748220436
209,536.2663716051682
210,536.2712829347726
211,536.2764008972985
212,536.2817192376452
213,536.287233404686
214,536.2929405815468
215,536.2988397024229
216,536.3049314577454
217,536.3112182893811
218,536.3177043769904
219,536.3243956156299
220,536.3312995835855
221,536.3384254987418
222,536.3457841617632
223,536.353387884736
224,536.3612504042825
225,536.3693867782866
226,536.3778132654328
227,536.3865471870074
228,536.3956067708434
229,536.4050109776442
230,536.4147793100817
231,536.4249316051846
232,536.4354878108518
233,536.4464677479224
234,536.4578908600345
235,536.469775954264
236,536.4821409359613
237,536.4950025411771
238,536.5083760698135
239,536.5222751224272
240,536.5367113435408
241,536.5516941742486
242,536.5672306167303
243,536.583325013095
244,536.5999788409603
245,536.6171905283347
246,536.6349552904938
247,536.6532649913462
248,536.6721080312549
249,536.6914692626483
250,536.7113299343325
251,536.7316676652923
252,536.7524564487669
253,536.7736666872972
254,536.7952652593144
255,536.8172156178509
256,536.8394779220791
257,536.8620092023932
258,536.8847635595101
259,536.9076923975471
260,536.930744690192
261,536.9538672778652
262,536.9770051922867
263,537.0001020034923
264,537.023100183514
265,537.0459414807717
266,537.0685672994964
267,537.0909190788976
268,537.112938667145
269,537.1345686855518
270,537.15575287867
271,537.1764364463182
272,537.1965663538762
273,537.2160916176595
274,537.2349635629193
275,537.2531360528277
276,537.2705656875019
277,537.2872119726627
278,537.3030374579182
279,537.3180078448515
280,537.3320920650735
281,537.3452623284054
282,537.3574941416657
283,537.3687662991504
284,537.3790608465863
285,537.3883630208586
286,537.396661168074
287,537.4039466426544
288,537.4102136902658
289,537.415459317506
290,537.4196831514387
291,537.4228872922614
292,537.4250761624455
293,537.4262563554358
294,537.4264364867053
295,537.4256270499504
296,537.4238402813681
297,537.4210900347546
298,537.417391669382
299,537.4127619515721
300,537.4072189701118
301,537.4007820652646
302,537.3934717707975
303,537.3853097679303
304,537.3763188495309
305,537.3665228925079
306,537.3559468362914
307,537.3446166654315
308,537.3325593944048
309,537.319803052579
310,537.3063766670399
311,537.2923102408021
312,537.2776347238837
313,537.2623819748425
314,537.2465847106292
315,537.2302764429494
316,537.2134913996908
317,537.1962644304175
318,537.1786308955091
319,537.1606265393309
320,537.1422873487983
321,537.1236493995638
322,537.1047486924376
323,537.0856209824664
324,537.0663016025678
325,537.0468252831029
326,537.0272259686112
327,537.007536633339
328,536.9877890979365
329,536.9680138503303
330,536.9482398739805
331,536.9284944865941
332,536.908803192136
333,536.889189548835
334,536.8696750558216
335,536.8502790609233
336,536.8310186918877
337,536.8119088129002
338,536.7929620076786
339,536.7741885896469
340,536.7555966388435
341,536.7371920645566
342,536.71897869229
343,536.7009583733628
344,536.6831311150395
345,536.6654952285439
346,536.6480474917444
347,536.6307833229318
348,536.613696962151
349,536.5967816569506
350,536.5800298499329
351,536.5634333657781
352,536.5469835953761
353,536.5306716745177
354,536.5144886546824
355,536.4984256640753
356,536.482474058119
357,536.4666255596646
358,536.4508723898375
359,536.4352073906773
360,536.4196241408675
361,536.4041170658763
362,536.3886815433892
363,536.3733140039087
364,536.3580120253279
365,536.3427744197882
366,536.3276013112836
367,536.3124942027505
368,536.2974560312482
369,536.2824912092597
370,536.2676056496114
371,536.2528067715115
372,536.2381034857829
373,536.2235061581878
374,536.209026550367
375,536.1946777382112
376,536.1804740076984
377,536.1664307287606
378,536.1525642087008
379,536.1388915278342
380,536.1254303610576
381,536.1121987897126
382,536.0992151082227
383,536.0864976296039
384,536.0740644933708
385,536.0619334789824
386,536.0501218278562
387,536.0386460768248
388,536.0275219053785
389,536.0167639980885
390,536.0063859224944
391,535.9964000217625
392,535.9868173207184
393,535.9776474435214
394,535.9688985414249
395,535.9605772297625
396,535.9526885342563
397,535.9452358475204
398,535.9382208969525
399,535.9316437250692
400,535.9255026829867
401,535.9197944374698
402,535.9145139919377
403,535.9096547219026
404,535.9052084252256
405,535.9011653871719
406,535.8975144597025
407,535.8942431540594
408,535.8913377456436
409,535.8887833903711
410,535.8865642519435
411,535.8846636397999
412,535.8830641579542
413,535.8817478652418
414,535.880696447492
415,535.8798914018993
416,535.8793142336337
417,535.8789466643661
418,535.8787708515306
419,535.8787696159271
420,535.878926674216
421,535.8792268724104
422,535.8796564165269
423,535.8802030967422
424,535.8808565014831
425,535.8816082178904
426,535.8824520151409
427,535.8833840070906
428,535.8844027904923
429,535.8855095548358
430,535.8867081601192
431,535.8880051797084
432,535.8894099065164
433,535.8909343215746
434,535.8925930245708
435,535.8944031262888
436,535.8963841033441
437,535.8985576161595
438,535.9009472915209
439,535.9035784711729
440,535.9064779280337
441,535.9096735521778
442,535.9131940098048
443,535.9170683795825
444,535.9213257715519
445,535.9259949341018
446,535.9311038545565
447,535.9366793589468
448,535.9427467165461
449,535.9493292545214
450,535.9564479874493
451,535.9641212656675
452,535.9723644458348
453,535.9811895868914
454,535.990605174732
455,536.0006158791464
456,536.0112223468508
457,536.02242103456
458,536.0342040857302
459,536.0465592537172
460,536.0594698729421
461,536.0729148785497
462,536.0868688741219
463,536.1013022462973
464,536.1161813246657
465,536.1314685849312
466,536.1471228928496
467,536.1630997858628
468,536.1793517888227
469,536.1958287597428
470,536.2124782610562
471,536.2292459514166
472,536.2460759928044
473,536.262911467719
474,536.2796948015834
475,536.2963681861219
476,536.3128740001977
477,536.3291552251754
478,536.3451558522527
479,536.3608212794978
480,536.376098696572
481,536.3909374551355
482,536.405289422578
483,536.4191093160257
484,536.4323550129163
485,536.444987834017
486,536.4569727945717
487,536.4682788192332
488,536.4788789166505
489,536.4887503102707
490,536.497874523134
491,536.5062374160788
492,536.5138291805491
493,536.5206442887126
494,536.5266814044506
495,536.53194325893
496,536.5364364942095
497,536.5401714780197
498,536.543162092592
499,536.5454255001482
500,536.5469818872839
501,536.5478541899843
502,536.5480678006658
503,536.5476502587579
504,536.5466309271154
505,536.5450406578219
506,536.5429114523494
507,536.5402761221914
508,536.5371679566821
509,536.5336204046159
510,536.5296667756494
511,536.525339966639
512,536.520672217274
513,536.5156948986084
514,536.5104383373181
515,536.5049316776101
516,536.4992027815773
517,536.4932781674753
518,536.4871829842315
519,536.4809410197413
520,536.4745747400931
521,536.4681053565366
522,536.4615529166081
523,536.4549364153426
524,536.4482739220956
525,536.4415827184124
526,536.4348794427349
527,536.4281802383449
528,536.421500901523
529,536.4148570273014
530,536.4082641503493
531,536.4017378783857
532,536.3952940150572
533,536.3889486686109
534,536.3827183423816
535,536.3766200035491
536,536.3706711278764
537,536.3648897196631
538,536.3592943072117
539,536.353903914627
540,536.3487380112787
541,536.3438164411656
542,536.3391593354489
543,536.3347870120804
544,536.3307198665435
545,536.3269782574449
546,536.3235823904652
547,536.3205522042791
548,536.317907262273
549,536.3156666537741
550,536.3138489079006
551,536.3124719222444
552,536.311552907635
553,536.3111083493217
554,536.3111539842631
555,536.3117047940038
556,536.3127750126445
557,536.3143781492292
558,536.3165270232447
559,536.3192338109963
560,536.3225100997787
561,536.3263669463448
562,536.3308149363401
563,536.3358642418826
564,536.3415246750067
565,536.3478057352428
566,536.3547166504098
567,536.3622664106736
568,536.3704637966121
569,536.3793174020516
570,536.388835652102
571,536.3990268167386
572,536.4098990205694
573,536.4214602496002
574,536.4337183554935
575,536.4466810572053
576,536.4603559394156
577,536.4747504470015
578,536.4898718747376
579,536.5057273512957
580,536.5223238165198
581,536.539667990999
582,536.5577663372156
583,536.5766250119713
584,536.5962498102743
585,536.6166461012384
586,536.6378187567083
587,536.6597720733711
588,536.6825096890599
589,536.7060344938053
590,536.730348536043
591,536.7554529244544
592,536.7813477263835
593,536.8080318645112
594,536.8355030141295
595,536.8637575037766
596,536.8927902222231
597,536.9225945348305
598,536.9531622120257
599,536.9844833720267
600,537.0165464391428
601,537.0493381180903
602,537.0828433839927
603,537.1170454872573
604,537.1519259724048
605,537.1874647100356
606,537.2236399413353
607,537.2604283347214
608,537.2978050542561
609,537.3357438392017
610,537.3742170936606
611,537.413195984854
612,537.4526505484605
613,537.4925497995937
614,537.5328618483576
615,537.5735540193288
616,537.6145929746205
617,537.6559448402281
618,537.697575335029
619,537.7394499011841
620,537.7815338340748
621,537.8237924096157
622,537.8661910068762
623,537.9086952242466
624,537.9512709877312
625,537.9938846502641
626,538.0365030812128
627,538.0790937454515
628,538.1216247714975
629,538.1640650081446
630,538.2063840688543
631,538.2485523629648
632,538.2905411125612
633,538.332322353635
634,538.3738689200293
635,538.4151544087705
636,538.4561531258793
637,538.4968400126671
638,538.5371905536914
639,538.5771806685578
640,538.6167865904213
641,538.6559847344513
642,538.6947515598674
643,538.7330634293877
644,538.7708964699815
645,538.8082264385785
646,538.8450285958256
647,538.8812775901712
648,538.9169473537278
649,538.952011010745
650,538.986440799179
651,539.0202080057211
652,539.0532829145898
653,539.08563477027
654,539.1172317541533
655,539.1480409748445
656,539.1780284719199
657,539.2071592331664
658,539.2353972255958
659,539.2627054405309
660,539.2890459527669
661,539.3143799934966
662,539.3386680366807
663,539.3618698987469
664,539.3839448516032
665,539.4048517488361
666,539.4245491648078
667,539.4429955462944
668,539.4601493762206
669,539.475969348745
670,539.4904145543865
671,539.5034446732959
672,539.5150201744967
673,539.5251025189582
674,539.533654364455
675,539.54063977005
676,539.5460243977946
677,539.5497757090727
678,539.5518631530424
679,539.552258344866
680,539.5509352318913
681,539.5478702465279
682,539.5430424449925
683,539.5364336311377
684,539.5280284641462
685,539.5178145481573
686,539.5057825012497
687,539.4919260010951
688,539.4762418052438
689,539.4587297453442
690,539.4393926962939
691,539.418236522983
692,539.3952700085216
693,539.3705047684232
694,539.343955155148
695,539.3156381569329
696,539.2855732940973
697,539.2537825151755
698,539.2202900945872
699,539.1851225334527
700,539.1483084654737
701,539.1098785699502
702,539.0698654935586
703,539.0283037816677
704,538.985229819235
705,538.9406817809496
706,538.8946995901274
707,538.8473248858714
708,538.7986009982046
709,538.748572931117
710,538.6972873534514
711,538.6447925971323
712,538.5911386615511
713,538.5363772221048
714,538.480561639959
715,538.423746969143
716,538.3659899563938
717,538.3073490290782
718,538.2478842669893
719,538.1876573544255
720,538.1267315093664
721,538.065171386852
722,538.0030429542583
723,537.9404133373585
724,537.8773506376656
725,537.8139237230923
726,537.7502019950388
727,537.6862551356417
728,537.622152839271
729,537.5579645325322
730,537.4937590870053
731,537.4296045287567
732,537.3655677483977
733,537.3017142152592
734,537.2381076990926
735,537.174810002414
736,537.1118807060849
737,537.0493769301257
738,536.9873531113205
739,536.9258607988726
740,536.864948469134
741,536.8046613602821
742,536.7450413278019
743,536.6861267216508
744,536.6279522857789
745,536.5705490800954
746,536.513944424201
747,536.4581618616611
748,536.4032211434941
749,536.3491382297397
750,536.2959253083184
751,536.2435908308955
752,536.1921395659938
753,536.1415726698777
754,536.0918877756488
755,536.0430791006827
756,535.9951375722566
757,535.9480509712122
758,535.9018040938705
759,535.8563789329393
760,535.8117548784778
761,535.7679089399312
762,535.7248159898279
763,535.6824490289831
764,535.640779472017
765,535.599777450963
766,535.5594121340757
767,535.5196520567696
768,535.4804654616855
769,535.4418206449271
770,535.403686305511
771,535.3660318951975
772,535.3288279661366
773,535.2920465139509
774,535.2556613136004
775,535.2196482445528
776,535.1839856008692
777,535.1486543813711
778,535.1136385552759
779,535.0789252993524
780,535.0445052034217
781,535.0103724416659
782,534.9765249077336
783,534.9429643121973
784,534.9096962414995
785,534.8767301780283
786,534.8440794813318
787,534.8117613307343
788,534.7797966297691
789,534.7482098729187
790,534.7170289751206
791,534.6862850643131
792,534.6560122370333
793,534.6262472769631
794,534.597029336547
795,534.5683995825303
796,534.5404008076117
797,534.5130770123056
798,534.4864729630999
799,534.4606337343741
800,534.4356042419057
801,534.4114287753755
802,534.3881505367067
803,534.3658111907135
804,534.3444504342992
805,534.3241055899813
806,534.3048112287025
807,534.2865988258799
808,534.2694964537087
809,534.2535285119915
810,534.2387154991649
811,534.2250738246314
812,534.2126156628341
813,534.201348848793
814,534.1912768142796
815,534.1823985636487
816,534.1747086885325
817,534.1681974208846
818,534.1628507239926
819,534.1586504210102
820,534.1555743604372
821,534.15359661796
822,534.1526877339588
823,534.1528149854919
824,534.1539426905614
825,534.156032541173
826,534.1590439605264
827,534.1629344789332
828,534.1676601228037
829,534.1731758111081
830,534.17943575389
831,534.1863938476741
832,534.1940040629945
833,534.2022208198533
834,534.2109993476141
835,534.2202960263994
836,534.2300687073638
837,534.2402770092473
838,534.2508825885127
839,534.2618493803758
840,534.273143808339
841,534.2847349604328
842,534.2965947311453
843,534.3086979288499
844,534.3210223492107
845,534.3335488153568
846,534.3462611856975
847,534.3591463304443
848,534.3721940783246
849,534.3853971353199
850,534.3987509774149
851,534.4122537195414
852,534.4259059633962
853,534.4397106274183
854,534.4536727625974
855,534.4677993578725
856,534.4820991386847
857,534.4965823618752
858,534.5112606097914
859,534.5261465863872
860,534.5412539182815
861,534.5565969638939
862,534.5721906335808
863,534.5880502230603
864,534.6041912615594
865,534.6206293754994
866,534.6373801684927
867,534.6544591188675
868,534.6718814963078
869,534.6896622989821
870,534.7078162118369
871,534.7263575859756
872,534.7453004384089
873,534.764658470734
874,534.7844451043862
875,534.8046735292716
876,534.8253567621244
877,534.8465077108365
878,534.868139241202
879,534.8902642430052
880,534.9128956930814
881,534.9360467137577
882,534.9597306257328
883,534.9839609948434
884,535.0087516722617
885,535.0341168276274
886,535.0600709746321
887,535.0866289887496
888,535.1138061170702
889,535.1416179803996
890,535.1700805677193
891,535.1992102228058
892,535.2290236225158
893,535.2595377463161
894,535.2907698372213
895,535.3227373553366
896,535.3554579264384
897,535.3889492889953
898,535.4232292433875
899,535.4583156068662
900,535.4942261772514
901,535.530978707555
902,535.5685908926064
903,535.6070803675506
904,535.6464647171159
905,535.6867614939282
906,535.7279882437225
907,535.7701625348058
908,535.8133019885261
909,535.8574243071188
910,535.9025472954718
911,535.9486888741274
912,535.9958670819065
913,536.0441000674361
914,536.0934060692454
915,536.1438033839364
916,536.1953103214818
917,536.2479451462991
