frame_number,force
0,537.794962486446
1,537.7793310761848
2,537.7620668240248
3,537.7431886720697
4,537.7227179035135
5,537.7006778705532
6,537.6770937159228
7,537.6519920900664
8,537.6254008664075
9,537.5973488579747
10,537.5678655395892
11,537.5369807804055
12,537.5047245915343
13,537.4711268928107
14,537.4362173018403
15,537.400024947665
16,537.3625783110591
17,537.3239050935396
18,537.2840321172689
19,537.2429852577258
20,537.2007894101689
21,537.1574684898139
22,537.1130454647658
23,537.067542420424
24,537.0209806541006
25,536.9733807985377
26,536.924762972771
27,536.8751469586012
28,536.8245524010015
29,536.7729990310454
30,536.7205069102527
31,536.6670966954272
32,536.6127899228926
33,536.5576093103567
34,536.5015790736097
35,536.4447252542188
36,536.3870760536206
37,536.3286621686361
38,536.2695171233931
39,536.2096775928468
40,536.1491837134065
41,536.0880793764182
42,536.0264125002392
43,535.9642352763535
44,535.9016043846801
45,535.8385811732722
46,535.775231798137
47,535.7116273197174
48,535.6478437533253
49,535.5839620712235
50,535.5200681542053
51,535.4562526907712
52,535.3926110225567
53,535.3292429353388
54,535.2662523955092
55,535.2037472324891
56,535.1418387683783
57,535.0806413971675
58,535.0202721167877
59,534.96085001789
60,534.9024957336345
61,534.8453308552266
62,534.7894773186006
63,534.735056768373
64,534.6821899058194
65,534.6309958281557
66,534.581591366884
67,534.5340904332587
68,534.4886033788481
69,534.4452363786143
70,534.4040908430245
71,534.3652628646666
72,534.3288427038349
73,534.2949143167242
74,534.2635549292617
75,534.2348346590982
76,534.2088161877506
77,534.1855544843579
78,534.165096582068
79,534.1474814076548
80,534.1327396644422
81,534.1208937678357
82,534.1119578316709
83,534.1059377023039
84,534.1028310361927
85,534.102627415929
86,534.1053084993229
87,534.1108481961168
88,534.1192128671539
89,534.1303615414346
90,534.1442461475756
91,534.1608117576136
92,534.1799968424248
93,534.2017335388728
94,534.2259479291297
95,534.2525603327
96,534.281485611719
97,534.3126334900816
98,534.3459088866832
99,534.3812122623775
100,534.4184399793163
101,534.4574846704325
102,534.4982356162127
103,534.5405791257577
104,534.5843989195042
105,534.6295765116688
106,534.6759915910168
107,534.7235223987373
108,534.7720461022344
109,534.8214391638796
110,534.8715777043568
111,534.9223378609981
112,534.9735961420898
113,535.0252297782754
114,535.0771170719271
115,535.129137744897
116,535.1811732845202
117,535.2331072870467
118,535.284825796692
119,535.336217637375
120,535.3871747334166
121,535.4375924153677
122,535.4873697076239
123,535.5364095952576
124,535.5846192682967
125,535.631910342364
126,535.6781990551773
127,535.7234064390522
128,535.7674584702786
129,535.8102861968339
130,535.8518258460876
131,535.8920189138912
132,535.9308122358068
133,535.9681580404488
134,536.0040139843887
135,536.0383431680623
136,536.0711141324125
137,536.1023008362079
138,536.1318826139883
139,536.1598441146406
140,536.1861752209237
141,536.2108709509522
142,536.2339313435941
143,536.2553613306341
144,536.2751705990061
145,536.2933734462422
146,536.3099886315867
147,536.3250392242525
148,536.3385524493502
149,536.3505595314424
150,536.3610955355782
151,536.3701992059094
152,536.3779128022713
153,536.3842819352082
154,536.389355399577
155,536.3931850060146
156,536.3958254085444
157,536.397333925895
158,536.3977703537691
159,536.3971967651005
160,536.3956772952318
161,536.3932779091635
162,536.3900661487144
163,536.3861108584359
164,536.3814818901685
165,536.3762497871742
166,536.3704854499089
167,536.3642597865651
168,536.3576433522103
169,536.3507059805711
170,536.343516412549
171,536.3361419257295
172,536.3286479695333
173,536.3210978111812
174,536.3135521981748
175,536.3060690432444
176,536.2987031372476
177,536.2915058942032
178,536.284525131013
179,536.2778048831415
180,536.271385256917
181,536.2653023189649
182,536.2595880231794
183,536.2542701753638
184,536.2493724352433
185,536.2449143551553
186,536.2409114544821
187,536.2373753288224
188,536.2343137928725
189,536.2317310558714
190,536.2296279280454
191,536.2280020556944
192,536.2268481815299
193,536.2261584259269
194,536.2259225841593
195,536.2261284346165
196,536.2267620534492
197,536.2278081317415
198,536.2292502917065
199,536.23107139839
200,536.2332538630359
201,536.2357799339112
202,536.2386319704233
203,536.241792697061
204,536.2452454348804
205,536.248974309582
206,536.2529644364015
207,536.2572020827628
208,536.2616748096971
209,536.2663715926557
210,536.2712829220985
211,536.2764008844684
212,536.2817192246662
213,536.287233391566
214,536.2929405682947
215,536.2988396890484
216,536.304931444258
217,536.3112182757914
218,536.317704363309
219,536.324395601868
220,536.3312995697545
221,536.3384254848532
222,536.3457841478285
223,536.3533878707664
224,536.3612503902891
225,536.3693867642809
226,536.3778132514262
227,536.3865471730115
228,536.3956067568697
229,536.4050109637043
230,536.414779296187
231,536.4249315913471
232,536.4354877970836
233,536.4464677342357
234,536.457890846441
235,536.4697759407749
236,536.4821409225864
237,536.4950025279252
238,536.5083760566916
239,536.522275109441
240,536.5367113306945
241,536.5516941615451
242,536.567230604171
243,536.5833250006799
244,536.5999788286886
245,536.6171905162045
246,536.6349552785017
247,536.6532649794877
248,536.6721080195246
249,536.6914692510401
250,536.7113299228396
251,536.7316676539076
252,536.752456437483
253,536.7736666761061
254,536.7952652482072
255,536.8172156068179
256,536.8394779111098
257,536.8620091914772
258,536.8847635486372
259,536.9076923867073
260,536.9307446793752
261,536.9538672670611
262,536.9770051814855
263,537.0001019926851
264,537.0231001726927
265,537.0459414699288
266,537.0685672886257
267,537.0909190679936
268,537.1129386562034
269,537.1345686745689
270,537.1557528676427
271,537.1764364352438
272,537.1965663427516
273,537.2160916064811
274,537.2349635516831
275,537.2531360415295
276,537.2705656761382
277,537.2872119612308
278,537.3030374464158
279,537.3180078332776
280,537.3320920534278
281,537.3452623166875
282,537.3574941298756
283,537.3687662872886
284,537.3790608346538
285,537.3883630088567
286,537.396661156004
287,537.4039466305178
288,537.4102136780641
289,537.4154593052411
290,537.4196831391129
291,537.4228872798774
292,537.4250761500065
293,537.4262563429456
294,537.4264364741686
295,537.4256270373729
296,537.4238402687564
297,537.4210900221159
298,537.4173916567242
299,537.4127619389038
300,537.4072189574423
301,537.4007820526035
302,537.393471758155
303,537.3853097553165
304,537.3763188369562
305,537.3665228799827
306,537.3559468238262
307,537.3446166530367
308,537.3325593820899
309,537.3198030403528
310,537.3063766549099
311,537.2923102287746
312,537.2776347119641
313,537.262381963035
314,537.2465846989368
315,537.2302764313737
316,537.2134913882327
317,537.1962644190768
318,537.1786308842849
319,537.1606265282217
320,537.1422873378015
321,537.1236493886757
322,537.1047486816542
323,537.085620971783
324,537.0663015919795
325,537.0468252726041
326,537.0272259581957
327,537.0075366229999
328,536.9877890876664
329,536.9680138401216
330,536.9482398638248
331,536.9284944764828
332,536.9088031820598
333,536.8891895387842
334,536.8696750457864
335,536.8502790508942
336,536.8310186818559
337,536.8119088028573
338,536.7929619976161
339,536.7741885795566
340,536.7555966287176
341,536.7371920543874
342,536.7189786820697
343,536.7009583630842
344,536.6831311046958
345,536.6654952181295
346,536.6480474812544
347,536.6307833123622
348,536.6136969514984
349,536.5967816462127
350,536.5800298391083
351,536.5634333548664
352,536.5469835843775
353,536.5306716634329
354,536.5144886435129
355,536.4984256528227
356,536.4824740467847
357,536.4666255482493
358,536.450872378342
359,536.4352073791023
360,536.4196241292143
361,536.4041170541464
362,536.3886815315849
363,536.3733139920332
364,536.3580120133847
365,536.3427744077817
366,536.3276012992186
367,536.3124941906319
368,536.2974560190808
369,536.2824911970475
370,536.2676056373585
371,536.2528067592216
372,536.2381034734592
373,536.2235061458332
374,536.2090265379841
375,536.1946777258025
376,536.1804739952665
377,536.1664307163086
378,536.1525641962322
379,536.1388915153528
380,536.1254303485682
381,536.1121987772202
382,536.0992150957327
383,536.0864976171216
384,536.0740644809014
385,536.0619334665305
386,536.0501218154259
387,536.0386460644196
388,536.0275218930012
389,536.0167639857414
390,536.006385910179
391,535.9964000094801
392,535.9868173084695
393,535.977647431306
394,535.9688985292428
395,535.9605772176138
396,535.952688522141
397,535.9452358354383
398,535.938220884903
399,535.9316437130511
400,535.9255026709989
401,535.9197944255111
402,535.914513980007
403,535.9096547099991
404,535.9052084133492
405,535.9011653753224
406,535.8975144478801
407,535.8942431422645
408,535.8913377338769
409,535.8887833786331
410,535.8865642402346
411,535.8846636281211
412,535.8830641463062
413,535.8817478536256
414,535.8806964359085
415,535.8798913903493
416,535.8793142221182
417,535.8789466528854
418,535.8787708400841
419,535.8787696045139
420,535.8789266628339
421,535.8792268610564
422,535.8796564051972
423,535.8802030854325
424,535.8808564901885
425,535.8816082066058
426,535.8824520038609
427,535.8833839958096
428,535.8844027792045
429,535.8855095435352
430,535.8867081488004
431,535.8880051683665
432,535.8894098951469
433,535.8909343101736
434,535.8925930131355
435,535.8944031148168
436,535.8963840918332
437,535.8985576046077
438,535.9009472799266
439,535.9035784595346
440,535.9064779163502
441,535.9096735404481
442,535.9131939980288
443,535.9170683677603
444,535.921325759684
445,535.9259949221887
446,535.9311038425985
447,535.936679346944
448,535.9427467044978
449,535.9493292424263
450,535.9564479753055
451,535.9641212534729
452,535.972364433587
453,535.9811895745881
454,535.9906051623707
455,536.0006158667246
456,536.011222334366
457,536.0224210220099
458,536.0342040731123
459,536.0465592410294
460,536.0594698601825
461,536.0729148657161
462,536.086868861212
463,536.1013022333083
464,536.1161813115949
465,536.1314685717764
466,536.1471228796086
467,536.1630997725333
468,536.1793517754028
469,536.1958287462311
470,536.2124782474526
471,536.2292459377219
472,536.24607597902
473,536.2629114538473
474,536.2796947876274
475,536.2963681720848
476,536.3128739860834
477,536.329155210988
478,536.3451558379966
479,536.3608212651789
480,536.3760986821972
481,536.3909374407134
482,536.4052894081183
483,536.4191093015393
484,536.4323549984155
485,536.4449878195148
486,536.4569727800819
487,536.4682788047688
488,536.4788789022246
489,536.4887502958952
490,536.4978745088204
491,536.5062374018374
492,536.5138291663893
493,536.5206442746422
494,536.5266813904768
495,536.531943245059
496,536.5364364804467
497,536.54017146437
498,536.5431620790592
499,536.5454254867351
500,536.5469818739921
501,536.5478541768147
502,536.5480677876179
503,536.5476502458306
504,536.5466309143072
505,536.5450406451309
506,536.5429114397733
507,536.5402761097274
508,536.5371679443272
509,536.5336203923669
510,536.5296667635027
511,536.5253399545913
512,536.5206722053224
513,536.5156948867499
514,536.5104383255497
515,536.5049316659288
516,536.4992027699798
517,536.4932781559578
518,536.4871829727898
519,536.4809410083706
520,536.4745747287876
521,536.46810534529
522,536.4615529054134
523,536.4549364041925
524,536.4482739109826
525,536.4415827073287
526,536.4348794316727
527,536.4281802272965
528,536.4215008904812
529,536.4148570162597
530,536.4082641393014
531,536.4017378673256
532,536.3952940039785
533,536.3889486575072
534,536.3827183312466
535,536.376619992377
536,536.3706711166623
537,536.3648897084028
538,536.3592942959018
539,536.3539039032651
540,536.3487379998635
541,536.3438164296975
542,536.3391593239297
543,536.3347870005126
544,536.3307198549306
545,536.3269782457908
546,536.3235823787742
547,536.320552192556
548,536.317907250523
549,536.3156666420031
550,536.3138488961143
551,536.3124719104485
552,536.3115528958349
553,536.3111083375226
554,536.31115397247
555,536.3117047822216
556,536.3127750008774
557,536.3143781374814
558,536.3165270115195
559,536.3192337992969
560,536.3225100881078
561,536.3263669347045
562,536.330814924732
563,536.335864230308
564,536.3415246634667
565,536.347805723739
566,536.3547166389441
567,536.3622663992476
568,536.3704637852279
569,536.3793173907118
570,536.388835640809
571,536.3990268054953
572,536.409899009379
573,536.4214602384662
574,536.43371834442
575,536.4466810461967
576,536.4603559284764
577,536.474750436136
578,536.4898718639499
579,536.5057273405902
580,536.5223238059006
581,536.5396679804703
582,536.5577663267818
583,536.5766250016362
584,536.5962498000417
585,536.6166460911119
586,536.6378187466908
587,536.6597720634653
588,536.6825096792679
589,536.7060344841286
590,536.7303485264823
591,536.7554529150096
592,536.7813477170539
593,536.8080318552951
594,536.8355030050245
595,536.8637574947794
596,536.8927902133294
597,536.9225945260351
598,536.9531622033229
599,536.9844833634099
600,537.0165464306045
601,537.0493381096227
602,537.0828433755872
603,537.1170454789051
604,537.1519259640964
605,537.1874647017614
606,537.2236399330857
607,537.260428326487
608,537.2978050460277
609,537.3357438309704
610,537.3742170854175
611,537.41319597659
612,537.4526505401667
613,537.4925497912615
614,537.5328618399785
615,537.5735540108944
616,537.6145929661228
617,537.6559448316592
618,537.6975753263813
619,537.7394498924507
620,537.7815338252493
621,537.8237924006919
622,537.866190997848
623,537.9086952151079
624,537.9512709784759
625,537.9938846408866
626,538.0365030717078
627,538.0790937358146
628,538.1216247617247
629,538.1640649982319
630,538.2063840587987
631,538.2485523527639
632,538.2905411022134
633,538.3323223431396
634,538.3738689093858
635,538.415154397979
636,538.4561531149402
637,538.4968400015815
638,538.5371905424608
639,538.5771806571842
640,538.6167865789067
641,538.6559847227991
642,538.6947515480817
643,538.733063417474
644,538.7708964579462
645,538.8082264264291
646,538.845028583571
647,538.8812775778212
648,538.9169473412936
649,538.9520109982388
650,538.9864407866139
651,539.0202079931104
652,539.0532829019465
653,539.0856347576067
654,539.1172317414816
655,539.148040962175
656,539.1780284592614
657,539.2071592205268
658,539.2353972129815
659,539.2627054279476
660,539.2890459402192
661,539.3143799809884
662,539.338668024215
663,539.3618698863263
664,539.3839448392293
665,539.4048517365102
666,539.4245491525305
667,539.4429955340659
668,539.4601493640405
669,539.4759693366126
670,539.4904145423001
671,539.5034446612533
672,539.5150201624948
673,539.5251025069933
674,539.533654352523
675,539.540639758146
676,539.546024385913
677,539.5497756972073
678,539.5518631411862
679,539.5522583330118
680,539.550935220032
681,539.5478702346561
682,539.5430424331007
683,539.5364336192182
684,539.5280284521916
685,539.51781453616
686,539.5057824892024
687,539.4919259889906
688,539.4762417930751
689,539.4587297331046
690,539.4393926839773
691,539.4182365105834
692,539.3952699960332
693,539.3705047558404
694,539.343955142466
695,539.3156381441478
696,539.2855732812067
697,539.253782502178
698,539.220290081482
699,539.18512252024
700,539.1483084521548
701,539.1098785565266
702,539.0698654800331
703,539.0283037680434
704,538.9852298055162
705,538.940681767141
706,538.8946995762343
707,538.8473248718999
708,538.7986009841613
709,538.7485729170097
710,538.6972873392886
711,538.644792582923
712,538.5911386473051
713,538.5363772078332
714,538.4805616256739
715,538.423746954857
716,538.36598994212
717,538.3073490148297
718,538.2478842527794
719,538.1876573402672
720,538.1267314952722
721,538.065171372834
722,538.0030429403282
723,537.9404133235275
724,537.8773506239447
725,537.8139237094916
726,537.7502019815671
727,537.6862551223066
728,537.6221528260787
729,537.5579645194867
730,537.4937590741089
731,537.4296045160092
732,537.3655677357972
733,537.3017142028023
734,537.2381076867747
735,537.1748099902292
736,537.1118806940256
737,537.0493769181832
738,536.9873530994853
739,536.9258607871345
740,536.8649484574822
741,536.8046613487052
742,536.7450413162883
743,536.686126710189
744,536.6279522743578
745,536.5705490687043
746,536.5139444128296
747,536.4581618503
748,536.4032211321353
749,536.349138218376
750,536.2959252969438
751,536.2435908195051
752,536.1921395545842
753,536.1415726584468
754,536.0918877641957
755,536.0430790892079
756,535.9951375607617
757,535.9480509596996
758,535.9018040823432
759,535.8563789214012
760,535.8117548669334
761,535.7679089283853
762,535.724815978286
763,535.6824490174507
764,535.6407794604996
765,535.5997774394662
766,535.5594121226045
767,535.519652045328
768,535.4804654502768
769,535.4418206335533
770,535.4036862941733
771,535.3660318838962
772,535.3288279548713
773,535.2920465027204
774,535.2556613024028
775,535.2196482333858
776,535.1839855897298
777,535.1486543702559
778,535.1136385441808
779,535.0789252882726
780,535.044505192352
781,535.0103724306003
782,534.9765248966656
783,534.9429643011197
784,534.9096962304048
785,534.8767301669094
786,534.8440794701814
787,534.8117613195453
788,534.779796618535
789,534.7482098616337
790,534.71702896378
791,534.6862850529131
792,534.6560122255714
793,534.626247265438
794,534.5970293249585
795,534.5683995708789
796,534.5404007958984
797,534.513077000532
798,534.486472951268
799,534.4606337224865
800,534.4356042299653
801,534.4114287633861
802,534.3881505246724
803,534.3658111786385
804,534.344450422188
805,534.3241055778388
806,534.3048112165347
807,534.2865988136933
808,534.2694964415107
809,534.2535284997898
810,534.2387154869679
811,534.2250738124476
812,534.2126156506722
813,534.2013488366616
814,534.1912768021867
815,534.1823985516019
816,534.1747086765389
817,534.1681974089505
818,534.1628507121236
819,534.1586504092106
820,534.1555743487107
821,534.1535966063095
822,534.1526877223862
823,534.1528149739985
824,534.1539426791481
825,534.1560325298406
826,534.1590439492751
827,534.1629344677624
828,534.1676601117128
829,534.173175800096
830,534.1794357429553
831,534.1863938368153
832,534.1940040522098
833,534.2022208091411
834,534.2109993369722
835,534.2202960158253
836,534.2300686968547
837,534.2402769988004
838,534.2508825781248
839,534.2618493700435
840,534.2731437980584
841,534.2847349501995
842,534.2965947209547
843,534.3086979186968
844,534.3210223390898
845,534.333548805263
846,534.3462611756255
847,534.3591463203895
848,534.3721940682827
849,534.385397125287
850,534.3987509673874
851,534.4122537095155
852,534.4259059533689
853,534.4397106173867
854,534.4536727525586
855,534.4677993478236
856,534.4820991286226
857,534.4965823517967
858,534.5112605996933
859,534.526146576266
860,534.5412539081342
861,534.5565969537176
862,534.5721906233732
863,534.5880502128191
864,534.6041912512826
865,534.6206293651852
866,534.6373801581392
867,534.6544591084732
868,534.6718814858714
869,534.6896622885023
870,534.707816201313
871,534.7263575754073
872,534.7453004277957
873,534.7646584600757
874,534.784445093683
875,534.8046735185237
876,534.8253567513325
877,534.8465077000013
878,534.8681392303248
879,534.8902642320876
880,534.9128956821252
881,534.9360467027651
882,534.9597306147062
883,534.983960983785
884,535.0087516611735
885,535.0341168165114
886,535.0600709634906
887,535.0866289775851
888,535.1138061058857
889,535.1416179691984
890,535.1700805565051
891,535.199210211583
892,535.229023611289
893,535.2595377350905
894,535.2907698260024
895,535.3227373441304
896,535.3554579152512
897,535.3889492778338
898,535.4232292322583
899,535.458315595776
900,535.4942261662065
901,535.5309786965619
902,535.5685908816713
903,535.6070803566805
904,535.6464647063183
905,535.6867614832104
906,535.7279882330917
907,535.7701625242687
908,535.8133019780892
909,535.8574242967877
910,535.9025472852518
911,535.9486888640229
912,535.9958670719211
913,536.0441000575726
914,536.0934060595049
915,536.1438033743192
916,536.1953103119866
917,536.2479451369236
