acceleration,velocity,displacement
0.028780107547424088,0.0,0.0
0.028472031992098034,1.431303488488053e-05,3.578258721220133e-09
0.028134294709951373,2.846461656039288e-05,1.4272671582538486e-08
0.027767431176412158,4.2440048031983766e-05,3.199883773063265e-08
0.02737201733798326,5.6224910160582625e-05,5.666507727877425e-08
0.026948663172600605,6.98050802882286e-05,8.817257489097706e-08
0.026498006116583095,8.316674761052452e-05,1.2641553186566535e-07
0.026020704403242622,9.629642524048096e-05,1.7128132507841672e-07
0.02551743036874673,0.0001091809589334783,2.2265067112190654e-07
0.024988863800102568,0.00012180753247569062,2.803977939741988e-07
0.02443568542257033,0.00013416366978135884,3.4439059453846113e-07
0.023858570638015768,0.00014623723379650537,4.144908204329272e-07
0.023258183624363448,0.00015801642236210018,4.905542344725785e-07
0.022635171890759406,0.0001694897612408809,5.724307803733238e-07
0.02199016136115498,0.0001806460945538595,6.599647443220089e-07
0.02132375204060445,0.00019147457290429935,7.529949111865486e-07
0.020636514310882006,0.00020196463949217098,8.513547142856662e-07
0.019928985904059532,0.00021210601454590635,9.548723777951854e-07
0.01920166960530973,0.00022188867842324868,1.0633710510374742e-06
0.018455031729179262,0.00023130285375687093,1.176668934082504e-06
0.017689501393826464,0.00024033898703762236,1.2945793942811273e-06
0.01690547059163669,0.00024898773003398817,1.41691107354903e-06
0.016103295034245724,0.00025723992144045875,1.5434679864176417e-06
0.015283295742487239,0.00026508656913464196,1.674049609061417e-06
0.014445761352632919,0.000272518833408422,1.8084509596971829e-06
0.013590951109297715,0.00027952801152390463,1.9464626709302643e-06
0.012719098509920937,0.00028610552392870927,2.0878710547934176e-06
0.01183041556161991,0.00029224290244659446,2.2324581613872435e-06
0.010925097612947611,0.00029793178074023633,2.3800018321839514e-06
0.01000332872946243,0.00030316388732583885,2.53027574920047e-06
0.009065287589489142,0.0003079310414055767,2.6830494813833237e-06
0.00811115388091559,0.0003122251517731779,2.8380885296780124e-06
0.007141115175861706,0.00031603821903737226,2.99515437238065e-06
0.006155374244238074,0.0003193623413923972,3.1540045124880926e-06
0.005154156742820779,0.00032218972413916195,3.3143925288709824e-06
0.004137719191791751,0.0003245126931228151,3.476068133186477e-06
0.003106357132574088,0.0003263237122039066,3.638777234518157e-06
0.0020604133518172664,0.0003276154048250044,3.8022620137753847e-06
0.0010002860553575976,0.0003283805796767981,3.966261009900836e-06
-7.356311926196306e-05,0.000328612260410822,4.130509219922741e-06
-0.0011606013557700432,0.000328303719292064,4.294738214848462e-06
-0.0022602172760994316,0.00032744851463409666,4.458676273330002e-06
-0.0033717140203230822,0.00032604053180999105,4.622048534941024e-06
-0.004494302895647585,0.0003240740275809984,4.784577174788772e-06
-0.0056270977079473945,0.0003215436774300997,4.945981601041546e-06
-0.0067691098883996504,0.0003184446255310129,5.105978676781824e-06
-0.007919244515595619,0.0003147725369300141,5.264282967397081e-06
-0.009076297314507351,0.00031052365147248836,5.420607014497707e-06
-0.010238952696367126,0.00030569483896976976,5.574661637108272e-06
-0.011405782894164065,0.000300283655072137,5.726156260618749e-06
-0.012575248245263557,0.0002942883972872801,5.874799273708603e-06
-0.013745698667164265,0.0002877081605591731,6.020298413170216e-06
-0.014915376359566431,0.00028054289180249047,6.162361176260632e-06
-0.016082419750467723,0.00027279344277498195,6.300695259905001e-06
-0.01724486869097879,0.0002644616206646203,6.4350090257649015e-06
-0.018400670890170952,0.0002555502357693329,6.56501198987339e-06
-0.019547689562100467,0.000246063145656265,6.69041533522979e-06
-0.020683712233073286,0.00023600529520747157,6.810932445445724e-06
-0.02180646063510939,0.0002253827519904259,6.926279457245199e-06
-0.02291360159720859,0.0002142027364323464,7.036175829350892e-06
-0.02400275883720527,0.00020247364632374292,7.140344925039914e-06
-0.0250715255464296,0.0001902050752278342,7.238514605427808e-06
-0.02611747764399153,0.00017740782443022892,7.330417830342324e-06
-0.02713818756053424,0.00016409390812909748,7.415793263482156e-06
-0.028131238396655277,0.0001502765516398001,7.49438587842438e-06
-0.029094238288712396,0.0001359701824684582,7.565947561951445e-06
-0.030024834803701696,0.00012119041419535466,7.630237711117398e-06
-0.03092072917785936,0.00010595402319996439,7.687023820466229e-06
-0.03177969021568289,9.027891835157883e-05,7.736082055854114e-06
-0.032599567679283174,7.418410387783731e-05,7.777197811411469e-06
-0.03337830501946563,5.768963570315011e-05,7.810166246306716e-06
-0.03411395132470573,4.081657161710727e-05,7.83479279813678e-06
-0.03480467238792985,2.3586915688948377e-05,7.850893669963294e-06
-0.035448760810629726,6.023557389308482e-06,7.858296288232859e-06
-0.03604464507811273,-1.1849794082877132e-05,7.856839729059466e-06
-0.03659089755152467,-3.0008679740286483e-05,7.846375110603675e-06
-0.03708624133470479,-4.8427964461843846e-05,7.826765949553143e-06
-0.0375295559862412,-6.708191379208034e-05,7.797888479989662e-06
-0.037919882057334146,-8.594427330297418e-05,7.759631933215898e-06
-0.03825642444571889,-0.00010498834992873744,7.71189877740797e-06
-0.0385385545679484,-0.00012418709468215426,7.654604916255247e-06
-0.038765811370401936,-0.00014351318616674183,7.587679846043023e-06
-0.038937901224890714,-0.000162939114315565,7.511066770922446e-06
-0.03905469678480886,-0.0001824372638179899,7.424722676389057e-06
-0.039116234905269096,-0.00020197999674050938,7.328618361249432e-06
-0.039122713748982504,-0.0002215397339040723,7.222738428588287e-06
-0.039074489207634025,-0.00024108903464322643,7.107081236451462e-06
-0.0389720707686389,-0.00026060067463729464,6.981658809131332e-06
-0.03881611695083609,-0.0002800477215671634,6.846496710080217e-06
-0.038607430417737114,-0.0002994036084093067,6.7016338775861e-06
-0.038346952850778035,-0.0003186422042264355,6.547122424427164e-06
-0.038035759630712804,-0.0003377378823468082,6.383027402783853e-06
-0.03767505434323372,-0.00035666558584029483,6.2094265357370775e-06
-0.037266163104499,-0.00037540089020222803,6.026409916726447e-06
-0.036810528693838836,-0.00039392006315181247,5.834079678387937e-06
-0.03630970447853389,-0.00041220012144490566,5.632549632238757e-06
-0.03576534811407514,-0.00043021888459305794,5.421944880729266e-06
-0.035179215003285094,-0.000447955025372398,5.2024014032379015e-06
-0.03455315150380935,-0.00046538811699917165,4.974065617645009e-06
-0.033889087889172116,-0.000482498676847417,4.737093919183362e-06
-0.03318903109054393,-0.0004992682065923461,4.491652198323421e-06
-0.03245505726750137,-0.0005156792286818574,4.23791533950487e-06
-0.03168930427030144,-0.0005317153190663081,3.9760667025678285e-06
-0.030893964059527088,-0.0005473611361487652,3.7062975887640603e-06
-0.03007127513967617,-0.000562602445948566,3.4288066932397274e-06
-0.029223515046841234,-0.0005774261434951954,3.143799545878787e-06
-0.028352992917528765,-0.0005918202704862878,2.8514879423834165e-06
-0.027462042161205055,-0.0006057740292559712,2.552089367447852e-06
-0.02655301325844268,-0.0006192777931108832,2.2458264118561385e-06
-0.02562826670080924,-0.0006323231131006962,1.9329261853032435e-06
-0.02469016607461576,-0.0006449027212945524,1.6136197267044314e-06
-0.023741071272478577,-0.0006570105306313261,1.2881414137229619e-06
-0.022783331802776,-0.0006686416314001397,9.567283732150955e-07
-0.021819280163613834,-0.0006797922843917372,6.196198942671264e-07
-0.02085122525407237,-0.0006904599107461588,2.7705684548265235e-07
-0.019881445806464084,-0.0007006430785112929,-7.071890183171052e-08
-0.01891218383622023,-0.000710341485921964,-4.234650429400247e-07
-0.017945638122736113,-0.000719555941411703,-7.809393997734414e-07
-0.016983957758013486,-0.0007282883403818904,-1.14290047022184e-06
-0.016029235826824847,-0.0007365416387781,-1.5091079650118376e-06
-0.015083503301180086,-0.0007443198235601013,-1.879323330596388e-06
-0.014148723234594231,-0.0007516278801940449,-2.2533102565349246e-06
-0.013226785330309522,-0.0007584717573352708,-2.6308351659172535e-06
-0.012319500939598833,-0.0007648583289027479,-3.011667687476758e-06
-0.011428598527571259,-0.0007707953537695405,-3.39558110814483e-06
-0.010555719627998063,-0.0007762914333084328,-3.7823528049143237e-06
-0.009702415295087424,-0.0007813559670392041,-4.171764655001233e-06
-0.008870143045244607,-0.0007859991066242871,-4.563603423417106e-06
-0.008060264264928308,-0.0007902317084518304,-4.957661127186136e-06
-0.007274042047074213,-0.000794065285029831,-5.353735375556551e-06
-0.006512639414311839,-0.0007975119553951775,-5.7516296856628026e-06
-0.0057771178938187924,-0.0008005843947222101,-6.15115377319215e-06
-0.005068436424263887,-0.0008032957833017308,-6.552123817698135e-06
-0.004387450594219297,-0.0008056597550563516,-6.954362702287656e-06
-0.003734912224202699,-0.0008076903457609571,-7.357700227491983e-06
-0.0031114693052070657,-0.0008094019411433095,-7.76197329921805e-06
-0.0025176663000242546,-0.0008108092250446174,-8.167026090765031e-06
-0.001953944809140661,-0.0008119271278219086,-8.572710178981662e-06
-0.001420644603053934,-0.0008127707751749572,-8.978884654730879e-06
-0.0009180050221193198,-0.0008133554375812505,-9.385416207919931e-06
-0.0004461667378358035,-0.0008136964805212393,-9.792179187445554e-06
-5.173853508923228e-06,-0.0008138093156690755,-1.0199055636493132e-05
0.00040502369988177495,-0.0008137093532074823,-1.0605935303712271e-05
0.0007845675376977121,-0.0008134119553980874,-1.1012715630863664e-05
0.0011336880410791267,-0.0008129323915033931,-1.1419301717589034e-05
0.0014527014932073225,-0.0008122857941198215,-1.1825606263994837e-05
0.0017420071870499852,-0.0008114871169497571,-1.2231549491762232e-05
0.0020020845357999143,-0.0008105510940190447,-1.2637059044504432e-05
0.002233490194534588,-0.000809492200336461,-1.3042069868093309e-05
0.0024368551875953402,-0.0008083246139909285,-1.3446524071675157e-05
0.0026128820337993222,-0.0008070621796855799,-1.3850370770094283e-05
0.0027623418670487403,-0.0008057183737103679,-1.425356590844327e-05
0.0028860715565865187,-0.0008043062703544591,-1.4656072069459477e-05
0.002984970833181635,-0.000802838509757017,-1.5057858264487346e-05
0.003059999419268269,-0.0008013272671939046,-1.5458899708725077e-05
0.0031121741407281185,-0.0007997842238039055,-1.5859177581474528e-05
0.0031425659740348983,-0.0007982205387752147,-1.6258678772119307e-05
0.0031522969657184286,-0.0007966468230402764,-1.665739561257318e-05
0.0031425369531128534,-0.0007950731145605686,-1.7055325596973393e-05
0.003114500010644721,-0.0007935088553196292,-1.7452471089443444e-05
0.00306944054343538,-0.0007919628701811091,-1.7848839020818627e-05
0.0030086489551626907,-0.0007904433478064596,-1.824444057531552e-05
0.0029334468336369387,-0.0007889578238592596,-1.8639290868231948e-05
0.0028451816213997533,-0.0007875131667455004,-1.903340861588314e-05
0.0027452207636422346,-0.0007861155661492399,-1.9426815799106823e-05
0.0026349453506884666,-0.0007847705246206572,-1.9819537321799296e-05
0.002515743299260125,-0.0007834828524581701,-2.0211600666069e-05
0.002389002142338846,-0.0007822566660977703,-2.0603035545707988e-05
0.002256101514073577,-0.0007810953901836672,-2.0993873559778347e-05
0.0021184054217895077,-0.0007800017634497014,-2.138414784818669e-05
0.001977254398294926,-0.0007789778484946803,-2.1773892751172785e-05
0.0018339576320583941,-0.000778025045487092,-2.216314347466823e-05
0.0016897851823980323,-0.0007771441097834779,-2.2551935763485872e-05
0.001545960399499383,-0.0007763351733880036,-2.294030558427874e-05
0.001403652682010863,-0.000775597770117626,-2.3328288820155147e-05
0.0012639707112449155,-0.000774930864269312,-2.3715920978751882e-05
0.0011279562901997853,-0.0007743328825189508,-2.410323691544895e-05
0.0009965788852134823,-0.0007738017487250975,-2.4490270573259962e-05
0.0008707309295882768,-0.000773334921271397,-2.4877054740759085e-05
0.0007512239185554061,-0.0007729294325593612,-2.5263620829216773e-05
0.000638785310846147,-0.0007725819302520108,-2.5649998669919616e-05
0.0005340562489074746,-0.0007722887198620724,-2.6036216332448137e-05
0.00043759010769986526,-0.0007720458082729206,-2.6422299964481885e-05
0.00034985187576899696,-0.0007718489477770533,-2.6808273653494377e-05
0.0002712183625826318,-0.0007716936802174654,-2.7194159310493008e-05
0.00020197921691852362,-0.0007715753808225901,-2.7579976575753022e-05
0.0001423387358479448,-0.0007714893013343985,-2.796574274629227e-05
9.241844240353e-05,-0.0007714306120398356,-2.8351472724635827e-05
5.226040985998236e-05,-0.0007713944423267697,-2.8737178988227478e-05
2.1831307935569254e-05,-0.0007713759193973208,-2.91228715786585e-05
1.027136661225634e-06,-0.0007713702047861716,-2.9508558109704373e-05
-1.0321404998481839e-05,-0.0007713725283532559,-2.989424379298923e-05
-1.2442992920702424e-05,-0.0007713782194527357,-3.027993147994073e-05
-5.619293442290762e-06,-0.0007713827350243265,-3.0665621718559995e-05
9.821765760745776e-06,-0.0007713816844062469,-3.105131282341764e-05
3.3512954624347514e-05,-0.0007713708507261506,-3.143700095720074e-05
6.505482541443583e-05,-0.0007713462087811409,-3.1822680222077566e-05
0.00010402283451009582,-0.0007713039393661598,-3.220834275911439e-05
0.00014997442222978362,-0.0007712404400519749,-3.259397885396893e-05
0.00020245597137061498,-0.0007711523324535748,-3.297957704709531e-05
0.0002610095572689282,-0.0007710364660714149,-3.336512424672656e-05
0.0003251793937148933,-0.000770889918833669,-3.3750605842952826e-05
0.00039451787987132385,-0.0007707099945152724,-3.413600582129006e-05
0.00046859116978396475,-0.0007704942172528585,-3.452130687423209e-05
0.0005469842142734045,-0.0007702403234068442,-3.490649050939702e-05
0.0006293052562756651,-0.000769946251039207,-3.529153715300853e-05
0.0007151897884563058,-0.000769610127278024,-3.567642624758783e-05
0.0008043039989985133,-0.0007692302538311603,-3.606113634286513e-05
0.000896347732584614,-0.0007688050908982645,-3.644564517904749e-05
0.0009910569843662714,-0.0007683332397190268,-3.6829929761701815e-05
0.0010882059387452836,-0.0007678134239882489,-3.7213966427628636e-05
0.0011876085698513468,-0.0007672444703610997,-3.7597730901215974e-05
0.0012891198323876272,-0.00076662528826054,-3.7981198340871384e-05
0.0013926364812570388,-0.0007659548491821288,-3.836434337523205e-05
0.0014980975624524072,-0.0007652321656712015,-3.874714012894538e-05
0.0016054846185942755,-0.0007644562701259398,-3.9129562237894667e-05
0.001714821653088712,-0.000763626193558019,-3.9511582853815655e-05
0.0018261748935538625,-0.0007627409444213583,-3.98931746383105e-05
0.0019396523814847666,-0.0007617994876025987,-4.027430974631649e-05
0.0020554033902882934,-0.0007608007236596554,-4.065495979913205e-05
0.002173617647260263,-0.0007597434684002682,-4.1035095847147035e-05
0.002294524318714579,-0.0007586264329087746,-4.1414688322474295e-05
0.0024183907163905912,-0.0007574482041499983,-4.179370698173899e-05
0.0025455206918942406,-0.0007562072262979271,-4.217212083935097e-05
0.002676252694202207,-0.0007549017829514029,-4.25498980916633e-05
0.0028109574680536165,-0.000753529980410839,-4.292700603250386e-05
0.0029500353722830596,-0.0007520897322007548,-4.3303410960656756e-05
0.003093913302789245,-0.0007505787450319867,-4.367907807996494e-05
0.0032430412148502026,-0.0007489945064025769,-4.405397139282358e-05
0.0033978882477654878,-0.0007473342740369229,-4.442805358793346e-05
0.003558938458364444,-0.0007455950673603904,-4.4801285923282785e-05
0.003726686172685819,-0.0007437736612026279,-4.517362810542354e-05
0.00390163097253415,-0.000741866581916323,-4.5545038166203276e-05
0.004084272347713537,-0.000739870106086261,-4.591547233820392e-05
0.004275104063645324,-0.0007377802619834212,-4.628488493022134e-05
0.004474608312104437,-0.0007355928338894838,-4.665322820418956e-05
0.0046832497228194514,-0.0007333033693807528,-4.702045225500712e-05
0.004901469313144898,-0.0007309071896217617,-4.738650489475775e-05
0.005129678446889097,-0.0007283994026817532,-4.7751331542833624e-05
0.005368252868551403,-0.0007257749198528931,-4.8114875123467284e-05
0.005617526877592134,-0.0007230284749163572,-4.84770759721596e-05
0.005877787705833907,-0.0007201546462705007,-4.8837871752456314e-05
0.006149270157060274,-0.0007171478818047772,-4.9197197384475135e-05
0.006432151563574314,-0.0007140025263746185,-4.955498498651999e-05
0.006726547114140827,-0.0007107128517051897,-4.991116383103994e-05
0.007032505611880942,-0.0007072730885236843,-5.026566031609716e-05
0.007350005723774424,-0.0007036774606897704,-5.061839795340052e-05
0.0076789527790801886,-0.0006999202210640567,-5.096929737383898e-05
0.008019176161531326,-0.0006959956888289039,-5.131827635131222e-05
0.00837042732554366,-0.0006918982879571352,-5.166524984550873e-05
0.008732378456851679,-0.0006876225865115363,-5.20101300641259e-05
0.009104621795340053,-0.0006831633364484884,-5.2352826544865906e-05
0.009486669638055266,-0.0006785155135901396,-5.269324625737556e-05
0.009877955038586987,-0.000673674357420979,-5.303129372512834e-05
0.010277833216244649,-0.0006686354103572711,-5.3366871167072905e-05
0.010685583689074542,-0.0006633945561309413,-5.369987865869496e-05
0.011100413147901167,-0.0006579480569216974,-5.4030214311958116e-05
0.011521459089175689,-0.0006522925888624282,-5.4357774473404145e-05
0.01194779421897955,-0.0006464252755353894,-5.46824539395036e-05
0.01237843162846823,-0.0006403437190735274,-5.500414618815582e-05
0.012812330721372934,-0.0006340460284860671,-5.532274362504572e-05
0.013248403845475964,-0.0006275308448443549,-5.5638137843378325e-05
0.013685523544969472,-0.0006207973629967435,-5.5950219895338596e-05
0.014122530318294572,-0.0006138453495309275,-5.6258880573470514e-05
0.014558240746575796,-0.0006066751567647099,-5.656401070004442e-05
0.01499145585399298,-0.0005992877326145677,-5.6865501422389245e-05
0.015420969568000908,-0.0005916846262590693,-5.716324451210765e-05
0.015845577156820258,-0.0005838679895778641,-5.745713266606688e-05
0.016264083530175815,-0.000575840574406115,-5.7747059807062875e-05
0.016675311296899274,-0.0005676057256993462,-5.803292138208924e-05
0.01707810848077185,-0.0005591673707549284,-5.831461465620281e-05
0.017471355803325938,-0.000550530004683904,-5.859203900006252e-05
0.017853973449841506,-0.0005416986723706122,-5.886509616932615e-05
0.01822492724615832,-0.0005326789471966122,-5.913369057421796e-05
0.0185832341912396,-0.0005234769068372628,-5.939772953772643e-05
0.018927967309736563,-0.0005140991064620187,-5.9657123541051244e-05
0.019258259805215235,-0.0005045525496832808,-5.9911786455087566e-05
0.01957330850743581,-0.0004948446576051181,-6.0161635756909664e-05
0.01987237661642369,-0.0004849832363241532,-6.040659273039198e-05
0.020154795750422446,-0.0004749764432324417,-6.0646582650281126e-05
0.02041996730411806,-0.00046483275246880654,-6.0881534949206435e-05
0.020667363123644346,-0.00045456091986186594,-6.11113833672891e-05
0.02089652551198017,-0.0004441699477029598,-6.133606608418031e-05
0.021107066592733398,-0.0004336690496767814,-6.155552583352524e-05
0.021298667076581256,-0.0004230676162594527,-6.17697100000093e-05
0.02147107448671054,-0.00041237518086862973,-6.197857069929133e-05
0.02162410090571162,-0.0004016013870205242,-6.218206484126362e-05
0.021757620309225442,-0.00039075595671678995,-6.238015417719795e-05
0.021871565554059565,-0.0003798486602509687,-6.257280533143989e-05
0.02196592509113694,-0.0003688892875896696,-6.275998981840005e-05
0.022040739477226685,-0.0003578876214475787,-6.294168404565937e-05
0.022096097764036104,-0.000346853412137263,-6.311786930405558e-05
0.022132133844108143,-0.00033579635423522695,-6.32885317456487e-05
0.0221490228268935,-0.00032472606506747653,-6.345366235047437e-05
0.022146977511157528,-0.00031365206498296376,-6.361325688298698e-05
0.02212624501948924,-0.0003025837593503021,-6.37673158390703e-05
0.02208710366408635,-0.0002915304221794082,-6.391584438445273e-05
