frame_number,force
0,597.1869500000456
1,597.3465263977048
2,597.5005130533121
3,597.6439492800521
4,597.7730011250914
5,597.8852162676643
6,597.9794799790391
7,598.0557055797975
8,598.1143867800295
9,598.1561946968333
10,598.1817869129569
11,598.1919103985597
12,598.1877641594659
13,598.1714928637762
14,598.1466384280732
15,598.1183845827436
16,598.0934812343554
17,598.0798174737492
18,598.085703763571
19,598.1190005281384
20,598.1862675529223
21,598.292091957405
22,598.4386935970566
23,598.6258391256436
24,598.8510441472362
25,599.1100037187553
26,599.3971558800675
27,599.7062614771339
28,600.030894464825
29,600.3647807870207
30,600.7019835229671
31,601.0369864209019
32,601.3647575454934
33,601.6808621066707
34,601.9816421833023
35,602.2644300152413
36,602.5277506780377
37,602.7714913508295
38,602.9970262814417
39,603.2072702394106
40,603.4066115500307
41,603.6006794799894
42,603.795934118072
43,603.999109104772
44,604.2165683580023
45,604.4536533022758
46,604.7141022392924
47,604.999621275385
48,605.3096753076438
49,605.6415450124398
50,605.9906574962582
51,606.3511446557363
52,606.7165314676415
53,607.0804338611666
54,607.4371605628056
55,607.7821457929107
56,608.1121725480934
57,608.425382479092
58,608.7211089897344
59,608.999595075513
60,609.2616528375387
61,609.5083073439939
62,609.7404661462766
63,609.9586568780378
64,610.1628621437374
65,610.352463513794
66,610.526299066497
67,610.6828313030443
68,610.8204006942726
69,610.9375181680397
70,611.0331529642528
71,611.1069965190078
72,611.159694847913
73,611.1930257738488
74,611.2099781319483
75,611.2146964982371
76,611.2122833589737
77,611.2084760441529
78,611.2092254184586
79,611.2202079023363
80,611.2463139685619
81,611.2911677796803
82,611.3567316084171
83,611.4430390004594
84,611.5480938223999
85,611.6679656991998
86,611.7970916247283
87,611.928757700829
88,612.0557065356568
89,612.170814189
90,612.267793239611
91,612.3418778899002
92,612.3904256913105
93,612.4133446192186
94,612.4132452029909
95,612.3952398710887
96,612.3663672658597
97,612.3346964017092
98,612.3082444408553
99,612.2938958928859
100,612.2965118254373
101,612.3183587722872
102,612.3589028683448
103,612.4149549969783
104,612.4811329146631
105,612.5505992708817
106,612.6160093954516
107,612.6705576056023
108,612.7089689769329
109,612.7282716068776
110,612.7282146173517
111,612.711263531841
112,612.6821866105987
113,612.6473151464854
114,612.6135990290371
115,612.5875943787973
116,612.5745342647584
117,612.5776404651633
118,612.5977978913116
119,612.6336233574192
120,612.6818617419408
121,612.7379901001876
122,612.7969154111764
123,612.8536810720925
124,612.9041107235685
125,612.945308394003
126,612.9759315679611
127,612.9961855248807
128,613.0075452964456
129,613.0122719007524
130,613.0128383967132
131,613.01141061423
132,613.0095251484331
133,613.008061821937
134,613.0075187187564
135,613.0084911269252
136,613.0121826723828
137,613.020774441619
138,613.0375330183937
139,613.0666083836194
140,613.1125334188182
141,613.1794965745694
142,613.2705258841751
143,613.3867716024497
144,613.5270662352312
145,613.6878648270776
146,613.8635599548492
147,614.0470737482716
148,614.2305841016575
149,614.4062461406357
150,614.5668037907759
151,614.7060304025777
152,614.8189841439155
153,614.9021064426295
154,614.9532165087397
155,614.9714550462842
156,614.9572143073634
157,614.9120706421096
158,614.8387149206121
159,614.7408640979899
160,614.6231418375482
161,614.4909306843705
162,614.350207818439
163,614.2073735707258
164,614.0690688449346
165,613.9419649768903
166,613.8325108376828
167,613.746638192277
168,613.6894454393728
169,613.6648924540187
170,613.6755427562755
171,613.7223830915857
172,613.8047379923853
173,613.9202845160866
174,614.0651633626306
175,614.2341768778556
176,614.4210629223287
177,614.6188348396555
178,614.820173398043
179,615.0178406041595
180,615.2050680899832
181,615.3758715328051
182,615.5252591656428
183,615.6493272093894
184,615.7452620968849
185,615.8112900043346
186,615.8466151392831
187,615.8513727418082
188,615.8266102570267
189,615.7743041377016
190,615.6974033911624
191,615.5998630959217
192,615.4866168513206
193,615.3634494902742
194,615.2367512648441
195,615.11314613918
196,614.9990021612285
197,614.8998641812836
198,614.8198856739492
199,614.7613533573264
200,614.7243862323538
201,614.7068589430187
202,614.7045628859464
203,614.7115869902979
204,614.7208812044655
205,614.7249626036021
206,614.7167217417519
207,614.6902632649568
208,614.6416741908996
209,614.569588308148
210,614.4754309731081
211,614.3632832969696
212,614.2393810874725
213,614.1113400606494
214,613.987252439725
215,613.874816812789
216,613.7806401637874
217,613.7097950455254
218,613.6656437646624
219,613.6498783724294
220,613.6626869079098
221,613.7029524452726
222,613.7684234718
223,613.855844109092
224,613.9610709027305
225,614.0792136457466
226,614.2048277238226
227,614.3321690751801
228,614.4555064978508
229,614.5694681727759
230,614.6693831773673
231,614.7515762765607
232,614.8135914468512
233,614.8543442434417
234,614.8742109224829
235,614.8750413079744
236,614.8600532381224
237,614.833563765774
238,614.800546763389
239,614.7660573542646
240,614.7346044342015
241,614.7095732414984
242,614.692800894177
243,614.6843843736177
244,614.682748949846
245,614.684942461041
246,614.6870776633762
247,614.6848357788101
248,614.6739607833094
249,614.6507038897798
250,614.6122132144964
251,614.5568868392597
252,614.4846956305239
253,614.3974388865091
254,614.2988574604904
255,614.1945283386723
256,614.0914986626317
257,613.9976584190562
258,613.9208865682481
259,613.8680485175372
260,613.8439798826598
261,613.850635933634
262,613.8865825665429
263,613.9469473193972
264,614.0238614370115
265,614.1073314287972
266,614.1863984085808
267,614.2503938284974
268,614.2900959379627
269,614.2986324686435
270,614.2720451083901
271,614.2095044327488
272,614.1132167136134
273,613.9880867634456
274,613.8411991070922
275,613.6811644763332
276,613.5173613373522
277,613.3590990694071
278,613.214755297373
279,613.0909850129341
280,612.992126534742
281,612.9199085035076
282,612.8734971052028
283,612.8498461159742
284,612.8442598158829
285,612.851065480817
286,612.8643072091952
287,612.8783955931892
288,612.8886633355057
289,612.8917796413552
290,612.8859722114316
291,612.871012991575
292,612.8479579155145
293,612.8186884395403
294,612.7853637402147
295,612.7499287847849
296,612.7138065070139
297,612.6778276731413
298,612.6423577948431
299,612.6075173369366
300,612.5733798031011
301,612.5400621561765
302,612.507674606315
303,612.4761513778724
304,612.4450239845951
305,612.4132175458217
306,612.3789461974628
307,612.3397550012564
308,612.2927138615776
309,612.2347312348877
310,612.1629303106275
311,612.0750196511939
312,611.9695968410728
313,611.8463444461388
314,611.7061019343013
315,611.5508189233447
316,611.383413641272
317,611.2075717505039
318,611.0275179751501
319,610.8477751829888
320,610.6729007958307
321,610.5071752734318
322,610.3542302746472
323,610.2166470495955
324,610.0956032717988
325,609.9906644704542
326,609.8997923018565
327,609.8195916180542
328,609.7457653203746
329,609.6737089031898
330,609.599162971212
331,609.5188408971627
332,609.4309434470582
333,609.3354661688694
334,609.2342192767192
335,609.1305285340263
336,609.0286655865549
337,608.9331355467372
338,608.8479791897903
339,608.7762093938848
340,608.7194343562603
341,608.6776705040104
342,608.6493272420048
343,608.6313442990718
344,608.6194728395398
345,608.608700211312
346,608.5938054404288
347,608.5699949239544
348,608.5335270662601
349,608.4822171456128
350,608.4157267982516
351,608.335576517111
352,608.2448676259474
353,608.1477609829891
354,608.0488173657209
355,607.952328599401
356,607.8617479226858
357,607.7792859359249
358,607.7057010545047
359,607.6402852027904
360,607.5810229068004
361,607.5248879503108
362,607.4682371375352
363,607.4072583936966
364,607.3384258028603
365,607.2589102177869
366,607.1668960359491
367,607.0617666961962
368,606.9441434915093
369,606.8157867096894
370,606.679385467345
371,606.5382736011445
372,606.3961213585495
373,606.2566644783253
374,606.1235283150448
375,606.0001735540684
376,605.8899405148042
377,605.796125760027
378,605.7220083719361
379,605.6707564256043
380,605.6451770966478
381,605.6473176903389
382,605.6779739478408
383,605.7362049907973
384,605.8189728720806
385,605.9210072985642
386,606.0349508976805
387,606.1517904492223
388,606.2615444664426
389,606.3541574140567
390,606.420525754696
391,606.4535364718222
392,606.4489544549709
393,606.4059938458773
394,606.3274713415638
395,606.2195416364375
396,606.0911040878334
397,605.9530042985516
398,605.8171336405871
399,605.6954900638301
400,605.5992450608262
401,605.5378719948109
402,605.5184048123002
403,605.544893600216
404,605.6181115529239
405,605.7355556202397
406,605.8917598683034
407,606.0788951989067
408,606.2875728282935
409,606.5077281463961
410,606.7294564904887
411,606.9437067856805
412,607.1427958090966
413,607.3207509982624
414,607.47350194598
415,607.5989345510026
416,607.6968204473342
417,607.76863557409
418,607.8172757411983
419,607.8466768020369
420,607.8613719130173
421,607.8660582825479
422,607.8652643786704
423,607.8631822515217
424,607.8636712295862
425,607.870378256634
426,607.8868770751857
427,607.9167188780915
428,607.9633237954579
429,608.0297145419952
430,608.1181631557783
431,608.2298546243352
432,608.3646561875674
433,608.5210302742291
434,608.6960740260669
435,608.8856439870747
436,609.0845397109339
437,609.2867522953236
438,609.4858039364706
439,609.6751956245424
440,609.8489412103633
441,610.0021144897399
442,610.1313021743022
443,610.2348645615456
444,610.312956948528
445,610.3673319541414
446,610.4009934607885
447,610.41778620306
448,610.4219794466169
449,610.4178626115313
450,610.4093539181971
451,610.3996442800707
452,610.3909277943676
453,610.3842706382753
454,610.3796412640266
455,610.3760911545708
456,610.3720502994188
457,610.3656825572054
458,610.3552361885475
459,610.3393338159926
460,610.3171723950908
461,610.2886305487368
462,610.2542919323145
463,610.2153888110942
464,610.173661720078
465,610.1311313289754
466,610.0897932904495
467,610.0512721927398
468,610.0164940549299
469,609.9854454002362
470,609.9570772298423
471,609.9293868910952
472,609.8996727545282
473,609.864914565453
474,609.8222060942743
475,609.7691706802154
476,609.7043156098931
477,609.6273047045347
478,609.5391337272944
479,609.4421817420052
480,609.3400984838904
481,609.2374903445484
482,609.1393974739907
483,609.0506118544655
484,608.9749498831762
485,608.9146265043481
486,608.8698585372431
487,608.8387658790512
488,608.8175776912681
489,608.8011119123164
490,608.7834729536526
491,608.7588811354209
492,608.722508526871
493,608.6711800320618
494,608.6038251122612
495,608.5216155185776
496,608.4277728125162
497,608.3270777457636
498,608.2251688628992
499,608.127763215071
500,608.0399398975236
501,607.9655897711224
502,607.9070748063763
503,607.8650917534902
504,607.8387135833551
505,607.8255792395532
506,607.8222022304793
507,607.8243639792634
508,607.8275457392548
509,607.8273368185959
510,607.8197535645148
511,607.8014285988635
512,607.7696737337034
513,607.7224557749429
514,607.6583383771427
515,607.5764402014718
516,607.4764419661346
517,607.3586408726542
518,607.2240152189646
519,607.0742521602568
520,606.9117167958003
521,606.7393783277859
522,606.5607257145161
523,606.3796914873799
524,606.2005821336261
525,606.0280106212315
526,605.8668294796468
527,605.7220472731499
528,605.5986910492234
529,605.5015882559378
530,605.4350826288567
531,605.4027327180411
532,605.4070462025384
533,605.4492830734489
534,605.5293300474294
535,605.6456229676793
536,605.7950901250985
537,605.9731122831639
538,606.1735284357625
539,606.3887344231871
540,606.6099134625936
541,606.8274154070242
542,607.031283091634
543,607.2119112885189
544,607.3608010614734
545,607.4713288699091
546,607.5394008511839
547,607.5638450279599
548,607.5464356868116
549,607.4915350539751
550,607.4054329012865
551,607.2955211122099
552,607.1694482025079
553,607.0343797319739
554,606.8964631743239
555,606.7605561887609
556,606.63021809136
557,606.5079016212636
558,606.395244872712
559,606.2933623733883
560,606.2030583712723
561,606.1249235066174
562,606.0593231313314
563,606.0063258594053
564,605.9656311355551
565,605.9365320575495
566,605.9179211121302
567,605.9083390569372
568,605.9060786931537
569,605.9093596666355
570,605.9165698420484
571,605.9265318272626
572,605.938721886133
573,605.9533605118938
574,605.971319654339
575,605.9938488761977
576,606.0221873318635
577,606.0571646359776
578,606.0988847252163
579,606.146549789897
580,606.1984468542001
581,606.2520996552245
582,606.3045688018276
583,606.35284984393
584,606.3942856533275
585,606.4269039745002
586,606.4496166219416
587,606.4622506501911
588,606.4654100259589
589,606.4601981082046
590,606.4478734432232
591,606.4295470958408
592,606.406030351917
593,606.3778952187173
594,606.3457347460782
595,606.3105407071105
596,606.2740796087057
597,606.2391478087798
598,606.209607788607
599,606.1901404386335
600,606.185703035337
601,606.2007679536574
602,606.2385043923318
603,606.3001019965433
604,606.3843987337966
605,606.4878907559504
606,606.6051074926606
607,606.7292575983321
608,606.8530117967629
609,606.9692989018716
610,607.0720337185705
611,607.1567292128689
612,607.2209462811895
613,607.2645222882613
614,607.2895332052688
615,607.2999926636737
616,607.3013433918084
617,607.2998224239074
618,607.3017820945552
619,607.3130375552886
620,607.3382940675696
621,607.3806898023131
622,607.4414821908683
623,607.5199083198245
624,607.613250662344
625,607.7171245862361
626,607.825967089579
627,607.9336586561318
628,608.0341789189299
629,608.12219928195
630,608.1935431267603
631,608.2454771826907
632,608.2768264820598
633,608.2879284631478
634,608.2804557569492
635,608.2571417585993
636,608.2214456047258
637,608.177198468136
638,608.12827738293
639,608.0783475423921
640,608.0306925089566
641,607.9881216348697
642,607.952926094338
643,607.9268585811926
644,607.9111251585723
645,607.9063888094744
646,607.9127912199052
647,607.9300011001519
648,607.9572919662496
649,607.9936455457561
650,608.0378776893011
651,608.0887879413768
652,608.1453257636454
653,608.2067426916931
654,608.272682567289
655,608.3431711804873
656,608.4184936729206
657,608.4989745752209
658,608.5846965983077
659,608.6752096886553
660,608.7692867805611
661,608.8647760203295
662,608.9585827038956
663,609.0467922270201
664,609.1249303314577
665,609.1883557703209
666,609.2327789599392
667,609.2548770761122
668,609.25292974823
669,609.2273531598265
670,609.1809956504449
671,609.1190929607347
672,609.048857628614
673,608.9787661334545
674,608.9176760809696
675,608.8739269462963
676,608.8545447511035
677,608.8646103130311
678,608.9068080152007
679,608.9811724328629
680,609.0850724752536
681,609.2134697031883
682,609.3594400946089
683,609.5148888152944
684,609.6713548940852
685,609.8207984935996
686,609.9562679535229
687,610.0723552475056
688,610.1653824356355
689,610.2333227180824
690,610.2755293260238
691,610.2923922361139
692,610.2850416236295
693,610.2551689911097
694,610.2049709390451
695,610.137171322717
696,610.0550605623661
697,609.962498523551
698,609.8638437963559
699,609.763787244804
700,609.6670807811006
701,609.578169461551
702,609.5007604599442
703,609.4373905607752
704,609.3890710683512
705,609.355082642331
706,609.3329592810137
707,609.3186571376393
708,609.3068793081777
709,609.2915299563707
710,609.2662737284751
711,609.2251568247166
712,609.1632187417779
713,609.0770198074599
714,608.9650371591583
715,608.8279153575259
716,608.6685661891277
717,608.4920928766783
718,608.3054965735503
719,608.1171394350496
720,607.9359906065968
721,607.7707403551684
722,607.628904525639
723,607.5160484734253
724,607.43523771591
725,607.3867729647641
726,607.3682045878957
727,607.3745758462775
728,607.3988352768208
729,607.4323792784323
730,607.4657139036192
731,607.4892361866686
732,607.4941120779849
733,607.4731744825236
734,607.4217134177633
735,607.3380163746648
736,607.2235534548621
737,607.0827755219855
738,606.9225729460122
739,606.7514965520838
740,606.5788624715873
741,606.4138592577059
742,606.2647569887155
743,606.1382867320475
744,606.0392234248415
745,605.9701765995691
746,605.9315742502554
747,605.9218174202211
748,605.9375910366423
749,605.9743303625113
750,606.0268345203474
751,606.089974758808
752,606.1593919957049
753,606.2320568719304
754,606.3065855298962
755,606.3832462942003
756,606.463644878534
757,606.550137780198
758,606.6450821869021
759,606.7500647787867
760,606.8652543800906
761,606.9890015502783
762,607.1177643305924
763,607.2463733917416
764,607.3685776879247
765,607.4777607136249
766,607.567703124029
767,607.6332851653549
768,607.6710536718239
769,607.6796026471777
770,607.6597272126936
771,607.6143222984329
772,607.5480278158789
773,607.4666706354845
774,607.3766010647811
775,607.2840451050126
776,607.1945800372567
777,607.1127946054548
778,607.0421422918267
779,606.9849628765828
780,606.9426328938996
781,606.915792984035
782,606.9045879768654
783,606.9088593751007
784,606.9282587515933
785,606.9622947601583
786,607.0103619568139
787,607.0717999390105
788,607.1459908064336
789,607.232451067936
790,607.3308501196979
791,607.4409049065556
792,607.5621465946022
793,607.6936099879293
794,607.833541760294
795,607.9792435921963
796,608.1271500083902
797,608.2731881421739
798,608.4133914383276
799,608.5446603874035
800,608.6654992928444
801,608.7765325748496
802,608.8806397148636
803,608.9826393662124
804,609.0885635770128
805,609.204656596625
806,609.3362908779352
807,609.4870032935058
808,609.657815631351
809,609.846935872454
810,610.0498660624913
811,610.2598775748496
812,610.4687559467473
813,610.6676743196217
814,610.8480418307809
815,611.0021984403745
816,611.1238832518549
817,611.2084732666916
818,611.2530543783348
819,611.25641971124
820,611.2190685973059
821,611.1432136004299
822,611.0327442657635
823,610.8930884909995
824,610.7309457186168
825,610.5538986631764
826,610.3699289584507
827,610.1868882312752
828,610.012011028352
829,609.8515642428523
830,609.7106848920158
831,609.5933852939062
832,609.502646283933
833,609.4405053534923
834,609.4080774433355
835,609.4054956724294
836,609.4317967581459
837,609.4847907233551
838,609.560957465953
839,609.6554160045073
840,609.7620163374145
841,609.8735966941906
842,609.9824139968822
843,610.0806949671996
844,610.1612036973171
845,610.2177171401576
846,610.2453454605431
847,610.2406969573957
848,610.2019349388504
849,610.1287910764155
850,610.0225799725318
851,609.8862110334759
852,609.7241498451177
853,609.542277119103
854,609.3476256581629
855,609.148007655543
856,608.9515516884622
857,608.7661644887618
858,608.5989434560904
859,608.4555966353637
860,608.339956855037
861,608.2536789316898
862,608.1961701432024
863,608.1647406590745
864,608.1549115166496
865,608.1608093917644
866,608.1755981887848
867,608.1919185905781
868,608.2023180124809
869,608.1996658735095
870,608.1775654731997
871,608.1307735390988
872,608.055606383712
873,607.9502688903201
874,607.8150290968853
875,607.652192470466
876,607.4658840932565
877,607.2616868485431
878,607.0461904402582
879,606.8264932321048
880,606.6096900283395
881,606.4023818094873
882,606.2102555436275
883,606.0377971287022
884,605.8881969567874
885,605.763463630728
886,605.664689258679
887,605.5923512096056
888,605.5465256181859
889,605.5269363858389
890,605.5328476685556
891,605.5628818257675
892,605.6148706020067
893,605.6858223334199
894,605.772036564891
895,605.8693470291015
896,605.9734417670298
897,606.0802004849295
898,606.1860003168238
899,606.2879606642992
900,606.3841104832388
901,606.4734631639614
902,606.5559883401561
903,606.6324877939329
904,606.7044066620749
905,606.7736246447669
906,606.8422647025358
907,606.9125326375635
908,606.9865760467351
909,607.0663397196605
910,607.1533996951042
911,607.2487762221512
912,607.3527465855666
913,607.464688228106
914,607.5829786986134
915,607.7049720880921
916,607.8270694639907
917,607.9449034252866
