frame_number,force
0,585.0343600000489
1,585.0815455982164
2,585.1264851016376
3,585.1669634276502
4,585.2008349100759
5,585.2260680473664
6,585.2407954097143
7,585.2433787600826
8,585.2325035051242
9,585.2073000797872
10,585.1674627275777
11,585.1133208943121
12,585.0458304277704
13,584.9664855907488
14,584.8771846398818
15,584.7800915297626
16,584.6775266461383
17,584.5719046556051
18,584.4657245741591
19,584.3616042701133
20,584.2623350547367
21,584.1709117390085
22,584.0904827207114
23,584.0241847049638
24,583.974877510831
25,583.9448414899343
26,583.9355080547489
27,583.9472667170181
28,583.9793639617353
29,584.0298987366809
30,584.095914454563
31,584.1735788627147
32,584.2584411968321
33,584.3457626252822
34,584.4309108189641
35,584.5097806991345
36,584.5791681922069
37,584.6370082846969
38,584.6824057551077
39,584.7154354494211
40,584.7367575580523
41,584.7471597248714
42,584.7471710757504
43,584.7368699307065
44,584.7159317755563
45,584.6838738421552
46,584.640396563202
47,584.5857263810769
48,584.520906704627
49,584.4480141324307
50,584.370270036592
51,584.2919951222299
52,584.2183576453841
53,584.1549137809076
54,584.1070085526605
55,584.0791501930437
56,584.0744640843249
57,584.0942942675076
58,584.1379853078456
59,584.2028594711344
60,584.2843985799625
61,584.3766335556605
62,584.4727241052433
63,584.5656733291278
64,584.6490816976723
65,584.7178266591121
66,584.7685714467893
67,584.8000424756304
68,584.8130405491411
69,584.8101712391889
70,584.7953259869549
71,584.7730162708292
72,584.7477090316111
73,584.723295111386
74,584.7027612238327
75,584.6880749458592
76,584.6802562582253
77,584.6795904098773
78,584.6859178653634
79,584.6989158676007
80,584.7182808904004
81,584.7437526734167
82,584.7749840858439
83,584.8113216074369
84,584.8515864229828
85,584.8939368668512
86,584.9358684447803
87,584.9743738708034
88,585.0062390559834
89,585.0284055199637
90,585.0383124496607
91,585.0341517008552
92,585.0150072722489
93,584.9808816942907
94,584.932627271503
95,584.8718118374665
96,584.8005657298769
97,584.721463399472
98,584.6374653084418
99,584.5518915427458
100,584.468359461271
101,584.3906243410864
102,584.3223059847916
103,584.2665354843397
104,584.225590802584
105,584.2005990210267
106,584.191369456406
107,584.1963920999348
108,584.2129978070486
109,584.2376405318253
110,584.266238796954
111,584.2945104490628
112,584.3182528244549
113,584.3335544307262
114,584.3369594683361
115,584.3256248831684
116,584.2975019737593
117,584.2515450017743
118,584.1879127729056
119,584.1081055127848
120,584.0149805565699
121,583.9126141466767
122,583.8060150244762
123,583.7007418395259
124,583.6025159549964
125,583.5169234469502
126,583.4492443316421
127,583.4043604851774
128,583.3866368749826
129,583.3996806128314
130,583.4459488520002
131,583.5262618337396
132,583.6393390604119
133,583.7814896093857
134,583.9465581721918
135,584.1261803067039
136,584.3103506860207
137,584.4882584572522
138,584.6492899859817
139,584.7840514395774
140,584.8852515903611
141,584.9483269196709
142,584.9717631626104
143,584.9571254818497
144,584.9088322888581
145,584.8337080152614
146,584.7403504339908
147,584.6383591575485
148,584.5374896336242
149,584.4468104460601
150,584.3739437700729
151,584.3244601382579
152,584.3014822442221
153,584.3055310474491
154,584.3346269681762
155,584.3846433340702
156,584.4498919759551
157,584.5238913933208
158,584.6002251366413
159,584.6733577940334
160,584.7392644680795
161,584.7957623314428
162,584.8425004318455
163,584.8806428254269
164,584.9123476608137
165,584.9401831264996
166,584.9666216849986
167,584.9937202488646
168,585.0230337321543
169,585.0557341593687
170,585.0928412020273
171,585.1354422952259
172,585.1848045030649
173,585.2423412694117
174,585.3094607911996
175,585.3873557537144
176,585.4767860201866
177,585.5778754998464
178,585.6899228233463
179,585.8112274290652
180,585.9389484330345
181,586.0690289515252
182,586.1962289348235
183,586.3143081580399
184,586.4163739187807
185,586.4953596824104
186,586.5445659039472
187,586.5582017952793
188,586.5319015704798
189,586.4632037409519
190,586.351952793761
191,586.2005375879
192,586.0138734551581
193,585.7990912723842
194,585.5649886838916
195,585.3213633655603
196,585.0783441621071
197,584.8457808393822
198,584.6326967328586
199,584.4467831688352
200,584.2939233759979
201,584.1777647240162
202,584.0993960015918
203,584.0572143431842
204,584.0470653998937
205,584.0626980083689
206,584.0965020702533
207,584.1404296822238
208,584.1869607776996
209,584.2299629403653
210,584.265304509239
211,584.2911240490232
212,584.307742487103
213,584.3172923693413
214,584.3231819496891
215,584.3294935998924
216,584.3403686575879
217,584.3594045080106
218,584.3891060565229
219,584.4304681361085
220,584.4827739074508
221,584.5436572325311
222,584.6094138339731
223,584.6754907257796
224,584.7370560745085
225,584.7895565056257
226,584.8291986153116
227,584.853326421875
228,584.860688479369
229,584.8515947631598
230,584.8279571549482
231,584.7931923373948
232,584.751958655713
233,584.7097167535335
234,584.6721426311246
235,584.6444607581988
236,584.6307895181657
237,584.6335972617331
238,584.6533580953084
239,584.6884784694421
240,584.735533832143
241,584.7897960203838
242,584.8459553355218
243,584.8988868924063
244,584.9443129658753
245,584.9792618155186
246,585.0022805869013
247,585.0134020865983
248,585.0138976044401
249,585.0058815444049
250,584.9918640335356
251,584.97435724556
252,584.9556168414265
253,584.9375437781633
254,584.921699715009
255,584.9093356097475
256,584.9013410026917
257,584.8980947400678
258,584.8992782692036
259,584.9037385596389
260,584.9094569284191
261,584.9136342099388
262,584.9128745122401
263,584.9034442081579
264,584.8815918293694
265,584.8439262003376
266,584.787846863709
267,584.7119923970835
268,584.616633723866
269,584.50392071995
270,584.3779071398751
271,584.2443230543341
272,584.110115971624
273,583.9828252620669
274,583.8698827097177
275,583.7779443093299
276,583.7123509260126
277,583.6767810785535
278,583.6731024768416
279,583.7013749141154
280,583.7599357710013
281,583.8455198846613
282,583.9534067890093
283,584.077618044679
284,584.2111907319479
285,584.3465411380979
286,584.4759186307612
287,584.5919278849569
288,584.6880648070843
289,584.7591922806987
290,584.8018971557901
291,584.814702752307
292,584.7981341760443
293,584.7546420360638
294,584.6883911878274
295,584.604922272495
296,584.5107038020635
297,584.4126123115125
298,584.3173936007224
299,584.2311562719811
300,584.1589332632537
301,584.1043294162612
302,584.0692614578303
303,584.0537993263293
304,584.0561370701896
305,584.07273848478
306,584.0986879532574
307,584.1282259199619
308,584.155391309482
309,584.1746679545581
310,584.1815506237132
311,584.1729858175507
312,584.1476703948165
313,584.1061978541948
314,584.0510444598904
315,583.986398938937
316,583.9178522651745
317,583.8519633831271
318,583.7957037256958
319,583.7557814976071
320,583.7378833337578
321,583.745938397939
322,583.7815546533286
323,583.8437522287686
324,583.9290391994708
325,584.0317977878673
326,584.1449094518199
327,584.2605342785276
328,584.370950074608
329,584.4693476937111
330,584.5504828466768
331,584.6111053389233
332,584.6501213300523
333,584.6684892060425
334,584.6688980595657
335,584.6553133162276
336,584.6324788687608
337,584.6054386466504
338,584.5791043429115
339,584.5578737842498
340,584.545301646568
341,584.5438303876781
342,584.5545944291296
343,584.5773133131523
344,584.610290967549
345,584.6505366491847
346,584.694016477294
347,584.736029844481
348,584.77167836779
349,584.7963635252735
350,584.8062345636449
351,584.7985225050531
352,584.7717257011664
353,584.7256418966209
354,584.6612721035391
355,584.5806500696228
356,584.4866585649014
357,584.3828701108434
358,584.2734102067178
359,584.1628090827412
360,584.0558041891532
361,583.9570899155686
362,583.8710594768647
363,583.8015959049632
364,583.7519252935024
365,583.7244882457671
366,583.720771344117
367,583.7410819839532
368,583.7843168731034
369,583.8478240463858
370,583.927455414615
371,584.0178473932641
372,584.112887596583
373,584.2062730713548
374,584.2920605610428
375,584.365139154095
376,584.4215922755909
377,584.4589393404665
378,584.4762547263039
379,584.474159842432
380,584.4546841763712
381,584.4210041283035
382,584.3770930554199
383,584.3273381620495
384,584.2761862953637
385,584.2278671718384
386,584.1862122679369
387,584.1545497868018
388,584.1356277831393
389,584.1315182208812
390,584.1434887310694
391,584.1718727103756
392,584.2159896642826
393,584.2741589690467
394,584.3438286186496
395,584.4218156287534
396,584.5046247227981
397,584.5887869550635
398,584.6711568005953
399,584.7491227648939
400,584.8207066447208
401,584.8845436689776
402,584.9397564858724
403,584.9857655013268
404,585.0221058557818
405,585.0483228019117
406,585.0639764983771
407,585.068719944467
408,585.0623643425371
409,585.0448551334349
410,585.0161502050073
411,584.9760775296887
412,584.9242987782662
413,584.8604854751154
414,584.7847292328873
415,584.6980939920782
416,584.603127094351
417,584.504123766722
418,584.4070044250274
419,584.3187865981513
420,584.2467505303747
421,584.197463966329
422,584.1758510888415
423,584.1844887361176
424,584.2232871702226
425,584.2896335830583
426,584.3789443943928
427,584.4854470338604
428,584.6029674616688
429,584.7255553915585
430,584.8478875680952
431,584.9654844851636
432,585.0748182083563
433,585.1733744728939
434,585.2596835269685
435,585.3332915817863
436,585.3946442412425
437,585.4448919210344
438,585.4856624999804
439,585.5188451166415
440,585.5464003359795
441,585.5701862697339
442,585.5917886992257
443,585.6123678525603
444,585.632564684334
445,585.6525111606578
446,585.6719480823871
447,585.690399462583
448,585.7073299923675
449,585.7222348306515
450,585.7346518134758
451,585.7441153009519
452,585.7500813401007
453,585.7518541672322
454,585.7485438094895
455,585.7390855460179
456,585.7223448878376
457,585.6973047950572
458,585.6632893861893
459,585.620146474539
460,585.568317714446
461,585.5087726540269
462,585.4428429732526
463,585.3720274899243
464,585.2978336488221
465,585.2216961826771
466,585.1449846685838
467,585.0690729100113
468,584.995401862236
469,584.9254613621617
470,584.8606622511327
471,584.8021355249515
472,584.7505315229735
473,584.7058873121392
474,584.6676038797349
475,584.634545438442
476,584.6052441680074
477,584.5781662373158
478,584.5519808313993
479,584.5257837317213
480,584.4992524069434
481,584.4727274754177
482,584.4472112528316
483,584.4242595708931
484,584.4057474255958
485,584.3935279642521
486,584.3890579392412
487,584.3930907593767
488,584.4055179720597
489,584.4253866261238
490,584.4510708441401
491,584.4805541415586
492,584.5117732040472
493,584.542961281105
494,584.5729122430687
495,584.6010883001609
496,584.6275291412525
497,584.6525800160662
498,584.6765198937989
499,584.6992111152412
500,584.7198881694708
501,584.7371553405819
502,584.7491893789003
503,584.7540706924426
504,584.7501240980683
505,584.7361566514458
506,584.711527865547
507,584.6760497751777
508,584.6297677156715
509,584.5727064423522
510,584.5046745687755
511,584.4252023457374
512,584.3336506521597
513,584.2294813676465
514,584.1126289226006
515,583.9838766256636
516,583.8451418402533
517,583.6996133795885
518,583.5517306420168
519,583.4070105779981
520,583.2717192596695
521,583.1523880606354
522,583.0552097408884
523,582.9853943246404
524,582.9465853791868
525,582.9404234674836
526,582.9663118321254
527,583.0214147092763
528,583.1009031953997
529,583.1984339754665
530,583.306793328087
531,583.4185910585112
532,583.5268825546428
533,583.6256385109515
534,583.710045731403
535,583.7766719579956
536,583.8235376195918
537,583.8501128337872
538,583.8572315817177
539,583.8469161659036
540,583.822129694892
541,583.7864926187563
542,583.7439961369836
543,583.6987364691767
544,583.6546951556084
545,583.6155904344375
546,583.5848039308245
547,583.5653493619446
548,583.5598219953871
549,583.5702725023401
550,583.5979881110691
551,583.6432156338725
552,583.7048971275462
553,583.7804997494918
554,583.866014404909
555,583.9561752109743
556,584.0449054659935
557,584.1259307150458
558,584.1934453212566
559,584.2427058809451
560,584.2704550990677
561,584.2751301316059
562,584.2568571591991
563,584.2172719579809
564,584.1592317662709
565,584.0864877168809
566,584.0033685966996
567,583.914503978706
568,583.8246020581373
569,583.7382862661208
570,583.6599757645184
571,583.5937775712838
572,583.5433544393513
573,583.5117443009838
574,583.5011305088743
575,583.512591176135
576,583.5458805906311
577,583.5993043921179
578,583.6697370302418
579,583.7528031286521
580,583.8432219498262
581,583.9353042862687
582,584.0235789700514
583,584.1034916246081
584,584.1720674956694
585,584.2283956383143
586,584.2737985994362
587,584.3116012513193
588,584.3464941178238
589,584.3835858527553
590,584.42733067204
591,584.480561548215
592,584.5438310960991
593,584.6151713294396
594,584.6902795839275
595,584.7630653933796
596,584.8264593830928
597,584.8733701130001
598,584.8976634891833
599,584.8950366778278
600,584.8636718209391
601,584.8045799580403
602,584.7215798362013
603,584.6209090777078
604,584.5105354594032
605,584.3992956020319
606,584.296006759437
607,584.208672016532
608,584.1438512049033
609,584.1062262983324
610,584.0983702774216
611,584.120727755451
612,584.1718056415779
613,584.2485356574072
614,584.3467291172308
615,584.4615333003367
616,584.5878240119342
617,584.72050684213
618,584.8547309245524
619,584.9860416095851
620,585.1105097254996
621,585.224865590008
622,585.3266344018036
623,585.4142316404887
624,585.486959802331
625,585.5448723302817
626,585.5885282337166
627,585.6187140470103
628,585.6362248795277
629,585.6417684867171
630,585.6360040158792
631,585.6196766209393
632,585.5937835190358
633,585.5597149486609
634,585.5193414075926
635,585.4750408428458
636,585.4296639570629
637,585.3864352891482
638,585.3487969546873
639,585.3202124375279
640,585.3039441320833
641,585.3028090439095
642,585.3189243199566
643,585.3534775495333
644,585.4065712582001
645,585.4771819175876
646,585.5632513935926
647,585.6619053117572
648,585.769764942753
649,585.8832855724824
650,585.9990346531215
651,586.1138412732895
652,586.2248019760577
653,586.3291851924753
654,586.424306515835
655,586.5074455789363
656,586.5758581328474
657,586.626911672504
658,586.6583338236641
659,586.6685159944304
660,586.6567885307882
661,586.6235963832629
662,586.5705402971281
663,586.5002804975812
664,586.416322444134
665,586.3227282760494
666,586.2238197256745
667,586.1239354921727
668,586.0272658063857
669,585.9377297804219
670,585.85882529599
671,585.7933918024883
672,585.7432792045256
673,585.7089827220294
674,585.6893511443091
675,585.6814808316865
676,585.6808642987471
677,585.6817903234999
678,585.6779309286042
679,585.6630266777028
680,585.6315878335693
681,585.5795350729104
682,585.5046975922858
683,585.4070899680603
684,585.2889219288135
685,585.1543434397847
686,585.0089653438323
687,584.8592204761081
688,584.7116541711134
689,584.57225681674
690,584.4459594108826
691,584.3363888879296
692,584.2459163852352
693,584.1759414924569
694,584.1272725411784
695,584.1004249470151
696,584.0956874585651
697,584.1128959156925
698,584.1509767567222
699,584.2074290704402
700,584.2779569509281
701,584.3564257771786
702,584.4352166019798
703,584.505932064345
704,584.5603083673291
705,584.5911473876558
706,584.5931112471152
707,584.5632872325584
708,584.501485646237
709,584.4102602802201
710,584.2946627041523
711,584.161774817629
712,584.0200928961549
713,583.8788375131404
714,583.747242411765
715,583.6338533729026
716,583.5458562912804
717,583.4884565331012
718,583.4643567699045
719,583.4734201035682
720,583.5126242226027
721,583.5763767043122
722,583.6571762389702
723,583.7465123848266
724,583.8358440469282
725,583.9175021879296
726,583.9854094378369
727,584.0355690584241
728,584.0663258752217
729,584.0784269519669
730,584.0748996304128
731,584.0607320424792
732,584.0423287991802
733,584.0267534554631
734,584.0208395626983
735,584.030304521326
736,584.05900791309
737,584.1084673797982
738,584.1776987234645
739,584.263389933909
740,584.3603575713094
741,584.4621852974059
742,584.5619243284069
743,584.652745910681
744,584.728467708047
745,584.7839195160241
746,584.8151614366285
747,584.8196073617071
748,584.7961182529509
749,584.7451024508257
750,584.6686115931553
751,584.5703840451098
752,584.4557813509123
753,584.3315807504646
754,584.2056114563837
755,584.0862426622855
756,583.9817494806583
757,583.8996094640368
758,583.8458137456827
759,583.8242913303548
760,583.8365306530679
761,583.8814516939625
762,583.9555469670232
763,584.0532683937885
764,584.1675926939754
765,584.2906689286729
766,584.4144534483102
767,584.5312661673892
768,584.6342395575601
769,584.7176590389503
770,584.777202287769
771,584.810080958877
772,584.8150841129678
773,584.7925249441547
774,584.7440976991024
775,584.6726572655799
776,584.5819436325901
777,584.476285752435
778,584.3603224923711
779,584.2387662587194
780,584.1162149584407
781,583.9970004311886
782,583.8850552925559
783,583.7837921217481
784,583.6960106822182
785,583.6238570167453
786,583.5688411131468
787,583.5318928674627
788,583.5134232537489
789,583.51336536723
790,583.5311872141586
791,583.5658859002831
792,583.6159899664337
793,583.6796053607028
794,583.7545266090307
795,583.8383989974429
796,583.9288839353869
797,584.0237730492763
798,584.1210208662538
799,584.2187049266955
800,584.3149520080549
801,584.4078720125323
802,584.4955181461401
803,584.5758646570595
804,584.6467868578901
805,584.7060525296974
806,584.7513722698519
807,584.7805696176372
808,584.7918927890522
809,584.7844186332654
810,584.7584456646717
811,584.715766803232
812,584.6597466010877
813,584.5951754662917
814,584.5279107499828
815,584.464336678209
816,584.4106949690179
817,584.3723647912299
818,584.3531931141873
819,584.3549719735192
820,584.377124460778
821,584.4166262924555
822,584.4681830744802
823,584.5246899741119
824,584.5779788327228
825,584.6197921016617
826,584.6428436334965
827,584.6417823540249
828,584.6138925826323
829,584.5594305976852
830,584.4815770827003
831,584.3860520783528
832,584.2804778810972
833,584.1735831415237
834,584.0743325564763
835,583.9910608049372
836,583.9306908270266
837,583.8981152307152
838,583.8958072845271
839,583.9237014156387
840,583.9793437082249
841,584.0582727684261
842,584.1545690866178
843,584.2615096242994
844,584.3722636164515
845,584.4805505919567
846,584.5811666860999
847,584.6702966897387
848,584.7455768590464
849,584.8059421898455
850,584.8513470209817
851,584.8824594219878
852,584.9004009978462
853,584.9065618784438
854,584.9024841828068
855,584.8897800964464
856,584.8700401165084
857,584.8447046803162
858,584.8149134134533
859,584.7813794894611
860,584.7443340172415
861,584.7035585689713
862,584.6585075541169
863,584.6085235701453
864,584.5531431928207
865,584.4924603511779
866,584.4274700113241
867,584.3602840231878
868,584.2941192080357
869,584.2330097262017
870,584.1812714047061
871,584.142817083911
872,584.1204668927376
873,584.1154023073522
874,584.1268790109687
875,584.1522561857971
876,584.1873363042106
877,584.2269531696929
878,584.2657080488121
879,584.2987387508947
880,584.3224084410682
881,584.3348121138908
882,584.3360203651816
883,584.3280187477873
884,584.3143537559667
885,584.2995487329191
886,584.2883917656094
887,584.2852170331165
888,584.2932954283086
889,584.3144190566044
890,584.3487207595259
891,584.3947284279855
892,584.4496172722745
893,584.5095949863621
894,584.5703472895751
895,584.62748764357
896,584.6769764020086
897,584.7154804795355
898,584.7406385718842
899,584.7512017497135
900,584.7470423173938
901,584.7290461742544
902,584.6989115740076
903,584.6588805867074
904,584.6114402105267
905,584.5590422377261
906,584.5038935987299
907,584.4478546167991
908,584.3924501773606
909,584.3389634674284
910,584.2885672217782
911,584.2424562100448
912,584.2019568461909
913,584.1685897680786
914,584.1440532346537
915,584.1300973831783
916,584.1282893934682
917,584.1397227495738
