frame_number,force
0,692.9040774585807
1,692.8915487991779
2,692.8801118605303
3,692.8697462250811
4,692.8604374979685
5,692.8521772121253
6,692.8449625656345
7,692.8387960069848
8,692.833684693736
9,692.829639858497
10,692.8266761183763
11,692.8248107580426
12,692.8240630046747
13,692.8244533007652
14,692.8260025717072
15,692.8287314800289
16,692.8326596572607
17,692.8378049081954
18,692.8441823889176
19,692.8518037658026
20,692.8606763662162
21,692.8708023347351
22,692.8821778131165
23,692.8947921673148
24,692.9086272885667
25,692.9236569964584
26,692.9398465693018
27,692.9571524203584
28,692.9755219271124
29,692.9948934072639
30,693.0151962245823
31,693.0363510046722
32,693.058269945596
33,693.0808572175195
34,693.1040094535432
35,693.1276163367173
36,693.1515612855451
37,693.1757222341487
38,693.1999724968133
39,693.2241817035248
40,693.2482167958291
41,693.2719430797492
42,693.2952253406738
43,693.3179290301431
44,693.3399215333621
45,693.3610735170139
46,693.3812603401357
47,693.4003634918582
48,693.4182720069456
49,693.4348838088928
50,693.4501069400613
51,693.4638606536531
52,693.4760763569737
53,693.4866984043807
54,693.4956847398206
55,693.5030073858101
56,693.5086527721164
57,693.5126218938519
58,693.5149302840473
59,693.5156077822654
60,693.5146980836973
61,693.5122580644869
62,693.5083568948535
63,693.5030749660275
64,693.4965026661281
65,693.4887390425818
66,693.4798903862073
67,693.4700687683999
68,693.4593905598925
69,693.4479749560089
70,693.4359425274727
71,693.4234138087909
72,693.4105079312293
73,693.3973413066069
74,693.3840263707066
75,693.3706703986562
76,693.3573744073375
77,693.3442321599797
78,693.3313292847832
79,693.3187425157109
80,693.3065390642943
81,693.2947761358466
82,693.2835006054547
83,693.2727488643527
84,693.2625468388464
85,693.252910178074
86,693.2438446057404
87,693.235346430212
88,693.2274032010937
89,693.2199944884759
90,693.2130927494358
91,693.2066642409774
92,693.2006699414243
93,693.1950664528472
94,693.1898068729057
95,693.1848416397859
96,693.1801193624252
97,693.1755876487188
98,693.1711939412378
99,693.1668863669056
100,693.1626146037697
101,693.1583307630764
102,693.1539902786784
103,693.1495527899563
104,693.1449830003363
105,693.1402514919886
106,693.1353354782257
107,693.1302194772634
108,693.1248958933144
109,693.1193654939582
110,693.1136377766471
111,693.1077312202569
112,693.1016734182803
113,693.0955010895777
114,693.0892599613527
115,693.083004516479
116,693.0767975937418
117,693.0707098269232
118,693.0648189094316
119,693.0592086774709
120,693.0539680166155
121,693.0491896107601
122,693.0449685647028
123,693.041400940581
124,693.0385822542471
125,693.0366059794092
126,693.0355621031194
127,693.0355357663998
128,693.0366060125215
129,693.0388446580143
130,693.042315300201
131,693.0470724777335
132,693.0531610026914
133,693.0606154808426
134,693.0694600301717
135,693.0797081987324
136,693.091363073459
137,693.1044175624946
138,693.1188548253468
139,693.1346488196842
140,693.1517649325784
141,693.1701606664835
142,693.1897863541078
143,693.2105858816484
144,693.2324974084411
145,693.2554540833702
146,693.2793847717303
147,693.3042148154373
148,693.3298668495339
149,693.3562616884261
150,693.3833192819325
151,693.410959731338
152,693.4391043516855
153,693.4676767645667
154,693.4966040002273
155,693.5258175779875
156,693.555254524006
157,693.5848582799875
158,693.6145794575792
159,693.6443763999841
160,693.6742155216541
161,693.7040714058427
162,693.7339266481589
163,693.7637714440261
164,693.7936029298002
165,693.8234242990743
166,693.8532437245865
167,693.8830731223092
168,693.9129268009314
169,693.942820048224
170,693.9727677122208
171,694.0027828359782
172,694.0328754001061
173,694.0630512188928
174,694.0933110236185
175,694.1236497509807
176,694.154056038517
177,694.1845119165667
178,694.2149926799472
179,694.245466922015
180,694.2758967171924
181,694.3062379423842
182,694.3364407304764
183,694.3664500495264
184,694.3962063999799
185,694.4256466197807
186,694.4547047835904
187,694.4833131779305
188,694.5114033300747
189,694.5389070669222
190,694.565757582985
191,694.5918905037444
192,694.6172449384053
193,694.6417645211901
194,694.6653984419637
195,694.688102464624
196,694.709839925103
197,694.7305826931635
198,694.7503120778733
199,694.7690196560162
200,694.7867080018723
201,694.8033912929004
202,694.8190957603263
203,694.8338599505202
204,694.8477347644928
205,694.8607832479225
206,694.8730801117824
207,694.8847109740458
208,694.8957713248684
209,694.906365227533
210,694.9166037735364
211,694.9266033148267
212,694.9364835024375
213,694.9463651690716
214,694.9563681019046
215,694.9666087593523
216,694.9771979909013
217,694.9882388209639
218,694.999824354002
219,695.0120358490061
220,695.0249410001394
221,695.0385924501823
222,695.0530265554082
223,695.0682624146838
224,695.0843011714767
225,695.1011255943957
226,695.1186999399922
227,695.1369701016849
228,695.1558640504811
229,695.1752925740973
230,695.1951503179371
231,695.2153171223852
232,695.2356596368527
233,695.2560331761492
234,695.2762837742581
235,695.2962503858269
236,695.3157671841075
237,695.3346659043337
238,695.3527781843668
239,695.3699378589638
240,695.3859831677872
241,695.4007588401328
242,695.4141180237378
243,695.425924032896
244,695.4360519022428
245,695.4443897442463
246,695.4508399174024
247,695.455320018091
248,695.4577637133291
249,695.4581214326597
250,695.4563609320805
251,695.4524677322127
252,695.4464454212456
253,695.4383158034391
254,695.4281188670363
255,695.4159125429414
256,695.4017722295235
257,695.3857900695348
258,695.3680739793879
259,695.3487464443128
260,695.3279431017842
261,695.305811140354
262,695.2825075454365
263,695.2581972309994
264,695.2330511054179
265,695.2072441259941
266,695.1809533952166
267,695.1543563414394
268,695.1276290098168
269,695.1009444713507
270,695.0744713450217
271,695.048372424293
272,695.0228034035406
273,694.9979117063374
274,694.973835421121
275,694.9507023508532
276,694.928629184778
277,694.9077208027487
278,694.8880697229598
279,694.8697557009503
280,694.8528454847802
281,694.8373927318279
282,694.823438094722
283,694.8110094812574
284,694.8001224824974
285,694.7907809483572
286,694.7829776775899
287,694.7766951826774
288,694.7719064888317
289,694.768575928122
290,694.7666598935183
291,694.7661075234174
292,694.7668612959918
293,694.7688575248349
294,694.7720267608992
295,694.776294117505
296,694.7815795432728
297,694.7877980720635
298,694.7948600797448
299,694.8026715748335
300,694.8111345439639
301,694.8201473645119
302,694.8296052870112
303,694.8394009811574
304,694.8494251335331
305,694.8595670841246
306,694.8697154912807
307,694.8797590188028
308,694.8895870435002
309,694.8990903873066
310,694.90816208374
311,694.9166981901022
312,694.9245986508366
313,694.9317682050549
314,694.9381173176588
315,694.9435631040666
316,694.9480302162443
317,694.9514516623416
318,694.9537695407955
319,694.9549356786373
320,694.9549121707337
321,694.9536718205035
322,694.9511984819222
323,694.9474872982174
324,694.9425448286013
325,694.9363890538854
326,694.9290492540737
327,694.9205657538025
328,694.9109895332198
329,694.9003817010323
330,694.8888128225846
331,694.876362091544
332,694.8631163328438
333,694.8491688286068
334,694.8346179661265
335,694.8195657146675
336,694.8041159453962
337,694.7883726183578
338,694.7724378730684
339,694.7564100723522
340,694.7403818581411
341,694.7244382799737
342,694.7086550523077
343,694.6930969891847
344,694.6778166579713
345,694.6628532886309
346,694.6482319702292
347,694.6339631610545
348,694.6200425318748
349,694.6064511524648
350,694.5931560192815
351,694.5801109083582
352,694.5672575252918
353,694.5545269159153
354,694.5418410955266
355,694.5291148490429
356,694.5162576504787
357,694.5031756508007
358,694.489773688137
359,694.4759572798924
360,694.461634560815
361,694.4467181368361
362,694.4311268346713
363,694.4147873405294
364,694.3976357320942
365,694.3796189113032
366,694.3606959416206
367,694.3408392856187
368,694.3200359285606
369,694.2982883628463
370,694.2756153999845
371,694.2520527741602
372,694.2276535040764
373,694.2024879849885
374,694.1766437892461
375,694.1502251619761
376,694.1233522093598
377,694.0961597886578
378,694.0687961190764
379,694.0414211397228
380,694.0142046466501
381,693.9873242477022
382,693.960963181708
383,693.9353080547078
384,693.9105465471788
385,693.8868651416524
386,693.8644469105395
387,693.8434693919321
388,693.8241025708355
389,693.806506978854
390,693.7908319275914
391,693.7772138966363
392,693.7657751014344
393,693.7566222661832
394,693.7498456194209
395,693.7455181147998
396,693.7436948624888
397,693.7444127474598
398,693.7476902138721
399,693.7535272044806
400,693.7619052517492
401,693.772787718979
402,693.7861201864802
403,693.8018309726676
404,693.8198317760242
405,693.8400184240974
406,693.8622717206928
407,693.8864583890246
408,693.9124321126312
409,693.9400346756587
410,693.969097200639
411,693.9994414773871
412,694.0308813730975
413,694.0632243119592
414,694.0962728123142
415,694.1298260699818
416,694.1636815779171
417,694.197636774903
418,694.2314907180604
419,694.2650457735809
420,694.2981093172923
421,694.3304954336209
422,694.3620265996118
423,694.3925353385953
424,694.4218658231266
425,694.4498753976442
426,694.4764359797691
427,694.501435289949
428,694.5247778570712
429,694.546385754336
430,694.5661990324573
431,694.5841758317508
432,694.6002921678877
433,694.6145413972316
434,694.6269333773433
435,694.6374933477967
436,694.6462605671502
437,694.6532867530376
438,694.6586343803885
439,694.6623748938998
440,694.664586884928
441,694.6653542753645
442,694.6647645484927
443,694.66290706968
444,694.6598715414809
445,694.6557466333247
446,694.6506188167393
447,694.6445714258507
448,694.6376839502789
449,694.6300315541947
450,694.6216848038862
451,694.6127095794542
452,694.6031671448758
453,694.5931143534332
454,694.5826039700379
455,694.5716850945295
456,694.5604036671529
457,694.548803029395
458,694.5369245044536
459,694.5248079566045
460,694.5124922898036
461,694.5000158518117
462,694.4874167176962
463,694.4747328334823
464,694.4620020071143
465,694.4492617406712
466,694.4365489050617
467,694.4238992658467
468,694.4113468763754
469,694.398923362715
470,694.386657134527
471,694.3745725655695
472,694.3626891933135
473,694.3510209863535
474,694.339575720364
475,694.3283544905291
476,694.3173513751146
477,694.3065532554152
478,694.2959397928258
479,694.2854835626005
480,694.2751503439043
481,694.2648995655082
482,694.2546849048948
483,694.2444550355896
484,694.2341545143372
485,694.2237247973195
486,694.213105372954
487,694.2022349974188
488,694.1910530171774
489,694.1795007592282
490,694.1675229638475
491,694.1550692269225
492,694.1420954108925
493,694.1285649764033
494,694.1144501843041
495,694.0997331237912
496,694.0844065375267
497,694.0684744326807
498,694.0519524813185
499,694.0348682216603
500,694.017261074189
501,693.9991821850498
502,693.9806941056402
503,693.9618703133674
504,693.9427945751685
505,693.923560153576
506,693.9042688566191
507,693.8850299392577
508,693.8659588748137
509,693.8471760258457
510,693.8288052491316
511,693.8109724661198
512,693.793804221637
513,693.7774262457807
514,693.7619620303778
515,693.7475314324164
516,693.7342493211075
517,693.722224290025
518,693.7115574574707
519,693.7023413757285
520,693.6946590661399
521,693.6885831943362
522,693.6841753967018
523,693.6814857628173
524,693.6805524704006
525,693.681401561721
526,693.6840468436468
527,693.688489886838
528,693.6947200956586
529,693.7027148230893
530,693.7124395144115
531,693.7238478755485
532,693.7368820726861
533,693.7514729770824
534,693.7675404709815
535,693.7849938265425
536,693.8037321631501
537,693.823644984608
538,693.8446127974872
539,693.8665078119659
540,693.889194725569
541,693.9125315910386
542,693.9363707727421
543,693.9605599972714
544,693.9849434997964
545,694.0093632599237
546,694.0336603126335
547,694.0576761132412
548,694.081253931849
549,694.1042402542653
550,694.1264861724534
551,694.1478487542015
552,694.1681923847829
553,694.1873900725755
554,694.2053247084528
555,694.2218902667811
556,694.2369929339716
557,694.2505521494401
558,694.2625015450484
559,694.2727897722982
560,694.281381209143
561,694.2882565381392
562,694.2934131843921
563,694.2968655965117
564,694.2986453487532
565,694.2988010401762
566,694.2973979687007
567,694.2945175642219
568,694.2902565739279
569,694.2847260033999
570,694.2780498282107
571,694.2703635010121
572,694.2618122859592
573,694.2525494538346
574,694.242734368006
575,694.2325304864075
576,694.2221033008619
577,694.21161823302
578,694.2012385062673
579,694.1911230167286
580,694.181424235387
581,694.1722861858608
582,694.1638425532402
583,694.1562149818591
584,694.1495116107816
585,694.1438258787753
586,694.1392356137965
587,694.1358024118656
588,694.1335713065668
589,694.1325707284467
590,694.1328127498141
591,694.1342936054723
592,694.1369944755635
593,694.1408825129862
594,694.14591209343
595,694.1520262595956
596,694.159158322853
597,694.1672335782199
598,694.1761710859529
599,694.1858854766983
600,694.1962887447513
601,694.20729200176
602,694.2188071690307
603,694.2307485898684
604,694.2430345434732
605,694.2555886390463
606,694.268341066221
607,694.2812296795838
608,694.2942009008634
609,694.3072104285891
610,694.3202237483364
611,694.3332164366111
612,694.3461742508312
613,694.3590930009186
614,694.371978206222
615,694.384844552401
616,694.3977151731908
617,694.4106207897961
618,694.4235987449587
619,694.4366919686933
620,694.4499479086314
621,694.463417451362
622,694.4771538538353
623,694.491211697914
624,694.5056458780115
625,694.5205106307748
626,694.5358586153588
627,694.5517400528763
628,694.5682019345478
629,694.5852873087975
630,694.6030346559978
631,694.6214773555034
632,694.6406432452769
633,694.6605542718673
634,694.6812262267372
635,694.7026685607883
636,694.7248842616791
637,694.7478697718692
638,694.7716149232768
639,694.7961028671539
640,694.8213099830349
641,694.847205756583
642,694.8737526217956
643,694.9009057683276
644,694.9286129206617
645,694.9568141029409
646,694.985441410242
647,695.0144188123735
648,695.0436620191202
649,695.073078435443
650,695.1025672310549
651,695.1320195425444
652,695.1613188204225
653,695.1903413288018
654,695.2189567999526
655,695.24702923819
656,695.2744178599823
657,695.3009781550867
658,695.3265630578385
659,695.3510242222998
660,695.3742133930914
661,695.3959838550821
662,695.4161919351201
663,695.4346985239747
664,695.4513705884428
665,695.466082648034
666,695.4787181927586
667,695.4891710180198
668,695.4973464526818
669,695.5031624591087
670,695.5065505887701
671,695.5074567821559
672,695.505842005643
673,695.5016827203144
674,695.4949711791566
675,695.4857155491561
676,695.4739398524551
677,695.4596837170138
678,695.4430019255922
679,695.4239637545085
680,695.4026521004039
681,695.3791624033103
682,695.3536013866151
683,695.3260856465765
684,695.2967401325159
685,695.2656965618861
686,695.2330918131587
687,695.1990663368645
688,695.163762623802
689,695.1273237698027
690,695.0898921759479
691,695.0516084178546
692,695.012610305693
693,694.973032139964
694,694.933004151706
695,694.892652104901
696,694.8520970350553
697,694.8114550977216
698,694.7708375003131
699,694.730350491186
700,694.6900953850545
701,694.6501686126086
702,694.6106617898961
703,694.5716618063957
704,694.5332509311883
705,694.4955069373033
706,694.4585032450741
707,694.4223090832762
708,694.3869896612856
709,694.3526063403616
710,694.3192167918168
711,694.2868751341559
712,694.2556320458501
713,694.2255348517874
714,694.1966275812531
715,694.1689509979203
716,694.1425426093009
717,694.1174366715837
718,694.0936642115671
719,694.0712530875421
720,694.0502281050448
721,694.0306111937556
722,694.0124216424526
723,693.9956763830598
724,693.9803903136723
725,693.966576653485
726,693.9542473279208
727,693.9434133867857
728,693.9340854592242
729,693.9262742463147
730,693.919991046425
731,693.9152483001376
732,693.9120601298172
733,693.9104428339454
734,693.9104152816443
735,693.9119991448395
736,693.9152189094789
737,693.9201016226172
738,693.926676353489
739,693.9349733679
740,693.9450230330169
741,693.9568544837383
742,693.9704940930973
743,693.9859637970783
744,694.0032793276976
745,694.0224484084391
746,694.0434689665946
747,694.0663274193184
748,694.0909970924515
749,694.1174368305641
750,694.1455898510434
751,694.1753828831455
752,694.2067256157483
753,694.2395104595471
754,694.2736126170089
755,694.3088904503061
756,694.3451861414295
757,694.3823266434451
758,694.420124922926
759,694.4583814907418
760,694.4968862126896
761,694.5354203825419
762,694.573759028023
763,694.611673408082
764,694.6489336518581
765,694.6853114870474
766,694.7205830058673
767,694.7545314183527
768,694.7869497438838
769,694.8176433914942
770,694.8464325784096
771,694.8731545371162
772,694.8976654659481
773,694.9198421865234
774,694.9395834822573
775,694.9568111039213
776,694.9714704385744
777,694.9835308461192
778,694.9929856737209
779,694.9998519617046
780,695.0041698533765
781,695.0060017166533
782,695.005430982514
783,695.0025607077998
784,694.9975118769341
785,694.9904214665936
786,694.9814403078013
787,694.9707307888378
788,694.9584644464485
789,694.9448194914465
790,694.929978311277
791,694.9141249909452
792,694.8974428973089
793,694.8801123785543
794,694.8623086354104
795,694.8441998174765
796,694.8259453856884
797,694.8076947650608
798,694.7895862963557
799,694.7717464835702
800,694.754289525004
801,694.7373171083536
802,694.7209184449702
803,694.7051705139615
804,694.6901384813682
805,694.6758762542999
806,694.6624271291045
807,694.6498244986936
808,694.638092592964
809,694.627247230731
810,694.6172965591692
811,694.6082417512766
812,694.6000776293083
813,694.592793186664
814,694.5863719928957
815,694.580792481869
816,694.576028134611
817,694.5720475721695
818,694.5688145725554
819,694.5662880256111
820,694.5644218443512
821,694.5631648595127
822,694.5624607306908
823,694.5622479089135
824,694.5624596819542
825,694.5630243260013
826,694.5638653754594
827,694.5649020083307
828,694.5660495332075
829,694.5672199613895
830,694.5683226546007
831,694.56926504836
832,694.5699534551159
833,694.5702939482203
834,694.5701933221767
835,694.5695601207169
836,694.5683057230001
837,694.5663454783721
838,694.5635998802512
839,694.5599957684263
840,694.5554675451078
841,694.5499583838078
842,694.543421404016
843,694.5358207802503
844,694.5271327500191
845,694.5173464808772
846,694.5064647554543
847,694.4945044381897
848,694.4814966966868
849,694.4674869602027
850,694.4525346067333
851,694.436712379897
852,694.4201055482878
853,694.4028108323766
854,694.3849351356374
855,694.3665941254247
856,694.3479107129373
857,694.329013478321
858,694.3100350775395
859,694.291110656713
860,694.2723762923471
861,694.2539674741344
862,694.2360176485006
863,694.2186568413076
864,694.2020103746837
865,694.1861976872997
866,694.1713312619239
867,694.1575156590906
868,694.1448466511947
869,694.1334104492917
870,694.1232830173071
871,694.1145294739509
872,694.1072035879978
873,694.1013473758568
874,694.0969908115705
875,694.0941516593571
876,694.0928354388143
877,694.0930355336804
878,694.0947334550418
879,694.0978992666837
880,694.1024921734261
881,694.1084612646686
882,694.1157463975786
883,694.124279198714
884,694.1339841585209
885,694.1447797884227
886,694.1565798053165
887,694.1692943057567
888,694.1828308948867
889,694.197095743927
890,694.2119945618032
891,694.2274334766086
892,694.2433198279917
893,694.2595628716231
894,694.276074392845
895,694.292769221707
896,694.3095656395327
897,694.3263856692564
898,694.34315524709
899,694.3598042806065
900,694.3762666062307
901,694.3924798641883
902,694.4083853095887
903,694.4239275767965
904,694.4390544132648
905,694.4537163980873
906,694.4678666588964
907,694.4814606001654
908,694.4944556579256
909,694.5068110986755
910,694.5184878806805
911,694.5294485917073
912,694.5396574688264
913,694.5490804965356
914,694.55768557325
915,694.5654427351332
916,694.5723244282777
917,694.5783058204919
