frame_number,force
0,692.8920807042856
1,692.8794734062249
2,692.8681691396437
3,692.858152236554
4,692.8494091075611
5,692.8419281627462
6,692.8356996481011
7,692.8307154056794
8,692.8269685705216
9,692.8244532215829
10,692.8231640050507
11,692.8230957455427
12,692.8242430549184
13,692.826599942442
14,692.8301594256374
15,692.8349131387058
16,692.8408509349517
17,692.8479604814846
18,692.8562268476866
19,692.8656320917371
20,692.8761548511675
21,692.887769944863
22,692.9004479960138
23,692.9141550879093
24,692.9288524661963
25,692.9444963015529
26,692.9610375253515
27,692.978421747442
28,692.9965892595194
29,693.0154751207876
30,693.035009317351
31,693.0551169851229
32,693.0757186883046
33,693.0967307498678
34,693.1180656342691
35,693.1396323838923
36,693.1613371092903
37,693.1830835302019
38,693.2047735610695
39,693.2263079332
40,693.2475868469711
41,693.2685106510668
42,693.2889805496973
43,693.3088993411976
44,693.3281721908663
45,693.3467074363987
46,693.3644174160867
47,693.3812193007343
48,693.3970359040208
49,693.4117964455536
50,693.4254372457164
51,693.4379023390262
52,693.4491440000176
53,693.4591231801843
54,693.4678098554059
55,693.4751832819501
56,693.4812321575511
57,693.4859546825008
58,693.489358513588
59,693.4914606021777
60,693.4922869093049
61,693.4918719963482
62,693.490258497749
63,693.4874964894574
64,693.4836427713842
65,693.4787600834687
66,693.4729162738798
67,693.4661834361547
68,693.458637030711
69,693.4503550044919
70,693.4414169196816
71,693.4319030990066
72,693.4218937926964
73,693.4114683717778
74,693.4007045535959
75,693.389677667149
76,693.3784599670701
77,693.3671200050536
78,693.3557220658014
79,693.3443256726299
80,693.3329851680999
81,693.3217493771078
82,693.3106613606997
83,693.2997582663746
84,693.2890712763578
85,693.2786256522749
86,693.2684408739331
87,693.2585308693801
88,693.2489043301797
89,693.2395650998485
90,693.2305126175708
91,693.2217423965202
92,693.2132465173707
93,693.2050141226268
94,693.1970319050221
95,693.1892845906299
96,693.1817554214134
97,693.1744266421249
98,693.1672799948744
99,693.1602972231505
100,693.1534605854458
101,693.1467533762375
102,693.1401604490713
103,693.1336687336823
104,693.1272677371319
105,693.1209500182836
106,693.114711625478
107,693.1085524884182
108,693.1024767565139
109,693.0964930775041
110,693.0906148122269
111,693.0848601830215
112,693.079252353732
113,693.073819439086
114,693.0685944407508
115,693.0636151062729
116,693.0589237054999
117,693.054566717928
118,693.0505944249262
119,693.0470604039853
120,693.0440209280575
121,693.0415342800553
122,693.039659998671
123,693.0384580761457
124,693.0379881315406
125,693.0383085839662
126,693.039475848183
127,693.0415435702108
128,693.044561915079
129,693.0485769151946
130,693.0536298871593
131,693.0597569261386
132,693.0669884878573
133,693.0753490672791
134,693.0848569797764
135,693.0955242460985
136,693.1073565777474
137,693.1203534548398
138,693.1345082844065
139,693.1498086242925
140,693.1662364572287
141,693.1837685007647
142,693.202376540546
143,693.2220277769235
144,693.2426851789951
145,693.2643078461043
146,693.2868513832757
147,693.3102683014963
148,693.3345084537134
149,693.3595195127127
150,693.3852474904618
151,693.4116372936257
152,693.4386333079988
153,693.4661800036085
154,693.4942225495721
155,693.5227074229804
156,693.5515829912072
157,693.580800044395
158,693.6103122554428
159,693.6400765481571
160,693.6700533588182
161,693.7002067807963
162,693.7305045859713
163,693.7609181215105
164,693.79142208638
165,693.8219941977493
166,693.8526147618165
167,693.8832661666153
168,693.9139323176183
169,693.9445980410176
170,693.9752484827085
171,694.0058685314165
172,694.0364422921612
173,694.0669526321468
174,694.0973808151726
175,694.1277062329704
176,694.1579062340095
177,694.1879560442512
178,694.2178287711893
179,694.2474954822496
180,694.2769253502613
181,694.3060858608185
182,694.3349430776917
183,694.363461962636
184,694.3916067453173
185,694.4193413378716
186,694.4466297868379
187,694.4734367530666
188,694.4997280082922
189,694.5254709363115
190,694.5506350281827
191,694.575192364404
192,694.599118080909
193,694.6223908182967
194,694.64499315462
195,694.6669120210041
196,694.6881390962565
197,694.7086711729999
198,694.7285104858865
199,694.7476649922728
200,694.7661485954671
201,694.7839812988886
202,694.8011892769049
203,694.817804846722
204,694.8338663265346
205,694.8494177677493
206,694.8645085529498
207,694.8791928564634
208,694.8935289703039
209,694.9075785031721
210,694.9214054632292
211,694.9350752376549
212,694.9486534850661
213,694.9622049609287
214,694.9757923003282
215,694.9894747860657
216,695.0033071325937
217,695.0173383171144
218,695.0316104872254
219,695.0461579698774
220,695.0610064007285
221,695.0761719878215
222,695.0916609194009
223,695.1074689226156
224,695.1235809776227
225,695.1399711898767
226,695.1566028222245
227,695.1734284882473
228,695.1903905089346
229,695.2074214349897
230,695.2244447352946
231,695.2413756474324
232,695.2581221790941
233,695.2745862417274
234,695.2906648924691
235,695.3062516579109
236,695.3212379123381
237,695.3355142830882
238,695.348972056981
239,695.3615045639237
240,695.3730085155966
241,695.3833852785242
242,695.3925420630056
243,695.4003930132704
244,695.4068601897628
245,695.4118744402696
246,695.4153761611263
247,695.4173159528106
248,695.4176551765026
249,695.4163664188901
250,695.4134338700957
251,695.4088536146144
252,695.4026338296833
253,695.394794880996
254,695.3853693025493
255,695.3744016464584
256,695.3619481908079
257,695.3480764990734
258,695.3328648318889
259,695.3164014186862
260,695.2987836013169
261,695.2801168643246
262,695.2605137689084
263,695.2400928114481
264,695.2189772321858
265,695.1972938028794
266,695.175171621679
267,695.1527409385058
268,695.1301320260577
269,695.1074741028389
270,695.0848943083365
271,695.0625167286814
272,695.0404614731982
273,695.01884380533
274,694.9977733331203
275,694.9773532648738
276,694.9576797362428
277,694.9388412160142
278,694.9209179978996
279,694.9039817840152
280,694.8880953641101
281,694.8733123946711
282,694.8596772828434
283,694.8472251785896
284,694.835982073081
285,694.8259649938044
286,694.8171822805838
287,694.8096339233564
288,694.8033119416824
289,694.7982007866368
290,694.7942777473651
291,694.7915133472046
292,694.7898717183722
293,694.7893109499685
294,694.7897834104944
295,694.7912360516783
296,694.7936107042234
297,694.7968443780228
298,694.8008695796418
299,694.8056146584182
300,694.8110041894737
301,694.816959397655
302,694.8233986216438
303,694.8302378131335
304,694.837391063199
305,694.8447711474872
306,694.8522900831566
307,694.8598596925237
308,694.8673921707267
309,694.8748006576216
310,694.8819998170197
311,694.888906427287
312,694.8954399845373
313,694.9015233137379
314,694.9070831765553
315,694.9120508603428
316,694.9163627317165
317,694.9199607406067
318,694.9227928650536
319,694.9248134915497
320,694.9259837293528
321,694.9262716592481
322,694.9256525170781
323,694.9241088103844
324,694.9216303647031
325,694.9182142959778
326,694.9138649068144
327,694.9085935058031
328,694.902418150104
329,694.895363311185
330,694.8874594618
331,694.8787425802748
332,694.869253567767
333,694.8590375761896
334,694.8481432480918
335,694.8366218735379
336,694.8245264726775
337,694.811910817338
338,694.7988284110762
339,694.7853314534102
340,694.7714698182702
341,694.757290077552
342,694.7428345982277
343,694.728140737589
344,694.7132401576678
345,694.6981582771
346,694.6829138761649
347,694.6675188679085
348,694.651978244687
349,694.6362902046577
350,694.6204464565324
351,694.6044326939491
352,694.5882292246534
353,694.571811735445
354,694.5551521708776
355,694.5382197008628
356,694.5209817502498
357,694.5034050636742
358,694.4854567812903
359,694.467105503675
360,694.4483223263621
361,694.429081827286
362,694.4093629954187
363,694.3891500954711
364,694.3684334689044
365,694.3472102732516
366,694.3254851600101
367,694.3032708876693
368,694.2805888616672
369,694.2574695879692
370,694.2339530231749
371,694.210088803014
372,694.1859363326229
373,694.1615647247985
374,694.1370525758207
375,694.112487572759
376,694.0879659317334
377,694.0635916725696
378,694.039475740405
379,694.0157349885257
380,693.9924910397547
381,693.9698690471914
382,693.9479963791198
383,693.9270012560603
384,693.9070113687065
385,693.8881525033521
386,693.8705471968145
387,693.8543134370173
388,693.8395634203677
389,693.8264023748936
390,693.814927459159
391,693.8052267496524
392,693.7973783314189
393,693.791449506499
394,693.7874961309382
395,693.7855620835306
396,693.7856788609275
397,693.7878652890266
398,693.7921273417777
399,693.7984580630382
400,693.8068375906498
401,693.8172332824328
402,693.8295999419147
403,693.8438801388152
404,693.8600046171011
405,693.8778927832631
406,693.8974532696354
407,693.9185845705539
408,693.9411757508714
409,693.9651072260207
410,693.9902516108925
411,694.0164746323945
412,694.0436360986488
413,694.0715909167653
414,694.1001901508545
415,694.1292821121272
416,694.1587134736106
417,694.1883304031932
418,694.2179797097053
419,694.2475099965637
420,694.276772816166
421,694.3056238167957
422,694.3339238729437
423,694.361540189053
424,694.3883473643921
425,694.4142284024306
426,694.4390756426234
427,694.4627915881946
428,694.4852896027007
429,694.5064944516362
430,694.5263426718234
431,694.5447827586622
432,694.5617751680192
433,694.5772921352371
434,694.5913173187216
435,694.6038452804788
436,694.6148808214548
437,694.6244381951952
438,694.6325402275023
439,694.6392173705183
440,694.6445067169492
441,694.648450996598
442,694.6510975762858
443,694.6524974857821
444,694.6527044933279
445,694.6517742522948
446,694.6497635360902
447,694.6467295730021
448,694.6427294865516
449,694.637819840409
450,694.6320562813511
451,694.6254932704375
452,694.6181838918703
453,694.6101797303105
454,694.6015308095716
455,694.5922855867841
456,694.5824909946218
457,694.5721925201514
458,694.5614343043915
459,694.5502592440913
460,694.5387090776243
461,694.5268244396582
462,694.5146448728142
463,694.5022087877492
464,694.4895533660618
465,694.4767144035735
466,694.4637260949239
467,694.4506207638876
468,694.4374285473285
469,694.424177044599
470,694.4108909487514
471,694.3975916804245
472,694.384297047946
473,694.3710209566416
474,694.3577731863109
475,694.3445592494144
476,694.3313803358952
477,694.3182333458201
478,694.3051110087168
479,694.292002087807
480,694.2788916672638
481,694.2657615204306
482,694.2525905561027
483,694.2393553384925
484,694.2260306749089
485,694.2125902639971
486,694.1990073965824
487,694.1852557005143
488,694.1713099200414
489,694.157146718582
490,694.1427454909291
491,694.1280891672797
492,694.1131649876515
493,694.0979652220058
494,694.0824878103359
495,694.0667369001735
496,694.0507232664888
497,694.0344646080192
498,694.0179857213355
499,694.0013185581273
500,693.9845021725924
501,693.9675825652806
502,693.950612428215
503,693.9336507944039
504,693.9167625934059
505,693.9000181139197
506,693.8834923752927
507,693.8672644131519
508,693.8514164897895
509,693.8360332454527
510,693.8212008093706
511,693.8070058878398
512,693.7935348425931
513,693.7808727688957
514,693.7691025811243
515,693.7583041141152
516,693.7485532506436
517,693.7399210877209
518,693.7324731551832
519,693.726268698762
520,693.7213600379147
521,693.7177920073119
522,693.7156014891558
523,693.7148170402548
524,693.7154586135971
525,693.717537370285
526,693.7210555741722
527,693.7260065580804
528,693.7323747483314
529,693.7401357354323
530,693.7492563831622
531,693.7596949740041
532,693.7714013938825
533,693.7843173625027
534,693.7983767163385
535,693.8135057491328
536,693.8296236113661
537,693.846642768044
538,693.8644695138624
539,693.8830045446527
540,693.9021435834053
541,693.9217780594215
542,693.9417958405797
543,693.9620820192065
544,693.9825197499639
545,694.0029911342849
546,694.0233781418532
547,694.0435635563767
548,694.0634319312118
549,694.0828705411776
550,694.1017703199406
551,694.1200267756773
552,694.1375408793417
553,694.1542199196043
554,694.1699783176273
555,694.1847383940471
556,694.1984310798018
557,694.2109965621087
558,694.2223848577188
559,694.2325563073634
560,694.24148198682
561,694.2491440301962
562,694.2555358596849
563,694.2606623137245
564,694.2645396632864
565,694.2671955051007
566,694.2686685218733
567,694.2690081028392
568,694.2682738226064
569,694.266534781544
570,694.2638688165915
571,694.2603615965539
572,694.2561056194345
573,694.2511991302132
574,694.245744975986
575,694.2398494130231
576,694.233620878447
577,694.2271687382382
578,694.2206020232961
579,694.2140281670873
580,694.2075517626879
581,694.2012733630582
582,694.1952883535826
583,694.1896859269733
584,694.1845481860285
585,694.1799493912323
586,694.1759553618041
587,694.1726230336259
588,694.1700001754843
589,694.1681252638787
590,694.167027514574
591,694.1667270664228
592,694.1672353106184
593,694.16855535651
594,694.1706826227343
595,694.1736055390512
596,694.1773063400158
597,694.181761927842
598,694.1869447803941
599,694.1928238818936
600,694.1993656575373
601,694.2065348969448
602,694.2142956541262
603,694.2226121132287
604,694.2314494093391
605,694.2407743922221
606,694.2505563196594
607,694.2607674679143
608,694.2713836497572
609,694.2823846336267
610,694.2937544592297
611,694.3054816449797
612,694.3175592825239
613,694.3299850152531
614,694.3427609018712
615,694.3558931716086
616,694.3693918828715
617,694.383270501129
618,694.3975454141276
619,694.412235402669
620,694.4273610833849
621,694.4429443369042
622,694.45900773139
623,694.4755739486444
624,694.4926652185856
625,694.5103027675436
626,694.5285062857378
627,694.5472934194086
628,694.5666792936231
629,694.586676072183
630,694.60729256036
631,694.6285338542235
632,694.6504010382108
633,694.6728909313381
634,694.6959958815645
635,694.7197036057458
636,694.7439970690065
637,694.7688543940232
638,694.7942487896222
639,694.8201484893148
640,694.8465166928463
641,694.8733115066237
642,694.9004858815038
643,694.9279875488672
644,694.9557589586686
645,694.9837372264549
646,695.0118540995878
647,695.0400359553328
648,695.0682038446951
649,695.0962735955184
650,695.1241559861936
651,695.1517569981138
652,695.1789781520213
653,695.2057169309682
654,695.2318672898026
655,695.2573202471613
656,695.2819645521403
657,695.3056874166997
658,695.3283753068915
659,695.349914788177
660,695.3701934191336
661,695.3891006835883
662,695.4065289463185
663,695.4223744150155
664,695.4365380920998
665,695.4489267022071
666,695.4594535822525
667,695.4680395208006
668,695.474613533598
669,695.4791135635605
670,695.4814870959767
671,695.481691682336
672,695.4796953682394
673,695.475477022154
674,695.4690265626214
675,695.460345081741
676,695.4494448617501
677,695.4363492798731
678,695.4210925959719
679,695.4037196189784
680,695.3842852515569
681,695.3628539175132
682,695.3394988826168
683,695.314301485529
684,695.2873502997885
685,695.2587402494091
686,695.2285717001187
687,695.1969495470646
688,695.1639823192259
689,695.1297813209952
690,695.094459831184
691,695.0581323771355
692,695.0209140957797
693,694.9829201853153
694,694.94426544317
695,694.9050638805228
696,694.86542840176
697,694.8254705370792
698,694.7853002161784
699,694.7450255712007
700,694.7047527595103
701,694.6645858010953
702,694.624626429071
703,694.5849739533061
704,694.545725137347
705,694.5069740890475
706,694.4688121655992
707,694.4313278925641
708,694.3946068937311
709,694.35873182603
710,694.3237823135106
711,694.2898348764492
712,694.2569628538395
713,694.2252363181633
714,694.1947219812113
715,694.1654830909948
716,694.1375793231898
717,694.1110666747009
718,694.0859973697736
719,694.062419789179
720,694.0403784301178
721,694.0199138998175
722,694.0010629412551
723,693.9838584866252
724,693.9683297336685
725,693.9545022415272
726,693.9423980454928
727,693.9320357923006
728,693.9234308981615
729,693.916595730363
730,693.9115398105416
731,693.908270033738
732,693.9067908916664
733,693.9071046813781
734,693.9092116733561
735,693.9131102092252
736,693.9187967012264
737,693.9262655131602
738,693.935508712935
739,693.9465156972191
740,693.9592726973606
741,693.9737621825956
742,693.9899621820218
743,694.0078455506246
744,694.027379206247
745,694.0485233644113
746,694.0712307979985
747,694.0954461497685
748,694.1211053266443
749,694.1481350042357
750,694.1764522671443
751,694.205964404597
752,694.2365688723557
753,694.2681534228653
754,694.3005963993262
755,694.3337671876803
756,694.3675268222593
757,694.4017287429979
758,694.4362197024728
759,694.4708408194782
760,694.5054287729255
761,694.5398171253793
762,694.5738377595378
763,694.6073224049517
764,694.6401042283221
765,694.6720194593797
766,694.7029090245818
767,694.732620161648
768,694.7610079885774
769,694.7879370007037
770,694.8132824689158
771,694.8369317127223
772,694.8587852242938
773,694.8787576238824
774,694.8967784325522
775,694.912792654124
776,694.9267611635431
777,694.9386609030128
778,694.9484848904282
779,694.9562420465684
780,694.9619568472119
781,694.9656688043843
782,694.9674317798205
783,694.9673131352198
784,694.9653927275843
785,694.9617617628037
786,694.9565215259954
787,694.9497820116912
788,694.9416604791594
789,694.9322799576532
790,694.921767724803
791,694.9102537809306
792,694.8978693439288
793,694.8847453927627
794,694.8710112900178
795,694.8567935123884
796,694.842214511957
797,694.8273917228233
798,694.8124367200172
799,694.797454531795
800,694.7825431018549
801,694.7677928943071
802,694.7532866314918
803,694.7390991524051
804,694.7252973766459
805,694.7119403560004
806,694.699079395173
807,694.686758225933
808,694.6750132230303
809,694.6638736522092
810,694.6533619392278
811,694.6434939458909
812,694.6342792376087
813,694.6257213289914
814,694.6178178997213
815,694.6105609802464
816,694.6039371122482
817,694.5979274904884
818,694.592508091829
819,694.5876497969258
820,694.5833185122189
821,694.5794753036921
822,694.5760765569739
823,694.5730741789394
824,694.5704158541188
825,694.5680453653596
826,694.5659029823078
827,694.5639259142021
828,694.5620488178383
829,694.5602043502981
830,694.5583237594302
831,694.5563375097629
832,694.5541759435389
833,694.5517699751175
834,694.549051814298
835,694.5459557122961
836,694.5424187235883
837,694.538381477025
838,694.5337889498066
839,694.5285912374385
840,694.522744311009
841,694.5162107502473
842,694.5089604380112
843,694.5009711999055
844,694.4922293709581
845,694.4827302693556
846,694.4724785568217
847,694.46148846781
848,694.4497838943903
849,694.4373983186192
850,694.4243745887746
851,694.4107645407998
852,694.3966284721129
853,694.3820344811926
854,694.3670576922001
855,694.3517793883863
856,694.3362860800416
857,694.3206685312707
858,694.3050207653724
859,694.2894390633558
860,694.2740209666293
861,694.2588642941066
862,694.2440661847263
863,694.2297221765177
864,694.2159253316466
865,694.202765414081
866,694.1903281237853
867,694.1786943888367
868,694.167939714559
869,694.1581335876737
870,694.1493389345354
871,694.1416116351241
872,694.1350000969476
873,694.1295448944509
874,694.1252784799648
875,694.1222249720419
876,694.1204000268613
877,694.1198107985872
878,694.1204559943905
879,694.1223260281041
880,694.1254032729605
881,694.1296624094763
882,694.13507086058
883,694.1415893031661
884,694.1491722429902
885,694.157768637372
886,694.1673225476629
887,694.1777738020799
888,694.1890586507764
889,694.2011103992203
890,694.2138600116381
891,694.2272366811819
892,694.2411683660731
893,694.2555822909828
894,694.2704054109188
895,694.2855648324844
896,694.3009881863898
897,694.316603946137
898,694.3323416904433
899,694.3481323106886
900,694.3639081685951
901,694.3796032118829
902,694.3951530560154
903,694.4104950394783
904,694.4255682596307
905,694.4403135958003
906,694.4546737255764
907,694.4685931400631
908,694.4820181648889
909,694.4948969952109
910,694.5071797532346
911,694.518818574822
912,694.5297677277218
913,694.5399837594392
914,694.5494256698009
915,694.5580551028088
916,694.5658365534348
917,694.5727375851866
918,694.5787290518468
