acceleration,velocity,displacement
-0.035975259547115376,0.0,0.0
-0.03516696298173497,-1.7785555632212586e-05,-4.446388908053146e-09
-0.03436046576684241,-3.516741281935693e-05,-1.7684631020945524e-08
-0.03355755879825223,-5.2146918960630585e-05,-3.9513213965942407e-08
-0.03276001607446219,-6.872631267880919e-05,-6.973152187580236e-08
-0.03196958628004387,-8.49087132674357e-05,-1.0814027836236357e-07
-0.03118798441893955,-0.00010069810594218155,-1.5454198316476787e-07
-0.03041688354209164,-0.00011609932293243935,-2.087413403834231e-07
-0.029657906639901945,-0.00013111802047793776,-2.7054567623601735e-07
-0.02891261879034744,-0.00014576065183550011,-3.3976534431437684e-07
-0.028182519661085297,-0.0001600344364483583,-4.1621411638534143e-07
-0.02746903645886828,-0.0001739473254783467,-4.997095568670177e-07
-0.026773517404732914,-0.000187507963944247,-5.900733792226662e-07
-0.026097225791644182,-0.00020072564974334126,-6.871317826445632e-07
-0.025441334658731517,-0.0002136102898559352,-7.907157675443824e-07
-0.024806922103117437,-0.0002261723540463974,-9.006614285199655e-07
-0.024194967251246556,-0.00023842282638498842,-1.016810223627812e-06
-0.02360634691847133,-0.00025037315492741787,-1.1390092189559135e-06
-0.023041832984174147,-0.00026203519990307926,-1.2671113076635378e-06
-0.022502090494856318,-0.0002734211807728369,-1.4009754028325169e-06
-0.02198767648636629,-0.00028454362251814256,-1.5404666036552617e-06
-0.02149903949897126,-0.00029541530151447695,-1.6854563346634165e-06
-0.021036519751877494,-0.00030604919132718914,-1.835822457873833e-06
-0.020600349947859774,-0.00031645840875212344,-1.991449357893661e-06
-0.020190656687589875,-0.00032665616041098586,-2.1522280001844383e-06
-0.019807462476819762,-0.00033665569020208824,-2.3180559628377067e-06
-0.019450688300375683,-0.0003464702278963871,-2.4888374423623254e-06
-0.019120156716207357,-0.0003561129391505329,-2.664483234124055e-06
-0.01881559540256054,-0.0003655968771802249,-2.8449106882067445e-06
-0.01853664108465262,-0.00037493493630202815,-3.0300436415773076e-06
-0.018282843776186317,-0.0003841398075172379,-3.2198123275321243e-06
-0.01805367128456396,-0.00039322393628242545,-3.4141532634820403e-06
-0.01784851393471388,-0.0004021994825872449,-3.613009118199458e-06
-0.01766668946366462,-0.00041107828343683953,-3.816328559705479e-06
-0.017507448033395073,-0.0004198718178111045,-4.024066085017465e-06
-0.017369977308742214,-0.0004285911741466388,-4.236181833006901e-06
-0.017253407551007727,-0.0004372470203615763,-4.452641381633955e-06
-0.01715681668498457,-0.00044584957642057436,-4.673415530829492e-06
-0.017079235304751715,-0.00045440858941800844,-4.8984800722891376e-06
-0.017019651589020336,-0.0004629333111414514,-5.127815547429003e-06
-0.016977016098895552,-0.0004714324780634304,-5.3614069947302235e-06
-0.016950246430174683,-0.000479914293695698,-5.599243687670006e-06
-0.016938231690764898,-0.0004883864132259329,-5.841318864400414e-06
-0.016939836775118285,-0.0004968559303424037,-6.087629450292498e-06
-0.016953906413472834,-0.0005053293661395515,-6.338175774412987e-06
-0.016979268981749784,-0.0005138126599883571,-6.592961280944965e-06
-0.017014740064114943,-0.0005223111622498233,-6.85199223650451e-06
-0.017059125760739736,-0.000530829628706037,-7.115277434243475e-06
-0.017111225726528533,-0.000539372216577854,-7.3828278955644474e-06
-0.01716983591596723,-0.000547942481988478,-7.65465657020603e-06
-0.017233751004163914,-0.0005565433787185108,-7.930778035382777e-06
-0.01730176646335804,-0.0005651772580853913,-8.211208194583753e-06
-0.01737268029791775,-0.0005738458697757102,-8.495963976549028e-06
-0.017445294470195803,-0.0005825503634677386,-8.78506303485989e-06
-0.017518416077377228,-0.0005912912911046318,-9.078523448502982e-06
-0.017590858365062707,-0.0006000686097152418,-9.376363423707952e-06
-0.017661441687480055,-0.0006088816847283774,-9.678600997318856e-06
-0.017728994540156102,-0.0006177292937852865,-9.985253741947272e-06
-0.017792354789717725,-0.0006266096311177549,-1.0296338473173032e-05
-0.017850371207153843,-0.0006355203126169728,-1.0611870959106714e-05
-0.01790190538390375,-0.0006444583817647372,-1.0931865632702141e-05
-0.017945834080405138,-0.0006534203166308145,-1.1256335307301029e-05
-0.01798105202414974,-0.0006624020381569532,-1.158529089599797e-05
-0.018006475139562057,-0.0006713989199478811,-1.191874113552418e-05
-0.0180210441618597,-0.0006804057997732366,-1.2256692315454459e-05
-0.018023728568805207,-0.0006894169929559028,-1.2599148013636743e-05
-0.018013530758908654,-0.0006984263077878313,-1.2946108838822677e-05
-0.01798949040582595,-0.0007074270630790149,-1.3297572181539389e-05
-0.017950688920365127,-0.0007164121079105627,-1.3653531974286783e-05
-0.017896253952458124,-0.0007253738436287685,-1.4013978462171617e-05
-0.017825363867778707,-0.0007343042480838276,-1.4378897985099766e-05
-0.01773725214055363,-0.0007431949020859107,-1.47482727726422e-05
-0.017631211616248928,-0.0007520370180251113,-1.5122080752669956e-05
-0.017506598609772113,-0.0007608214705816166,-1.5500295374821638e-05
-0.017362836808771452,-0.0007695388294362525,-1.5882885449826105e-05
-0.01719942094594596,-0.0007781793938749318,-1.62698150056539e-05
-0.017015920197618578,-0.000786733229160823,-1.6661043161412837e-05
-0.016811981268516556,-0.0007951902045273567,-1.7056524019834883e-05
-0.0165873311365296,-0.0008035400326286183,-1.7456206579123877e-05
-0.016341779449996124,-0.0008117723102752497,-1.7860034664849843e-05
-0.016075220587621685,-0.0008198765602846542,-1.826794688248982e-05
-0.01578763540422016,-0.0008278422742826146,-1.8679876591131634e-05
-0.015479092691106632,-0.0008356589563064463,-1.90957518987789e-05
-0.0151497503764329,-0.0008433161670733312,-1.9515495679623844e-05
-0.014799856480794484,-0.000850803568787638,-1.9939025613589087e-05
-0.014429749831781457,-0.000858110970365782,-2.0366254248377442e-05
-0.014039860525443256,-0.0008652283729550881,-2.079708908420766e-05
-0.01363071009729665,-0.0008721460156107732,-2.1231432681349124e-05
-0.01320291133256694,-0.0008788544209682391,-2.1669182790493877e-05
-0.01275716761723754,-0.0008853444407056902,-2.211023250591236e-05
-0.012294271719453197,-0.0008916073005398628,-2.255447044122375e-05
-0.011815103896357227,-0.0008976346444438155,-2.300178092746967e-05
-0.01132062923815987,-0.0009034185777274448,-2.3452044233012484e-05
-0.010811894184509487,-0.0009089517085831121,-2.3905136804590123e-05
-0.010290022178904193,-0.0009142271876739654,-2.436093152865439e-05
-0.00975620846527514,-0.0009192387453350102,-2.4819298011906636e-05
-0.009211714068886274,-0.0009239807259685506,-2.5280102879732526e-05
-0.008657859027449966,-0.0009284481192426347,-2.5743210091035322e-05
-0.008096014944889693,-0.0009326365877357196,-2.620848126777991e-05
-0.0075275969438969486,-0.0009365424907079163,-2.667577603739082e-05
-0.006954055111538958,-0.0009401629037217753,-2.7144952385998244e-05
-0.00637686556753312,-0.0009434956338915433,-2.7615867020401575e-05
-0.005797521323809865,-0.0009465392306143791,-2.8088375736528055e-05
-0.005217523125993571,-0.0009492929917268299,-2.8562333792113357e-05
-0.004638370460380572,-0.0009517569651234235,-2.903759628132592e-05
-0.004061552880909057,-0.0009539319459587459,-2.9514018509096463e-05
-0.0034885417778299454,-0.0009558194696234306,-2.9991456362992008e-05
-0.0029207826820897512,-0.0009574218007384105,-3.0469766680582467e-05
-0.002359688171084015,-0.000958741918451704,-3.0948807610379995e-05
-0.0018066314096930579,-0.0009597834983468982,-3.142843896457965e-05
-0.0012629403369690676,-0.0009605508912835638,-3.1908522561987266e-05
-0.0007298925060259087,-0.0009610490994943125,-3.2388922559681734e-05
-0.0002087105989957624,-0.0009612837502705678,-3.2869505772122954e-05
0.0002994413466526156,-0.0009612610675836537,-3.335014197658651e-05
0.0007934609645706041,-0.0009609878420058478,-3.383070420398389e-05
0.0012723098224194512,-0.0009604713993091003,-3.431106901431263e-05
0.0017350149367013183,-0.0009597195681193201,-3.4791116756169734e-05
0.0021806695863392242,-0.00095874064698856,-3.5270731809946706e-05
0.0026084334926565244,-0.000957543371218811,-3.574980281449855e-05
0.0030175324436156246,-0.000956136879734743,-3.6228222877236936e-05
0.003407257442279173,-0.0009545306822632693,-3.670588976773644e-05
0.0037769634531269725,-0.0009527346270394178,-3.718270609506211e-05
0.004126067808038817,-0.0009507588692241264,-3.765857946912799e-05
0.004454048325749666,-0.0009486138401906792,-3.813342264648169e-05
0.004760441199885795,-0.0009463102178092704,-3.8607153660981676e-05
0.005044838716377481,-0.0009438588978302046,-3.907969593989155e-05
0.00530688686118277,-0.0009412709664358145,-3.955097840595805e-05
0.005546282869012217,-0.0009385576740032658,-4.002093556606782e-05
0.005762772748098912,-0.0009357304100989879,-4.048950758709338e-05
0.0059561488039765196,-0.0009328006797109691,-4.095664035954587e-05
0.0061262471795766405,-0.0009297800807150807,-4.142228554965238e-05
0.006272945426195719,-0.0009266802825636377,-4.188640064047206e-05
0.00639616012020163,-0.0009235130061770383,-4.234894896265723e-05
0.006495844547221247,-0.0009202900050101826,-4.280989971545403e-05
0.0065719864870615995,-0.0009170230472516119,-4.326922797851948e-05
0.0066246061427147705,-0.0009137238990941678,-4.372691471510593e-05
0.006653754263997523,-0.0009104043089924898,-4.418294676712759e-05
0.006659510524582312,-0.0009070759927953448,-4.463731684257455e-05
0.00664198222263916,-0.0009037506196085394,-4.509002349567552e-05
0.00660130338800658,-0.000900439798205878,-4.5541071100129124e-05
0.006537634386291654,-0.0008971550637623034,-4.599046981562117e-05
0.006451162105809581,-0.0008939078646392781,-4.643823554772157e-05
0.0063421007937434475,-0.0008907095489143899,-4.688438990110999e-05
0.006210693574770359,-0.0008875713503222614,-4.732896012591915e-05
0.006057214641099867,-0.0008845043732682938,-4.777197905681679e-05
0.0058819720529271905,-0.0008815195765947871,-4.821348504428256e-05
0.005685311043429976,-0.0008786277558206978,-4.865352187738643e-05
0.005467617692464495,-0.0008758395236367242,-4.9092138697250784e-05
0.005229322819486207,-0.0008731652885087365,-4.952938990028715e-05
0.004970905943162913,-0.0008706152313180742,-4.996533503024386e-05
0.0046928991559580914,-0.000868199280043294,-5.04000386580842e-05
0.0043958907627828,-0.0008659270825636087,-5.0833570248735926e-05
0.004080528533468798,-0.0008638079777395458,-5.126600401381172e-05
0.003747522421946653,-0.0008618509650006919,-5.169741874949678e-05
0.0033976466150956067,-0.0008600646727414314,-5.212789765893231e-05
0.0030317407971931134,-0.0008584573258883592,-5.255752815858976e-05
0.0026507105525502596,-0.0008570367130509234,-5.298640166832458e-05
0.00225552687135662,-0.0008558101536949467,-5.341461338501105e-05
0.0018472247607782993,-0.000854784465786913,-5.384226203988152e-05
0.0014269009899685549,-0.0008539659343492263,-5.426944963991555e-05
0.0009957110149520045,-0.0008533602813479962,-5.469628119383985e-05
0.0005548651395799582,-0.0008529726373093632,-5.512286442350419e-05
0.00010562397295178994,-0.0008528075150312303,-5.5549309461589336e-05
-0.0003507067574256011,-0.0008528687857273488,-5.597572853677898e-05
-0.0008127819850858012,-0.0008531596579129766,-5.640223564768906e-05
-0.0012792236376493508,-0.0008536826593186605,-5.682894622699697e-05
-0.0017486274925490352,-0.0008544396221012101,-5.7255976797351934e-05
-0.0022195705188677913,-0.0008554316716040643,-5.7683444620778254e-05
-0.0026906186530434796,-0.000856659218897042,-5.811146734340353e-05
-0.003160334940196959,-0.0008581219572953521,-5.854016263745163e-05
-0.0036272879573736165,-0.0008598188630197448,-5.89696478425304e-05
-0.0040900604141406215,-0.0008617482001126234,-5.940003960831349e-05
-0.004547257801594452,-0.0008639075296665572,-5.9831453540758284e-05
-0.004997516941478201,-0.0008662937233523254,-6.0264003854013006e-05
-0.005439514278547007,-0.0008689029811573317,-6.069780303014042e-05
-0.005871973762169906,-0.0008717308531675108,-6.113296148872163e-05
-0.006293674174044036,-0.0008747722651515643,-6.15695872683014e-05
-0.006703455773633135,-0.0008780215476384836,-6.200778572149892e-05
-0.007100226152308646,-0.000881472468119969,-6.244765922543854e-05
-0.007482965216067037,-0.000885118265962063,-6.288930690895905e-05
-0.0078507292540693,-0.0008889516895795971,-6.333282439784446e-05
-0.008202654086315618,-0.0008929650354146933,-6.377830357909303e-05
-0.008537957311054277,-0.0008971501882640358,-6.422583238501271e-05
-0.00885593969099363,-0.0009014986625145477,-6.467549459770735e-05
-0.009155985728323596,-0.000906001643869377,-6.512736967430334e-05
-0.009437563480042828,-0.0009106500311714687,-6.558153259306354e-05
-0.00970022365642147,-0.0009154344779555847,-6.60380537203453e-05
-0.009943598031435009,-0.0009203454333775488,-6.64969986981786e-05
-0.010167397181136333,-0.0009253731821806917,-6.695842835206815e-05
-0.010371407559050607,-0.0009305078833657384,-6.742239861845475e-05
-0.010555487921753757,-0.0009357396072359395,-6.788896049110517e-05
-0.010719565136499321,-0.0009410583705005027,-6.835815998553929e-05
-0.010863629432741046,-0.0009464541691428128,-6.883003812045012e-05
-0.010987729190500733,-0.0009519170087986232,-6.930463091493547e-05
-0.011091965384301582,-0.0009574369324423238,-6.97819694002457e-05
-0.011176485820461182,-0.0009630040452435144,-7.026207964466716e-05
-0.011241479314537277,-0.0009686085365272641,-7.074498279010986e-05
-0.011287169949428263,-0.0009742406988432554,-7.123069509895248e-05
-0.011313811532593337,-0.0009798909442137608,-7.171922800971673e-05
-0.011321682340115357,-0.0009855498176819378,-7.221058820019066e-05
-0.011311080206766964,-0.0009912080083186584,-7.27047776566908e-05
-0.011282318002753096,-0.0009968563578710385,-7.320179374823823e-05
-0.011235719526388644,-0.001002485867253324,-7.370162930451932e-05
-0.011171615827818896,-0.001008087701091876,-7.420427269660562e-05
-0.011090341960084606,-0.0010136531905388518,-7.47097079195133e-05
-0.010992234140338309,-0.0010191738345639576,-7.5217914675789e-05
-0.010877627301890786,-0.0010246412999245149,-7.572886845941112e-05
-0.010746853018899027,-0.0010300474200047123,-7.624254063939342e-05
-0.010600237777299843,-0.001035384192703762,-7.675889854257053e-05
-0.010438101545108781,-0.0010406437775343643,-7.727790553513006e-05
-0.010260756569523898,-0.0010458184920630225,-7.77995211025294e-05
-0.01006850630958444,-0.0010509008077827996,-7.832370092749086e-05
-0.009861644414076432,-0.0010558833454637148,-7.885039696580248e-05
-0.00964045368317873,-0.0010607588699880286,-7.937955751966542e-05
-0.00940520500190366,-0.0010655202846592993,-7.991112730832725e-05
-0.009156156283060086,-0.0010701606249805403,-8.044504753573721e-05
-0.008893551488812922,-0.0010746730519235086,-8.098125595496321e-05
-0.008617619809246451,-0.0010790508447480235,-8.15196869291311e-05
-0.008328575070721368,-0.0010832873934680154,-8.20602714886851e-05
-0.008026615433906698,-0.0010873761910941723,-8.260293738482565e-05
-0.007711923424557262,-0.0010913108258087884,-8.31476091390514e-05
-0.007384666320429163,-0.001095084973245035,-8.369420808881486e-05
-0.007044996896659783,-0.0010986923890493072,-8.424265242938844e-05
-0.0066930545124851675,-0.0011021269019015935,-8.479285725212616e-05
-0.006328966508504402,-0.0011053824071568408,-8.534473457939077e-05
-0.005952849880942747,-0.0011084528612542025,-8.589819339649353e-05
-0.005564813209748851,-0.0011113322770268754,-8.64531396810638e-05
-0.005164958835173493,-0.001114014720038106,-8.700947643033005e-05
-0.004753385290508893,-0.0011164943060695265,-8.756710368685696e-05
-0.004330189998126367,-0.0011187651998916853,-8.812591856334727e-05
-0.003895472224448548,-0.001120821615447329,-8.868581526718202e-05
-0.0034493362772314963,-0.001122657817572749,-8.924668512543703e-05
-0.0029918949220631152,-0.0011242681253725727,-8.980841661117337e-05
-0.0025232729928096457,-0.001125646917351291,-9.037089537185433e-05
-0.002043611169328364,-0.0011267886383918254,-9.09340042607901e-05
-0.001553069893250719,-0.0011276878086574702,-9.149762337255242e-05
-0.0010518333863844612,-0.001128339034477379,-9.206163008333613e-05
-0.0005401137226475549,-0.001128737021254637,-9.262589909726913e-05
-1.8154883236855354e-05,-0.0011288765884061081,-9.319030249968431e-05
0.0005137632999875978,-0.0011287526863019205,-9.375470981836133e-05
0.0010553214288214056,-0.0011283604151197182,-9.431898809371674e-05
0.0016061571746360174,-0.001127695045468854,-9.488300195886388e-05
0.0021658623810758768,-0.0011267520405799259,-9.544661373037607e-05
0.00273398072847895,-0.0011255270798025373,-9.600968351047169e-05
0.0033100060285937882,-0.0011240160831132691,-9.657206930120064e-05
0.00389338118679104,-0.001122215236309423,-9.713362713105631e-05
0.004483497835401306,-0.0011201210165538748,-9.769421119427213e-05
0.005079696610747824,-0.0011177302179423375,-9.825367400289619e-05
0.005681268021875424,-0.0011150399767841817,-9.881186655157782e-05
0.006287453844974654,-0.0011120477963174691,-9.936863849485324e-05
0.00689744897741436,-0.0011087515706118718,-9.992383833658557e-05
0.007510403694180277,-0.001105149607443973,-0.00010047731363109953
0.008125426257283415,-0.0011012406499561072,-0.00010102891119544955
0.008741585833065843,-0.00109702389693352,-0.00010157847733217195
0.009357915679433677,-0.001092499021555395,-0.00010212585806179419
0.009973416577438873,-0.001087666188491177,-0.00010267089936430583
0.010587060493444779,-0.001082526069223456,-0.00010321344742873449
0.011197794464196434,-0.0010770798554840457,-0.00010375334890991136
0.011804544700212105,-0.0010713292706929435,-0.00010429045119145561
0.012406220908780506,-0.0010652765792906955,-0.00010482460265395152
0.013001720845098942,-0.0010589245938522256,-0.00010535565294723725
0.013589935100044089,-0.0010522766798659398,-0.0001058834532656668
0.014169752120636538,-0.0010453367580607695,-0.00010640785662514847
0.014740063440402757,-0.0010381093041705097,-0.00010692871814070629
0.015299769082236238,-0.0010305993460398499,-0.00010744589530325888
0.015847783087134422,-0.0010228124579975072,-0.00010795924825426822
0.016383039109322838,-0.001014754752448393,-0.0001084686400568797
0.016904495995397596,-0.0010064328686722128,-0.00010897393696215985
0.01741114323818987,-0.000997853958863816,-0.00010947500866904385
0.017902006179444305,-0.0009890256715094075,-0.00010997172857663715
0.018376150841570075,-0.000979956132254154,-0.00011046397402757804
0.01883268829760075,-0.0009706539224693612,-0.00011095162654125891
0.01927077852806891,-0.0009611280557629439,-0.000111434572035817
0.019689633750403526,-0.0009513879526933257,-0.00011191270103793106
0.020088521234632964,-0.0009414434139470667,-0.00011238590887959115
0.02046676563613067,-0.0009313045922293758,-0.00011285409588113527
0.020823750878164956,-0.0009209819631008019,-0.00011331716751996781
0.021158921601830825,-0.000910486294980803,-0.00011377503458448821
0.021471784176150036,-0.0008998286185363078,-0.0001142276133128675
0.02176190724180624,-0.0008890201956818186,-0.00011467482551642203
0.02202892175812867,-0.0008780724884318349,-0.00011511659868745045
0.02227252053628775,-0.0008669971278582308,-0.00011555286609152296
0.022492457271225206,-0.0008558058834063526,-0.0001159835668443391
0.022688545126138094,-0.0008445106328070118,-0.00011640864597339244
0.022860654964632816,-0.000833123332784319,-0.00011682805446479028
0.023008713351272646,-0.0008216559907053427,-0.00011724174929566269
0.02313270043925846,-0.0008101206372577099,-0.00011764969345265345
0.023232647834907593,-0.0007985293001891684,-0.00011805185593701517
0.02330863649114915,-0.0007868939791076542,-0.00011844821175683937
0.023360794662054003,-0.0007752266213193535,-0.00011883874190694613
0.023389295953791137,-0.0007635390986653922,-0.00011922343333694232
0.023394357514523633,-0.0007518431852983135,-0.00011960227890793325
0.023376238395703606,-0.0007401505363207567,-0.00011997527733833801
0.023335238090278532,-0.0007284726671992611,-0.00012034243313921801
