frame_number,force
0,687.7741090092705
1,687.8309868528235
2,687.887738080503
3,687.9442366713705
4,688.0003577935098
5,688.0559783962836
6,688.1109777990779
7,688.1652382734079
8,688.2186456134264
9,688.271089688441
10,688.3224649705229
11,688.3726710306393
12,688.4216129977879
13,688.4692019771463
14,688.5153554248329
15,688.5599974778017
16,688.6030592373303
17,688.6444790040763
18,688.6842024627839
19,688.7221828157647
20,688.7583808657744
21,688.7927650501364
22,688.825311428461
23,688.8560036260255
24,688.8848327342519
25,688.9117971694654
26,688.93690249177
27,688.9601611873265
28,688.981592418748
29,689.0012217487885
30,689.019080841878
31,689.0352071471024
32,689.0496435657985
33,689.0624381071357
34,689.0736435353732
35,689.0833170125409
36,689.0915197400142
37,689.0983166019602
38,689.1037758130919
39,689.1079685727879
40,689.1109687274848
41,689.1128524433072
42,689.1136978910027
43,689.11358494516
44,689.1125948992741
45,689.110810197653
46,689.1083141847292
47,689.1051908723007
48,689.1015247257028
49,689.0974004706604
50,689.0929029229251
51,689.0881168421561
52,689.0831268098331
53,689.078017128922
54,689.0728717410635
55,689.067774155249
56,689.0628073802535
57,689.0580538519687
58,689.053595346865
59,689.0495128740997
60,689.0458865406865
61,689.0427953862339
62,689.040317186053
63,689.0385282238788
64,689.0375030375716
65,689.0373141424496
66,689.038031737279
67,689.0397233978651
68,689.0424537630729
69,689.0462842180334
70,689.0512725791357
71,689.0574727849153
72,689.0649345960994
73,689.0737033072268
74,689.0838194719817
75,689.0953186447828
76,689.1082311416338
77,689.1225818230553
78,689.1383899009422
79,689.1556687698735
80,689.1744258621601
81,689.1946625250017
82,689.2163739177225
83,689.2395489273065
84,689.2641701011536
85,689.2902135967987
86,689.3176491494395
87,689.3464400599029
88,689.376543207998
89,689.4079090981812
90,689.4404819453058
91,689.4741998078391
92,689.508994774754
93,689.5447932106632
94,689.5815160616078
95,689.6190792212086
96,689.6573939542159
97,689.6963673728187
98,689.7359029606187
99,689.7759011389085
100,689.8162598686237
101,689.8568752788461
102,689.8976423099942
103,689.9384553582853
104,689.9792089085524
105,690.0197981445444
106,690.0601195281441
107,690.10007134089
108,690.1395541831812
109,690.1784714287784
110,690.2167296338729
111,690.2542389001907
112,690.2909131905939
113,690.3266705946255
114,690.3614335414738
115,690.3951289592063
116,690.4276883813645
117,690.4590480042139
118,690.4891486994081
119,690.5179359875483
120,690.5453599782617
121,690.5713752819834
122,690.5959408977892
123,690.6190200810664
124,690.6405801948999
125,690.6605925494523
126,690.6790322336251
127,690.6958779425687
128,690.7111118035065
129,690.724719201489
130,690.7366886062971
131,690.7470114015161
132,690.7556817168302
133,690.7626962650635
134,690.7680541863111
135,690.771756902208
136,690.7738079838941
137,690.77421303781
138,690.7729796142643
139,690.7701171446074
140,690.7656369133732
141,690.7595520714333
142,690.7518776948356
143,690.7426308916663
144,690.7318309561576
145,690.7194995657487
146,690.7056610136501
147,690.6903424673528
148,690.6735742425635
149,690.6553900818328
150,690.6358274272002
151,690.6149276762369
152,690.5927364109147
153,690.5693035889474
154,690.5446836879638
155,690.5189357944837
156,690.4921236322502
157,690.4643155274576
158,690.4355843110175
159,690.4060071598806
160,690.3756653806488
161,690.3446441394308
162,690.3130321421919
163,690.280921269769
164,690.2484061711849
165,690.2155838180074
166,690.1825530219288
167,690.1494139181387
168,690.116267418167
169,690.0832146369983
170,690.0503563003492
171,690.0177921394658
172,689.9856202825135
173,689.9539366529975
174,689.9228343862487
175,689.8924032748151
176,689.8627292528286
177,689.8338939283814
178,689.805974171585
179,689.7790417639485
180,689.7531631120851
181,689.7283990262183
182,689.7048045620373
183,689.6824289231525
184,689.6613154206327
185,689.641501486
186,689.623018734669
187,689.6058930778004
188,689.5901448814462
189,689.5757891723474
190,689.5628358894567
191,689.5512901789457
192,689.5411527283438
193,689.5324201332678
194,689.5250852883885
195,689.5191377929384
196,689.5145643604307
197,689.5113492227022
198,689.5094745199456
199,689.5089206705566
200,689.5096667166339
201,689.5116906422699
202,689.5149696625725
203,689.5194804823565
204,689.5251995247623
205,689.5321031310151
206,689.5401677326805
207,689.5493699976997
208,689.5596869520595
209,689.5710960803965
210,689.5835754106427
211,689.5971035891308
212,689.6116599525174
213,689.6272246008484
214,689.6437784726112
215,689.6613034191149
216,689.6797822733414
217,689.6991989077475
218,689.7195382758974
219,689.7407864337118
220,689.7629305373017
221,689.7859588157423
222,689.8098605186226
223,689.8346258395754
224,689.8602458179557
225,689.8867122210265
226,689.9140174082836
227,689.9421541782949
228,689.9711155975148
229,690.0008948105702
230,690.031484832327
231,690.0628783229046
232,690.0950673472655
233,690.1280431211574
234,690.1617957452842
235,690.1963139297625
236,690.2315847113563
237,690.267593166945
238,690.3043221281711
239,690.3417519039541
240,690.3798600190271
241,690.4186209772146
242,690.4580060575565
243,690.4979831499594
244,690.5385166351995
245,690.5795673118963
246,690.6210923707116
247,690.6630454138433
248,690.7053765161559
249,690.7480323233026
250,690.7909561821892
251,690.8340882997541
252,690.8773659265855
253,690.9207235622059
254,690.9640931793491
255,691.0074044654325
256,691.0505850802547
257,691.0935609293782
258,691.1362564528753
259,691.1785949295263
260,691.2204987970724
261,691.2618899891191
262,691.302690288414
263,691.3428216948946
264,691.3822068058741
265,691.4207692050855
266,691.4584338563964
267,691.4951274963994
268,691.5307790181877
269,691.5653198374542
270,691.5986842324905
271,691.6308096516898
272,691.6616369849457
273,691.6911107979342
274,691.7191795302473
275,691.7457956595426
276,691.7709158340142
277,691.7945009744202
278,691.8165163451614
279,691.8369315925424
280,691.8557207480779
281,691.8728621956446
282,691.8883386033607
283,691.9021368239793
284,691.9142477704896
285,691.9246662754205
286,691.9333909422013
287,691.940423994891
288,691.9457711299484
289,691.9494413722973
290,691.9514469381774
291,691.9518031077713
292,691.9505281098934
293,691.9476430191266
294,691.943171663726
295,691.9371405411185
296,691.9295787370039
297,691.9205178436526
298,691.9099918728518
299,691.8980371592638
300,691.8846922509997
301,691.8699977856728
302,691.8539963512732
303,691.8367323314901
304,691.8182517351115
305,691.7986020096542
306,691.7778318408042
307,691.7559909412391
308,691.733129834172
309,691.70929963767
310,691.6845518551535
311,691.6589381757301
312,691.6325102859456
313,691.6053196931786
314,691.5774175609371
315,691.5488545574118
316,691.5196807199636
317,691.4899453390851
318,691.4596968654433
319,691.4289828428792
320,691.3978498690209
321,691.3663435838241
322,691.334508685081
323,691.3023889689779
324,691.2700273934536
325,691.2374661622787
326,691.2047468279387
327,691.1719104112269
328,691.1389975349614
329,691.1060485685856
330,691.0731037797763
331,691.0402034887934
332,691.0073882213177
333,690.9746988559283
334,690.9421767629821
335,690.9098639320366
336,690.8778030846623
337,690.846037768396
338,690.8146124262029
339,690.7835724349593
340,690.7529641066926
341,690.7228346475316
342,690.6932320712413
343,690.6642050667125
344,690.6358028215873
345,690.6080748067775
346,690.5810705283939
347,690.5548392543716
348,690.529429722951
349,690.504889839228
350,690.481266364443
351,690.458604601006
352,690.4369480748991
353,690.4163382161715
354,690.3968140378815
355,690.3784118143658
356,690.361164761244
357,690.3451027216105
358,690.3302518646075
359,690.3166344034728
360,690.304268340192
361,690.2931672432882
362,690.2833400641578
363,690.2747909958689
364,690.2675193769866
365,690.261519642239
366,690.2567813215226
367,690.2532890883975
368,690.2510228586838
369,690.2499579389507
370,690.2500652231871
371,690.2513114335196
372,690.2536593983924
373,690.2570683605353
374,690.2614943079545
375,690.2668903233911
376,690.2732069499339
377,690.2803925717625
378,690.2883938091379
379,690.2971559263219
380,690.3066232505205
381,690.3167395988695
382,690.3274487084806
383,690.3386946621539
384,690.3504223007379
385,690.3625776130918
386,690.3751080960621
387,690.3879630789803
388,690.4010940091232
389,690.4144546960107
390,690.4280015131168
391,690.4416935553851
392,690.4554927502385
393,690.4693639194851
394,690.4832747903273
395,690.4971959555282
396,690.5111007851308
397,690.5249652943219
398,690.5387679736574
399,690.5524895887544
400,690.5661129568334
401,690.5796227074219
402,690.5930050343115
403,690.6062474455499
404,690.6193385178062
405,690.632267660642
406,690.6450248945963
407,690.6576006446275
408,690.669985548255
409,690.6821702766402
410,690.6941453669162
411,690.7059010648089
412,690.717427177492
413,690.7287129373159
414,690.7397468773272
415,690.7505167195668
416,690.7610092776096
417,690.7712103759669
418,690.7811047901544
419,690.7906762113736
420,690.7999072387623
421,690.8087794011386
422,690.8172732101941
423,690.8253682479747
424,690.8330432920084
425,690.8402764805292
426,690.8470455177984
427,690.8533279163622
428,690.8591012704553
429,690.8643435534892
430,690.8690334324824
431,690.8731505927178
432,690.8766760663948
433,690.8795925594264
434,690.8818847706904
435,690.8835396980072
436,690.8845469252562
437,690.8848988856021
438,690.8845910967395
439,690.8836223650434
440,690.8819949561541
441,690.8797147296993
442,690.8767912359781
443,690.8732377732309
444,690.8690714057576
445,690.8643129449172
446,690.8589868959106
447,690.8531213727234
448,690.8467479822083
449,690.839901676995
450,690.8326205763245
451,690.8249457540733
452,690.8169209941843
453,690.8085925151705
454,690.8000086665674
455,690.7912196006497
456,690.7822769228379
457,690.7732333248526
458,690.7641422058617
459,690.7550572877251
460,690.7460322304834
461,690.7371202538255
462,690.7283737698294
463,690.7198440316455
464,690.7115808018119
465,690.7036320428545
466,690.6960436321874
467,690.6888591030328
468,690.682119412471
469,690.675862736343
470,690.6701242888901
471,690.6649361638382
472,690.6603271939634
473,690.6563228277731
474,690.6529450235662
475,690.6502121617814
476,690.6481389762142
477,690.6467365039922
478,690.6460120536774
479,690.6459691909388
480,690.6466077421035
481,690.6479238171364
482,690.6499098542228
483,690.6525546876284
484,690.6558436394416
485,690.6597586351417
486,690.6642783429897
487,690.6693783373701
488,690.6750312858885
489,690.6812071597719
490,690.6878734675478
491,690.6949955128256
492,690.7025366772058
493,690.7104587283246
494,690.7187221511059
495,690.7272864982164
496,690.7361107542591
497,690.7451537078143
498,690.7543743259307
499,690.7637321264267
500,690.7731875436132
501,690.7827022827928
502,690.7922396588342
503,690.8017649146807
504,690.8112455163592
505,690.8206514213091
506,690.8299553167487
507,690.83913282485
508,690.8481626718877
509,690.857026819047
510,690.865710553135
511,690.8742025364552
512,690.882494816801
513,690.8905828006054
514,690.8984651940006
515,690.9061439172439
516,690.9136239972568
517,690.9209134410335
518,690.9280230904055
519,690.9349664574434
520,690.9417595403488
521,690.9484206213695
522,690.9549700498139
523,690.9614300140574
524,690.9678243067124
525,690.9741780871275
526,690.9805176449224
527,690.9868701672518
528,690.9932635112283
529,690.9997259819907
530,691.0062861164809
531,691.0129724727883
532,691.0198134245716
533,691.0268369594813
534,691.0340704798704
535,691.0415406037555
536,691.0492729642407
537,691.0572920063048
538,691.0656207808506
539,691.0742807372001
540,691.0832915165765
541,691.0926707501388
542,691.1024338657419
543,691.1125939080739
544,691.1231613771133
545,691.134144089469
546,691.1455470660368
547,691.157372448197
548,691.1696194440821
549,691.1822843060227
550,691.1953603396621
551,691.2088379442866
552,691.2227046827878
553,691.2369453784644
554,691.251542234739
555,691.2664749729785
556,691.2817209831101
557,691.2972554817255
558,691.3130516729772
559,691.3290809086864
560,691.345312845328
561,691.3617155965289
562,691.3782558803279
563,691.3948991607809
564,691.4116097837615
565,691.4283511072578
566,691.4450856272277
567,691.4617751009318
568,691.4783806702384
569,691.4948629874982
570,691.5111823462569
571,691.5272988185262
572,691.5431723999103
573,691.5587631638111
574,691.574031426193
575,691.5889379226705
576,691.603443999688
577,691.617511820768
578,691.6311045869153
579,691.6441867677495
580,691.6567243379866
581,691.668685013381
582,691.6800384812447
583,691.6907566226632
584,691.7008137256066
585,691.7101866893621
586,691.7188552207753
587,691.7268020219797
588,691.7340129680714
589,691.7404772716674
590,691.7461876296678
591,691.7511403463103
592,691.7553354261997
593,691.7587766314202
594,691.761471497757
595,691.7634313061249
596,691.7646710065352
597,691.7652090936409
598,691.765067435085
599,691.764271056028
600,691.7628478848702
601,691.7608284663531
602,691.7582456490383
603,691.7551342544738
604,691.7515307348991
605,691.7474728251308
606,691.7429991928138
607,691.738149090236
608,691.7329620108142
609,691.7274773539931
610,691.7217341030725
611,691.7157705208313
612,691.7096238674737
613,691.7033301445073
614,691.6969238670127
615,691.6904378657813
616,691.683903120107
617,691.6773486215096
618,691.6708012679428
619,691.6642857869232
620,691.6578246848217
621,691.6514382189928
622,691.6451443898945
623,691.6389589514976
624,691.6328954392266
625,691.626965214694
626,691.6211775255272
627,691.6155395773117
628,691.6100566139904
629,691.6047320033307
630,691.5995673249921
631,691.5945624596975
632,691.5897156785045
633,691.5850237310578
634,691.580481931451
635,691.5760842405551
636,691.5718233441365
637,691.5676907260023
638,691.5636767344661
639,691.5597706390291
640,691.555960673169
641,691.5522340593213
642,691.548577013695
643,691.5449747308347
644,691.5414113499883
645,691.5378699068102
646,691.5343322746115
647,691.530779099345
648,691.5271897319865
649,691.5235421613204
650,691.5198129500689
651,691.5159771782345
652,691.5120083989688
653,691.5078786131658
654,691.5035582685332
655,691.4990162872294
656,691.4942201243242
657,691.489135858613
658,691.4837283179679
659,691.4779612424595
660,691.4717974888375
661,691.4651992794843
662,691.4581284980245
663,691.450547032353
664,691.4424171636131
665,691.4337019966624
666,691.4243659244283
667,691.4143751160061
668,691.4036980168727
669,691.3923058493067
670,691.380173101948
671,691.3672779992057
672,691.3536029435807
673,691.3391349262379
674,691.3238659024477
675,691.3077931283462
676,691.2909194543522
677,691.273253569801
678,691.254810194055
679,691.2356102116019
680,691.2156807512171
681,691.1950552105496
682,691.1737732268028
683,691.1518805922395
684,691.1294291112486
685,691.1064763945238
686,691.0830855859327
687,691.0593250189302
688,691.0352678014768
689,691.0109913307239
690,690.9865767410054
691,690.9621082911749
692,690.9376727000256
693,690.9133584407148
694,690.8892550058475
695,690.8654521540362
696,690.8420391472989
697,690.8191039878477
698,690.796732663321
699,690.7750084110035
700,690.754011013091
701,690.7338161356765
702,690.7144947234945
703,690.6961124607635
704,690.6787293060881
705,690.6623991067103
706,690.6471692948423
707,690.6330806667933
708,690.6201672443121
709,690.6084562168327
710,690.5979679626395
711,690.5887161460864
712,690.580707886892
713,690.5739439962281
714,690.5684192725704
715,690.564122848028
716,690.5610385736561
717,690.5591454311021
718,690.5584179586058
719,690.5588266816883
720,690.5603385414403
721,690.5629173148044
722,690.5665240217031
723,690.5711173144692
724,690.5766538466333
725,690.5830886204445
726,690.5903753146753
727,690.5984665956635
728,690.6073144152317
729,690.6168702995143
730,690.6270856330195
731,690.6379119422338
732,690.6493011823093
733,690.6612060288493
734,690.6735801752659
735,690.6863786355977
736,690.6995580529995
737,690.7130770143322
738,690.7268963704581
739,690.7409795598776
740,690.7552929308457
741,690.7698060551493
742,690.7844920264022
743,690.7993277374256
744,690.8142941340802
745,690.8293764450594
746,690.8445643875898
747,690.8598523482021
748,690.8752395370778
749,690.8907301147092
750,690.9063332902014
751,690.9220633903443
752,690.9379398972067
753,690.9539874502583
754,690.9702358078397
755,690.9867197623685
756,691.00347900379
757,691.0205579265964
758,691.0380053775589
759,691.0558743438323
760,691.0742215832383
761,691.0931071993846
762,691.1125941640589
763,691.1327477891081
764,691.1536351506747
765,691.175324470043
766,691.1978844563507
767,691.2213836162144
768,691.2458895340966
769,691.2714681261758
770,691.2981828706414
771,691.3260940190258
772,691.3552577960469
773,691.3857255987281
774,691.4175432085347
775,691.4507500322518
776,691.485378387992
777,691.5214528521691
778,691.5589896821032
779,691.5979963276206
780,691.6384710432806
781,691.68040261002
782,691.7237701711978
783,691.7685431843526
784,691.8146814874655
785,691.8621354770593
786,691.910846394394
787,691.9607467148147
788,692.0117606337535
789,692.0638046409275
790,692.116788172297
791,692.1706143281025
792,692.2251806451255
793,692.2803799117511
794,692.3361010147947
795,692.392229807203
796,692.4486499855751
797,692.5052439657908
798,692.5618937440446
799,692.6184817301211
800,692.6748915407461
801,692.7310087434745
802,692.7867215449039
803,692.841921419715
804,692.8965036786201
805,692.9503679743099
806,693.00341874547
807,693.0555655996448
808,693.1067236357901
809,693.1568137071841
810,693.2057626258753
811,693.2535033112542
812,693.299974886748
813,693.3451227291058
814,693.3888984744503
815,693.4312599852741
816,693.4721712835274
817,693.5116024564753
818,693.5495295429715
819,693.5859344072005
820,693.6208046046281
821,693.6541332418542
822,693.6859188296876
823,693.7161651278434
824,693.744880980005
825,693.7720801388953
826,693.7977810817488
827,693.8220068167402
828,693.8447846804638
829,693.8661461256005
830,693.8861264967705
831,693.9047647916893
832,693.9221034044439
833,693.9381878478556
834,693.9530664521889
835,693.9667900379061
836,693.9794115610076
837,693.9909857307309
838,694.0015686006252
839,694.011217134707
840,694.019988750236
841,694.0279408380834
842,694.0351302616167
843,694.0416128358569
844,694.0474427895647
845,694.0526722131323
846,694.057350494988
847,694.0615237496155
848,694.0652342415477
849,694.0685198112916
850,694.0714133106712
851,694.0739420567199
852,694.0761273152244
853,694.077983826972
854,694.0795193908851
855,694.0807345179659
856,694.0816221683767
857,694.0821675815171
858,694.0823482060906
859,694.0821337343232
860,694.0814862419891
861,694.0803604338802
862,694.0787039926081
863,694.0764580268456
864,694.0735576133528
865,694.0699324260237
866,694.0655074450123
867,694.0602037389178
868,694.0539393120129
869,694.0466300067352
870,694.038190450086
871,694.0285350316668
872,694.017578900638
873,694.005238968533
874,693.9914349045138
875,693.9760901094269
876,693.9591326552226
877,693.9404961771014
878,693.9201207071922
879,693.8979534403219
880,693.873949424117
881,693.8480721671443
882,693.8202941603884
883,693.7905973091258
884,693.7589732739048
885,693.725423720683
886,693.6899604812742
887,693.6526056259991
888,693.6133914507122
889,693.5723603802095
890,693.5295647896884
891,693.485066745918
892,693.4389376705736
893,693.3912579297559
894,693.342116355455
895,693.291609706175
896,693.2398420749357
897,693.186924253502
898,693.1329730618781
899,693.0781106518073
900,693.0224637923149
901,692.9661631446018
902,692.9093425331116
903,692.8521382196545
904,692.7946881883221
905,692.7371314502439
906,692.679607377723
907,692.6222550758363
908,692.5652127965093
909,692.5086173965893
910,692.4526038385379
911,692.3973047305487
912,692.3428499024753
913,692.2893660148077
914,692.2369761993203
915,692.1857997309643
916,692.135951730725
917,692.0875428989424
