frame_number,force
0,687.7741090002663
1,687.8492783649937
2,687.9241704633484
3,687.998505257482
4,688.0719977314778
5,688.144356784777
6,688.2152856406752
7,688.2844839387863
8,688.3516513691053
9,688.4164924498375
10,688.4787219297657
11,688.5380703067682
12,688.5942890665581
13,688.6471554300509
14,688.6964765859228
15,688.7420934673227
16,688.783884056993
17,688.8217660642508
18,688.8556987657928
19,688.8856838971406
20,688.9117656466235
21,688.9340299288584
22,688.9526031286335
23,688.9676504010722
24,688.9793734590247
25,688.988007686931
26,688.9938184744332
27,688.9970968469798
28,688.9981546570273
29,688.9973196438793
30,688.9949305511439
31,688.9913323290704
32,688.9868713764973
33,688.981890809264
34,688.9767258008472
35,688.9716990654509
36,688.9671165349847
37,688.9632632337356
38,688.9603993066762
39,688.9587561395975
40,688.9585325323804
41,688.959890944962
42,688.9629539054102
43,688.9678007103942
44,688.9744645404319
45,688.9829300804932
46,688.9931317251578
47,689.0049524956746
48,689.0182239213439
49,689.0327273008194
50,689.0481968574268
51,689.064325238461
52,689.0807715802853
53,689.0971720628476
54,689.1131525909049
55,689.1283429674885
56,689.1423916619487
57,689.1549800932888
58,689.1658353477544
59,689.1747404276681
60,689.181541394087
61,689.1861510551497
62,689.1885491674025
63,689.1887794505017
64,689.1869439960566
65,689.1831957974289
66,689.1777301314066
67,689.1707754542908
68,689.1625844009936
69,689.1534254116359
70,689.1435754330757
71,689.1333140188674
72,689.1229189744502
73,689.1126635234846
74,689.1028148939955
75,689.0936342569571
76,689.0853780016029
77,689.0783002878657
78,689.0726566581326
79,689.0687082859075
80,689.0667262557657
81,689.0669951426594
82,689.0698151211985
83,689.0755019075244
84,689.084383984799
85,689.0967967392355
86,689.1130733596324
87,689.1335326920112
88,689.158464667685
89,689.1881143032167
90,689.2226654778708
91,689.2622257128796
92,689.3068130746876
93,689.356346151247
94,689.410637796007
95,689.4693929920207
96,689.5322108479736
97,689.5985905475768
98,689.6679410653654
99,689.7395944764892
100,689.8128225360839
101,689.8868558528242
102,689.9609045799203
103,690.0341793188003
104,690.105911009248
105,690.1753688868336
106,690.241875923238
107,690.3048214324702
108,690.3636707894394
109,690.4179724967821
110,690.4673630260896
111,690.5115698146926
112,690.5504125596996
113,690.5838027044455
114,690.6117409245544
115,690.6343125387907
116,690.6516810225853
117,690.664080048842
118,690.6718046162375
119,690.675201848013
120,690.6746619844871
121,690.6706099472636
122,690.6634976560398
123,690.6537971330233
124,690.641994396623
125,690.6285841709212
126,690.6140654142033
127,690.5989375452922
128,690.5836970739924
129,690.5688342222986
130,690.5548290851108
131,690.5421468848475
132,690.531231925277
133,690.5224999828446
134,690.5163290669385
135,690.5130486669776
136,690.5129277664327
137,690.5161620818159
138,690.5228612039241
139,690.5330365526363
140,690.5465912353833
141,690.5633129452392
142,690.5828709134688
143,690.6048176562223
144,690.6285958514695
145,690.6535502082039
146,690.6789437613141
147,690.7039777484185
148,690.7278141135461
149,690.7495996734018
150,690.7684910004945
151,690.7836790809828
152,690.7944127923654
153,690.8000202449439
154,690.7999270927734
155,690.7936711080068
156,690.7809126393677
157,690.7614409542792
158,690.7351767748762
159,690.7021715074169
160,690.6626037478133
161,690.6167736475489
162,690.5650956599034
163,690.5080900645921
164,690.4463734794576
165,690.3806483291061
166,690.3116910586303
167,690.2403388583077
168,690.1674747639081
169,690.0940111103001
170,690.0208714381323
171,689.9489711474799
172,689.879197439995
173,689.812389298747
174,689.7493183592469
175,689.6906715196486
176,689.6370360577176
177,689.5888879132292
178,689.546583646887
179,689.5103563447655
180,689.480315412425
181,689.4564498983175
182,689.4386347835598
183,689.4266395727554
184,689.4201385014281
185,689.4187217602341
186,689.4219073293175
187,689.4291532641688
188,689.4398705046104
189,689.4534364362779
190,689.4692094645884
191,689.486544721907
192,689.5048107571581
193,689.5234067623928
194,689.5417796443509
195,689.5594400650928
196,689.5759764911904
197,689.5910663640561
198,689.604483739146
199,689.6161030640858
200,689.6258990560024
201,689.6339428117244
202,689.6403943744896
203,689.6454920966526
204,689.6495393007051
205,689.6528888435664
206,689.6559261659978
207,689.6590513503486
208,689.6626607529469
209,689.6671289570634
210,689.6727920294109
211,689.6799332273538
212,689.6887722540276
213,689.6994588080003
214,689.7120705979714
215,689.7266154182543
216,689.7430365086394
217,689.7612202924762
218,689.7810056220623
219,689.8021937770718
220,689.8245586210913
221,689.8478565130899
222,689.8718357777716
223,689.8962457282672
224,689.9208453608043
225,689.9454118480821
226,689.969748821072
227,689.9936942111805
228,690.0171272598012
229,690.0399742864753
230,690.0622129120917
231,690.0838745487089
232,690.1050450215945
233,690.1258631984978
234,690.1465175058526
235,690.1672402315111
236,690.188299578664
237,690.2099895858654
238,690.2326182662723
239,690.2564946007897
240,690.2819152644772
241,690.3091520744135
242,690.338441079126
243,690.3699740198028
244,690.4038926414597
245,690.4402860303305
246,690.4791908300922
247,690.5205938982822
248,690.5644367450238
249,690.6106209946317
250,690.6590141628506
251,690.7094551923392
252,690.7617593261341
253,690.8157219978623
254,690.8711215442933
255,690.9277207272038
256,690.9852672241408
257,691.0434933530937
258,691.1021153645513
259,691.1608327281995
260,691.2193279450131
261,691.2772674339833
262,691.3343039190062
263,691.3900805420717
264,691.444236769509
265,691.4964160516616
266,691.5462750435674
267,691.5934939270359
268,691.6377870564809
269,691.6789129415006
270,691.7166826142118
271,691.7509657088369
272,691.7816939738756
273,691.8088622995913
274,691.8325276073779
275,691.8528060891017
276,691.8698692620446
277,691.883939095228
278,691.8952821501409
279,691.9042024275319
280,691.9110325331333
281,691.9161228881889
282,691.9198290043034
283,691.9224972686827
284,691.9244501167956
285,691.9259717332386
286,691.9272953878318
287,691.9285931877171
288,691.9299686124187
289,691.9314519769017
290,691.932999006181
291,691.9344927866567
292,691.9357492548652
293,691.936526095551
294,691.9365346055931
295,691.9354538550107
296,691.9329463533131
297,691.9286743696142
298,691.9223160347719
299,691.9135804033008
300,691.9022208127808
301,691.8880461030459
302,691.870929420451
303,691.8508143716563
304,691.8277182851989
305,691.8017324150081
306,691.7730191353784
307,691.7418064827624
308,691.7083806706781
309,691.6730773149623
310,691.6362720079867
311,691.5983706144129
312,691.5597993480031
313,691.5209944928795
314,691.482391655078
315,691.4444146240764
316,691.4074641564647
317,691.3719071593991
318,691.338066797565
319,691.3062139719239
320,691.276560470819
321,691.2492539291655
322,691.2243745780029
323,691.2019336633791
324,691.1818734063655
325,691.1640684457407
326,691.1483287706527
327,691.1344041596171
328,691.1219900983405
329,691.1107350738946
330,691.1002490643934
331,691.0901129964246
332,691.0798889502095
333,691.0691309537295
334,691.0573962909303
335,691.0442572900499
336,691.0293134846361
337,691.0122038351839
338,690.9926184403962
339,690.970308985108
340,690.9450971502984
341,690.9168803379184
342,690.8856342965345
343,690.8514125519531
344,690.8143429135074
345,690.7746216549086
346,690.732506171138
347,690.6883069631459
348,690.6423797160807
349,690.5951180287296
350,690.5469470552518
351,690.4983180115183
352,690.4497032455081
353,690.4015913942876
354,690.3544820694067
355,690.3088795798707
356,690.2652854348639
357,690.2241896914084
358,690.1860614990661
359,690.151339359285
360,690.1204216581767
361,690.0936579838651
362,690.0713416183246
363,690.0537034226335
364,690.0409071928999
365,690.0330465214099
366,690.030143227128
367,690.0321474476551
368,690.0389394844838
369,690.0503334516101
370,690.0660826267132
371,690.0858861109194
372,690.1093960993636
373,690.136224970642
374,690.165951612383
375,690.1981268048321
376,690.2322778866663
377,690.2679131722604
378,690.3045266472269
379,690.3416034264833
380,690.3786263837251
381,690.4150841980139
382,690.4504807462463
383,690.4843453792397
384,690.516243339401
385,690.5457855381331
386,690.572637091526
387,690.5965242843105
388,690.617239872125
389,690.6346467864403
390,690.6486803425717
391,690.659348944878
392,690.6667330944441
393,690.6709823779695
394,690.6723101598809
395,690.6709859062779
396,690.6673253545129
397,690.6616790091786
398,690.6544196270594
399,690.6459294276657
400,690.6365877508532
401,690.6267598208423
402,690.616787198798
403,690.6069804225652
404,690.5976142376669
405,690.5889256798278
406,690.5811150082975
407,690.5743491207782
408,690.5687667467574
409,690.564484560395
410,690.5616033888641
411,690.560213836691
412,690.5604008239317
413,690.5622466884528
414,690.565832594876
415,690.5712380577697
416,690.5785385191922
417,690.5878011629247
418,690.5990793954142
419,690.6124065135151
420,690.6277889921948
421,690.6451997339517
422,690.664571693517
423,690.6857924954784
424,690.7087008071478
425,690.7330851483647
426,690.7586854959641
427,690.7851976009729
428,690.8122795742402
429,690.8395601380004
430,690.8666479613998
431,690.8931415894223
432,690.9186395672052
433,690.9427504307828
434,690.9651022599284
435,690.9853514768887
436,691.0031905797973
437,691.0183545641366
438,691.0306258997481
439,691.0398380456554
440,691.0458775410141
441,691.0486846873313
442,691.0482528027205
443,691.044626094687
444,691.0378963920126
445,691.0281991892509
446,691.015709528124
447,691.0006380952165
448,690.9832276352073
449,690.9637495176918
450,690.9425001445645
451,690.9197968573746
452,690.8959731001034
453,690.8713727725287
454,690.8463438564775
455,690.8212314296396
456,690.7963701691714
457,690.7720765227886
458,690.7486408910576
459,690.7263202874419
460,690.7053319432339
461,690.6858482609283
462,690.6679934560814
463,690.6518421414829
464,690.6374199695863
465,690.6247063068422
466,690.613638836984
467,690.6041199685682
468,690.5960248559752
469,690.5892106556192
470,690.5835263848966
471,690.5788225989908
472,690.5749601849504
473,690.5718178527408
474,690.5692981884813
475,690.567332268134
476,690.565882810947
477,690.5649457761272
478,690.5645502573027
479,690.5647565712784
480,690.5656526042667
481,690.5673487018014
482,690.5699715165077
483,690.5736571810573
484,690.5785440373794
485,690.5847650811446
486,690.5924403187239
487,690.6016692828897
488,690.6125239340502
489,690.6250421592254
490,690.6392221764556
491,690.6550183080551
492,690.6723386407244
493,690.6910449533683
494,690.7109550105541
495,690.7318470111617
496,690.7534657657285
497,690.7755301168951
498,690.7977411971217
499,690.819791232791
500,690.8413726370773
501,690.8621870822282
502,690.8819542172378
503,690.9004197628784
504,690.9173628003782
505,690.932602080412
506,690.9460011295563
507,690.9574719028077
508,690.9669767535667
509,690.9745285304813
510,690.9801886557186
511,690.9840631517486
512,690.9862968049509
513,690.9870659325616
514,690.9865704447784
515,690.9850259623947
516,690.9826566002088
517,690.9796886825636
518,690.9763452704233
519,690.97284116349
520,690.9693781031536
521,690.9661401414071
522,690.9632893630361
523,690.9609622600321
524,690.9592670908712
525,690.9582825485492
526,690.9580579876954
527,690.9586153027424
528,690.959952355753
529,690.9620477117736
530,690.9648663819489
531,690.9683662528755
532,690.972504839174
533,690.9772459190776
534,690.9825655286368
535,690.988456757501
536,690.9949328444878
537,691.0020281974238
538,691.0097971360459
539,691.0183103761532
540,691.0276495047623
541,691.0378998758478
542,691.0491424717937
543,691.061445370434
544,691.0748555240757
545,691.0893915183577
546,691.1050378223318
547,691.1217408732435
548,691.1394072484659
549,691.1579041286911
550,691.1770621752235
551,691.1966808112243
552,691.2165357317228
553,691.2363882887665
554,691.255996228678
555,691.2751251256178
556,691.2935597805152
557,691.3111148551812
558,691.3276441046986
559,691.343047742449
560,691.3572776609611
561,691.370340378622
562,691.3822976718393
563,691.3932649000768
564,691.4034070682254
565,691.4129327383865
566,691.4220860202101
567,691.4311370028424
568,691.4403710849091
569,691.4500776803873
570,691.4605387356806
571,691.4720174201806
572,691.484747299756
573,691.4989223091753
574,691.5146878965118
575,691.5321337780972
576,691.5512887637375
577,691.5721180118063
578,691.594522800468
579,691.6183425316759
580,691.6433584002943
581,691.6692980972336
582,691.6958410854052
583,691.7226243073658
584,691.7492485108461
585,691.77528556967
586,691.8002871793518
587,691.8237951700636
588,691.8453534705218
589,691.864521496403
590,691.8808884547477
591,691.8940878282605
592,691.903811199085
593,691.9098205918283
594,691.9119586083478
595,691.910155740468
596,691.9044343839709
597,691.8949092865732
598,691.8817844473708
599,691.8653467649827
600,691.8459569353807
601,691.8240382337489
602,691.8000638988224
603,691.774543849052
604,691.748011357981
605,691.7210101054999
606,691.6940817790887
607,691.6677542389075
608,691.6425302482896
609,691.6188768788503
610,691.5972158381722
611,691.5779150488476
612,691.5612817878467
613,691.5475575921371
614,691.5369150051133
615,691.5294561347602
616,691.525212943557
617,691.524149167242
618,691.5261637068553
619,691.5310952238711
620,691.5387275411593
621,691.548795421471
622,691.5609904223746
623,691.5749667540623
624,691.5903472570468
625,691.6067296576755
626,691.6236931408569
627,691.640805105103
628,691.6576278736427
629,691.6737251858165
630,691.6886684350711
631,691.7020427607602
632,691.7134531608658
633,691.722530748602
634,691.7289392042925
635,691.7323814692354
636,691.7326067552772
637,691.7294178799348
638,691.7226787347341
639,691.712321420208
640,691.6983523652168
641,691.6808567191787
642,691.660000488941
643,691.6360301889708
644,691.6092700546606
645,691.5801170507739
646,691.5490339709869
647,691.5165408888844
648,691.4832051133573
649,691.4496296847414
650,691.4164404326062
651,691.3842717662404
652,691.3537516096848
653,691.3254860588365
654,691.3000443071642
655,691.2779441767597
656,691.2596383658628
657,691.245501478169
658,691.235818076399
659,691.230772247512
660,691.2304393088659
661,691.2347803008992
662,691.243639858568
663,691.2567479246552
664,691.2737255098594
665,691.294094324422
666,691.3172896972972
667,691.3426758746726
668,691.3695626211487
669,691.3972220543351
670,691.4249048141139
671,691.4518549699015
672,691.4773234480793
673,691.500580112217
674,691.5209248114154
675,691.5376976541356
676,691.55028854606
677,691.5581458495978
678,691.5607840582544
679,691.5577906430769
680,691.5488325319045
681,691.5336627750405
682,691.5121277310907
683,691.4841746849504
684,691.4498593770921
685,691.409352613551
686,691.36294500448
687,691.3110489549124
688,691.2541972399096
689,691.1930377418918
690,691.128324178894
691,691.0609029472784
692,690.9916965414355
693,690.9216842847758
694,690.8518811680559
695,690.7833154244546
696,690.7170052243002
697,690.6539347436632
698,690.5950299524442
699,690.5411347296401
700,690.4929881948306
701,690.4512043016895
702,690.4162547149014
703,690.3884558138255
704,690.3679603931186
705,690.3547543193334
706,690.3486581151168
707,690.3493332419041
708,690.3562927670359
709,690.3689160993791
710,690.3864674852416
711,690.4081179227819
712,690.4329700790319
713,690.4600856790902
714,690.4885146442199
715,690.5173249724426
716,690.5456320672959
717,690.5726260830802
718,690.5975959903079
719,690.6199494423471
720,690.6392279317574
721,690.6551169518935
722,690.6674509363071
723,690.6762128216118
724,690.6815282995079
725,690.6836551517832
726,690.6829683636187
727,690.6799418903332
728,690.67512802177
729,690.6691353127238
730,690.6626060600905
731,690.6561942743153
732,690.650544949455
733,690.6462751787504
734,690.6439574109966
735,690.6441050440362
736,690.6471606016092
737,690.6534867785429
738,690.6633605217038
739,690.6769700228573
740,690.6944141303742
741,690.7157034032545
742,690.7407620035726
743,690.7694299118797
744,690.8014654068313
745,690.8365481026001
746,690.8742829203914
747,690.9142052590057
748,690.9557875307706
749,690.9984472616023
750,691.0415570339301
751,691.0844564988661
752,691.1264664396396
753,691.1669045557688
754,691.205102402656
755,691.2404227932033
756,691.2722769164623
757,691.3001404755933
758,691.3235683430493
759,691.3422075282748
760,691.3558084860969
761,691.3642348239092
762,691.3674713252568
763,691.3656300665418
764,691.3589544025416
765,691.3478207101231
766,691.3327378432948
767,691.3143441330699
768,691.2934015014205
769,691.2707860296449
770,691.2474742966294
771,691.2245250323969
772,691.2030560591511
773,691.1842170059364
774,691.1691587635776
775,691.1590009940369
776,691.1547991680787
777,691.1575125942783
778,691.1679748127008
779,691.1868676325888
780,691.2146999464674
781,691.2517921467677
782,691.2982665228624
783,691.3540435993556
784,691.4188441404779
785,691.4921964773931
786,691.5734488056316
787,691.6617860665594
788,691.7562509312373
789,691.8557682373769
790,691.9591720478383
791,692.0652344160959
792,692.1726950119557
793,692.2802909050055
794,692.3867859224816
795,692.4909990600738
796,692.59183141892
797,692.6882910400006
798,692.7795148356182
799,692.8647867097526
800,692.9435510621634
801,693.0154212122358
802,693.0801827162777
803,693.1377918828517
804,693.1883699377994
805,693.2321933427984
806,693.2696808153328
807,693.3013775991628
808,693.327937436288
809,693.3501025605699
810,693.3686820139219
811,693.3845287136413
812,693.3985158368871
813,693.4115130896063
814,693.4243633205394
815,693.4378598920952
816,693.4527253338549
817,693.4695920163518
818,693.4889857194992
819,693.5113128741318
820,693.5368519016256
821,693.5657486172496
822,693.5980153156091
823,693.6335330392046
824,693.6720566144721
825,693.7132222117361
826,693.7565573321251
827,693.8014931802744
828,693.8473793353099
829,693.8935005048768
830,693.9390949839042
831,693.9833743103105
832,694.0255435613678
833,694.0648217468896
834,694.1004617809467
835,694.1317695533543
836,694.1581217139059
837,694.1789819275346
838,694.1939154973973
839,694.2026022992147
840,694.2048478789577
841,694.2005924080111
842,694.1899171135545
843,694.1730478591422
844,694.1503556245963
845,694.1223536048274
846,694.0896905645795
847,694.0531400999974
848,694.0135856165817
849,693.9720010563484
850,693.9294276339348
851,693.886947101097
852,693.8456523857362
853,693.8066167910899
854,693.7708631697811
855,693.7393345168736
856,693.7128672641289
857,693.6921682744794
858,693.6777962056944
859,693.6701475974933
860,693.6694477848804
861,693.6757465697171
862,693.6889184616199
863,693.7086671743332
864,693.7345339424464
865,693.7659092005483
866,693.8020472836009
867,693.8420839310699
868,693.8850563478533
869,693.9299254138201
870,693.9755994856812
871,694.0209591741234
872,694.0648824716097
873,694.1062695961168
874,694.1440668839439
875,694.1772890337696
876,694.2050390169061
877,694.2265250574103
878,694.2410742519241
879,694.2481425990713
880,694.2473213767754
881,694.2383399297605
882,694.2210650565648
883,694.1954973304851
884,694.1617648063053
885,694.1201146294204
886,694.0709030852838
887,694.0145845935685
888,693.9517000438381
889,693.8828646979081
890,693.8087556901459
891,693.7300990200612
892,693.6476559301066
893,693.5622086884225
894,693.4745459637471
895,693.3854481128276
896,693.2956727801517
897,693.205941242213
898,693.1169259094289
899,693.0292393157158
900,692.9434247962472
901,692.8599489312019
902,692.7791957646615
903,692.7014628335824
904,692.6269592031271
905,692.55580594814
906,692.4880396436781
907,692.4236192575963
908,692.3624364218282
909,692.304328584486
910,692.2490941640876
911,692.1965086195399
912,692.1463403588901
913,692.098365619081
914,692.0523817401127
915,692.0082184790175
916,691.9657471067343
917,691.9248870669699
