acceleration,velocity,displacement
-0.0359799117109354,0.0,0.0
-0.035129785415410175,-1.7777424281586392e-05,-4.444356070396598e-09
-0.034281827468438546,-3.513032750254857e-05,-1.7671294016430336e-08
-0.03343819413550736,-5.206033290353505e-05,-3.946895911795124e-08
-0.03260101750565581,-6.857013581382585e-05,-6.962657629729147e-08
-0.031772393382772185,-8.466348853593284e-05,-1.0793498238473115e-07
-0.030954369180942406,-0.0001003451791768615,-1.5418714931292975e-07
-0.030148931894506334,-0.00011562100444572368,-2.0817869521857604e-07
-0.02935799627812439,-0.00013049773648888136,-2.697083804522273e-07
-0.028583393423175316,-0.0001449830839142063,-3.385785855529992e-07
-0.02782685993661961,-0.00015908564725415503,-4.145957683450895e-07
-0.02709002791772582,-0.00017281486921774138,-4.975708974630636e-07
-0.026374415893557056,-0.0001861809801705621,-5.873198598101395e-07
-0.025681420822661085,-0.00019919493934961665,-6.836638396901842e-07
-0.025012311223387648,-0.00021186837236112884,-7.864296676178706e-07
-0.024368221453282237,-0.00022421350553029632,-8.954501370907269e-07
-0.023750147170681156,-0.00023624309768628717,-1.0105642878948728e-06
-0.023158942028809956,-0.00024797036998615995,-1.1316176548129845e-06
-0.022595315651676065,-0.00025940893440628144,-1.2584624809110948e-06
-0.022059832907252542,-0.0002705727215460136,-1.3909578948991685e-06
-0.02155291444406547,-0.0002814759083838431,-1.5289700523816327e-06
-0.02107483841720765,-0.00029213284659916134,-1.6723722411273839e-06
-0.02062574331506035,-0.00030255799203222835,-1.8210449507852313e-06
-0.020205631810519504,-0.0003127658358136233,-1.974875907746694e-06
-0.019814375585052505,-0.0003227708376625163,-2.133760076115729e-06
-0.019451721085179143,-0.0003325873618300742,-2.2975996259888767e-06
-0.019117296150747486,-0.0003422296161390559,-2.466303870481159e-06
-0.018810617406243256,-0.0003517115945283036,-2.639789173147999e-06
-0.018531098259038474,-0.00036104702344462404,-2.8179788276412305e-06
-0.018278057334305032,-0.00037024931234295994,-3.0008029115881265e-06
-0.01805072720024277,-0.0003793315084765969,-3.1881981167930157e-06
-0.01784826327223519,-0.0003883062560947164,-3.380107557935844e-06
-0.017669752801104315,-0.00039718576011305126,-3.576480561987786e-06
-0.017514223845337074,-0.00040598175427466164,-3.7772724405847143e-06
-0.01738065411732285,-0.00041470547376532663,-3.9824442475947114e-06
-0.01726797959309588,-0.0004233676321929313,-4.191962524084276e-06
-0.017175102785532304,-0.00043197840278758835,-4.405799032829406e-06
-0.017100900599243796,-0.0004405474036337824,-4.623930484434749e-06
-0.017044231704950445,-0.00044908368670983095,-4.846338257020652e-06
-0.017003943384971094,-0.00045759573048231134,-5.0730081113186875e-06
-0.016978877807112703,-0.0004660914357803323,-5.3039299028843486e-06
-0.01696787768277654,-0.0004745781246528046,-5.539097292992633e-06
-0.016969791261568903,-0.00048306254188889094,-5.778507459628057e-06
-0.016983476618077416,-0.0004915508588588025,-6.0221608098149805e-06
-0.01700780520088209,-0.0005000486793135424,-6.2700606943580665e-06
-0.017041664633613066,-0.0005085610467721661,-6.522213125879494e-06
-0.017083960772733844,-0.0005170924531237528,-6.7786265008534736e-06
-0.017133619027814545,-0.0005256468480738899,-7.039311326152885e-06
-0.01718958493321526,-0.0005342276490641473,-7.304279950437394e-06
-0.017250823933800733,-0.0005428377512809013,-7.573546300523656e-06
-0.017316320334432634,-0.0005514795373479596,-7.847125622680872e-06
-0.017385075385216615,-0.0005601548862778719,-8.12503422858733e-06
-0.017456104532008514,-0.0005688651812571782,-8.407289245471093e-06
-0.017528433933333264,-0.0005776113158735137,-8.693908369753766e-06
-0.017601096412216997,-0.0005863936984599012,-8.98490962333712e-06
-0.017673127073748608,-0.0005952122543313926,-9.280311111534944e-06
-0.01774355887785812,-0.0006040664258192942,-9.580130781572615e-06
-0.017811418495388115,-0.0006129551701626058,-9.88438618056809e-06
-0.017875722772144904,-0.0006218769554794891,-1.0193094211978614e-05
-0.017935476080309525,-0.0006308297551926027,-1.0506270889646637e-05
-0.0179896687700721,-0.0006398110414051982,-1.0823931088796088e-05
-0.0180372768611433,-0.000648817777813002,-1.1146088293600638e-05
-0.018077263033422945,-0.0006578464127866436,-1.1472754341250549e-05
-0.0181085788907191,-0.0006668928732676792,-1.1803939162764129e-05
-0.018130168396910097,-0.0006759525600895865,-1.2139650521103446e-05
-0.018140972338897103,-0.0006850203452735383,-1.2479893747444227e-05
-0.018139933656936162,-0.0006940905717724966,-1.2824671476705737e-05
-0.018126003485252295,-0.0007031570560580437,-1.3173983383663372e-05
-0.018098147749355392,-0.0007122130938666956,-1.3527825921144557e-05
-0.018055354168091627,-0.0007212514693460574,-1.3886192061947745e-05
-0.017996639513412755,-0.0007302644677664334,-1.4249071046225867e-05
-0.017921056996925873,-0.0007392438918940181,-1.461644813614098e-05
-0.017827703681034437,-0.0007481810820635081,-1.4988304379630363e-05
-0.017715727840933927,-0.0007570669399440002,-1.536461638513224e-05
-0.017584336212391666,-0.0007658919559573315,-1.5745356109107574e-05
-0.0174328010452717,-0.0007746462402717473,-1.6130490658164844e-05
-0.017260466865287878,-0.0007833195572493872,-1.651998210754513e-05
-0.01706675685187412,-0.0007919013631786778,-1.6913787337652146e-05
-0.016851178772623605,-0.0008003808470848022,-1.7311857890218016e-05
-0.016613330459431603,-0.000808746974392816,-1.771413984558742e-05
-0.016352904852965627,-0.0008169885332209154,-1.8120573722490854e-05
-0.01606969467266701,-0.0008250941831023235,-1.8531094401571662e-05
-0.015763596781847324,-0.0008330525059659521,-1.894563107383873e-05
-0.015434616307036991,-0.0008408520592381732,-1.936410721513976e-05
-0.015082870544951792,-0.0008484814309511704,-1.9786440587687095e-05
-0.014708592660078994,-0.000855929296752428,-2.0212543269612994e-05
-0.014312135135904992,-0.000863184478701424,-2.0642321713476456e-05
-0.013893972879015367,-0.000870236005705154,-2.10756768345781e-05
-0.013454705793137864,-0.0008770731753731923,-2.1512504129847686e-05
-0.012995060569578686,-0.0008836856169638714,-2.1952693827931953e-05
-0.012515891409589324,-0.0008900633549586634,-2.2396131070912587e-05
-0.012018179406172896,-0.000896196872662604,-2.2842696127817905e-05
-0.011503030352368132,-0.0009020771751022393,-2.3292264639759115e-05
-0.010971670798658593,-0.000907695850389996,-2.3744707896132173e-05
-0.01042544225588008,-0.0009130451286536306,-2.419989314089308e-05
-0.00986579353300188,-0.0009181179376008511,-2.4657683907456703e-05
-0.009294271291089312,-0.0009229079538068739,-2.5117940380308633e-05
-0.008712508952034882,-0.0009274096488676549,-2.5580519780977265e-05
-0.008122214115864518,-0.0009316183296346298,-2.6045276775602836e-05
-0.007525154648917003,-0.0009355301718258251,-2.651206390096795e-05
-0.006923143649069917,-0.0009391422464003218,-2.6980732005524486e-05
-0.006318023580514196,-0.0009424525382077178,-2.7451130701676497e-05
-0.0057116499658779055,-0.0009454599565943159,-2.7923108825377007e-05
-0.0051058750775454685,-0.0009481643378551717,-2.839651489898938e-05
-0.004502532052902657,-0.0009505664396377838,-2.8871197593362616e-05
-0.003903419787334915,-0.0009526679275978432,-2.9347006185171524e-05
-0.003310288879130908,-0.0009544713547644596,-2.98237910057621e-05
-0.0027248288333257677,-0.0009559801341925738,-3.030140387800136e-05
-0.0021486566628339007,-0.0009571985055666137,-3.077969853794115e-05
-0.0015833069484973354,-0.0009581314964694465,-3.125853103845017e-05
-0.0010302233630790196,-0.0009587848790473405,-3.1737760132329366e-05
-0.00049075165851604,-0.0009591651228027393,-3.221724763279188e-05
3.3865847955864096e-05,-0.0009592793442553794,-3.269685874955641e-05
0.0005424942164932375,-0.0009591352542392671,-3.317646239918007e-05
0.0010341081835746819,-0.0009587411036392501,-3.36559314886497e-05
0.0015077927908511146,-0.0009581056283956437,-3.413514317165842e-05
0.001962742394255814,-0.000957237994599367,-3.461397907740717e-05
0.0023982581788040544,-0.000956147744456102,-3.509232551217104e-05
0.0028137443541761016,-0.000954844743822857,-3.557007363424078e-05
0.0032087032297152362,-0.0009533391319268841,-3.6047119603178214e-05
0.0035827293712820643,-0.0009516412737766347,-3.652336470460409e-05
0.003935503025631479,-0.0009497617156774064,-3.69987154519676e-05
0.004266782967727863,-0.0009477111441790665,-3.747308366693172e-05
0.004576398905698741,-0.0009455003487107099,-3.7946386540154166e-05
0.0048642435803032905,-0.0009431401880892093,-3.8418546674354145e-05
0.0051302647086266,-0.0009406415610169769,-3.8889492111630695e-05
0.005374456921269456,-0.0009380153806095028,-3.9359156347037314e-05
0.005596853816539285,-0.0009352725529250507,-3.982747833042095e-05
0.0057975202160386674,-0.0009324239594169062,-4.029440245850644e-05
0.005976544676031408,-0.0009294804431938887,-4.075987855915914e-05
0.006134032294675966,-0.0009264527989512119,-4.122386186969541e-05
0.006270097848089651,-0.0009233517664155204,-4.168631301103709e-05
0.006384859288769167,-0.0009201880271313057,-4.21471979594238e-05
0.006478431656587262,-0.0009169722043949666,-4.2606488017305364e-05
0.006550921480612884,-0.0009137148661106666,-4.306415978493177e-05
0.006602421774759941,-0.0009104265302968234,-4.352019513403364e-05
0.006633007747988175,-0.0009071176729161364,-4.3974581184836886e-05
0.006642733369756731,-0.0009037987376367001,-4.4427310287475096e-05
0.006631628959754358,-0.0009004801470543223,-4.487838000864785e-05
0.006599700001977381,-0.0008971723148138894,-4.532779312411491e-05
0.006546927401767415,-0.0008938856579629532,-4.577555761730912e-05
0.006473269393373207,-0.000890630608764168,-4.62216866839909e-05
0.006378665257857969,-0.0008874176251013602,-4.666619874245728e-05
0.0062630409299696075,-0.0008842571985544032,-4.7109117448371225e-05
0.006126316464036513,-0.0008811598592059017,-4.75504717128113e-05
0.005968415206525208,-0.0008781361762882613,-4.799029572168484e-05
0.005789274412716135,-0.000875196753883451,-4.842862895422777e-05
0.005588856971265688,-0.0008723522210374555,-4.8865516197957995e-05
0.005367163866535128,-0.0008696132158280053,-4.930100755717436e-05
0.005124247000590692,-0.0008669903631112238,-4.973515845190917e-05
0.004860221998129907,-0.0008644942458615436,-5.016802960415236e-05
0.004575280618802399,-0.0008621353702073105,-5.059968700816957e-05
0.004269702402238486,-0.0008599241244520503,-5.1030201881834415e-05
0.003943865177711542,-0.0008578707325570628,-5.145965059608669e-05
0.003598254094192037,-0.0008559852027390869,-5.1888114579910727e-05
0.003233468881554732,-0.0008542772719951502,-5.2315680198594284e-05
0.0028502291424235787,-0.0008527563474891556,-5.274243860346536e-05
0.002449377576835351,-0.0008514314458093409,-5.316848555178998e-05
0.0020318811313806023,-0.0008503111311322869,-5.3593921196025385e-05
0.0015988301283619026,-0.0008494034533173512,-5.4018849842137794e-05
0.001151435471839957,-0.0008487158869173008,-5.4443379677196455e-05
0.0006910240511634864,-0.0008482552720365499,-5.486762246693492e-05
0.0002190324718927765,-0.0008480277579057858,-5.5291693224420504e-05
-0.0002630007598135204,-0.0008480387499777659,-5.571570985139139e-05
-0.0007534444928551393,-0.000848292861290933,-5.6139792754208564e-05
-0.0012505855521619024,-0.0008487938688021873,-5.6564064436731845e-05
-0.0017526406707813666,-0.0008495446753579232,-5.698864907277187e-05
-0.002257769665569142,-0.0008505472779420108,-5.741367206109686e-05
-0.0027640897508433493,-0.0008518027427961139,-5.783925956628139e-05
-0.003269690845591564,-0.0008533111879452227,-5.826553804896673e-05
-0.003772651691767656,-0.0008550717735795625,-5.869263378934792e-05
-0.00427105655000582,-0.0008570827006400059,-5.912067240790281e-05
-0.004763012178978251,-0.0008593412178222519,-5.9549778387518376e-05
-0.005246664756584253,-0.0008618436370561425,-5.998007460123797e-05
-0.005720216379404337,-0.0008645853573401396,-6.0411681849837044e-05
-0.006181940782675519,-0.0008675608966306597,-6.084471841332974e-05
-0.006630197948582066,-0.000870763931313474,-6.127929962031578e-05
-0.007063447305281736,-0.00087418734262694,-6.171553743880087e-05
-0.007480259264803017,-0.0008778232692694611,-6.215354009177497e-05
-0.007879324917032476,-0.00088166316531492,-6.259341170042107e-05
-0.008259463786414603,-0.0008856978624907818,-6.30352519573725e-05
-0.00861962964432974,-0.0008899176358484679,-6.34791558319573e-05
-0.008958914434709597,-0.0008943122718682278,-6.392521330888647e-05
-0.009276550413299124,-0.00089887113808023,-6.437350916137359e-05
-0.009571910625487264,-0.0009035832533399265,-6.482412275922863e-05
-0.009844507848758385,-0.0009084373579584879,-6.527712791205324e-05
-0.010093992102242775,-0.0009134219829462383,-6.573259274727943e-05
-0.010320146789065168,-0.0009185255176690653,-6.619057962243325e-05
-0.010522883503259094,-0.0009237362752421463,-6.665114507066105e-05
-0.010702235513877938,-0.0009290425549964306,-6.711433977822069e-05
-0.010858349946507554,-0.0009344327013615269,-6.758020859231019e-05
-0.010991478726131316,-0.0009398951585296866,-6.804879055728299e-05
-0.011101968416538911,-0.0009454185203153541,-6.852011897699425e-05
-0.011190249165803029,-0.0009509915747109396,-6.899422150075082e-05
-0.011256823028658979,-0.0009566033427595551,-6.947112023011844e-05
-0.011302251981714116,-0.0009622431115121484,-6.995083184368636e-05
-0.011327145968164806,-0.0009679004609996181,-7.04333677368143e-05
-0.011332151292028879,-0.0009735652853146666,-7.091873417339287e-05
-0.011317939627117551,-0.0009792278080444532,-7.140693244673265e-05
-0.011285197829880304,-0.0009848785924087026,-7.189795904684593e-05
-0.01123461867488325,-0.0009905085465348935,-7.239180583158183e-05
-0.011166892586147099,-0.000996108924350151,-7.28884601993031e-05
-0.011082700409685285,-0.001001671322599109,-7.338790526104041e-05
-0.010982707238081415,-0.0010071876745110508,-7.389012001031795e-05
-0.010867557252454382,-0.0010126502406336848,-7.439507948910414e-05
-0.010737869514785725,-0.001018051597325495,-7.490275494859394e-05
-0.010594234639336484,-0.0010233846233640256,-7.541311400376631e-05
-0.010437212275682247,-0.0010286424850927801,-7.592612078088051e-05
-0.010267329317278412,-0.0010338186204910203,-7.644173605727646e-05
-0.010085078700697131,-0.0010389067224955142,-7.695991739302309e-05
-0.009890918599637913,-0.001043900721820598,-7.748061925410211e-05
-0.009685271773707566,-0.0010487947694139345,-7.800379312691074e-05
-0.009468524836467929,-0.0010535832185664784,-7.852938762390584e-05
-0.009241027279718138,-0.0010582606065955248,-7.905734858019634e-05
-0.009003090214600174,-0.0010628216359691045,-7.95876191408375e-05
-0.008754984914042054,-0.001067261154751265,-8.01201398385176e-05
-0.008496941320080801,-0.0010715741363097957,-8.065484866128285e-05
-0.00822914670492563,-0.0010757556583160474,-8.119168110993931e-05
-0.007951744663234905,-0.0010798008811580876,-8.173057024480784e-05
-0.007664834583791006,-0.001083705025969844,-8.227144672158983e-05
-0.007368471710038986,-0.0010874633525433015,-8.281423881621811e-05
-0.00706266785306347,-0.001091071137434077,-8.335887243871246e-05
-0.006747392771208249,-0.001094523652590145,-8.390527113621852e-05
-0.006422576185107138,-0.0010978161448292239,-8.445335608557335e-05
-0.0060881103654435165,-0.0011009438164668616,-8.500304607589737e-05
-0.0057438532259414254,-0.0011039018073647079,-8.555425748185526e-05
-0.005389631881291582,-0.0011066851786415161,-8.610690422835681e-05
-0.005025246674994862,-0.0011092888982805877,-8.666089774758734e-05
-0.004650475715398763,-0.0011117078288781861,-8.721614692937703e-05
-0.004265079958150658,-0.0011139367177965735,-8.777255806604573e-05
-0.0038688088461784147,-0.0011159701899976558,-8.833003479299428e-05
-0.0034614064891745886,-0.001117802743831494,-8.888847802645157e-05
-0.003042618349302553,-0.0011194287500411132,-8.944778589991973e-05
-0.0026121983949896036,-0.0011208424542271862,-9.00078537009868e-05
-0.0021699166813277694,-0.0011220379829962655,-9.056857381029266e-05
-0.0017155673094298028,-0.001123009353993955,-9.112983564454022e-05
-0.0012489767015165147,-0.0011237504899966914,-9.169152560553788e-05
-0.0007700120946241488,-0.0011242552371957266,-9.225352703733599e-05
-0.0002785901031579073,-0.0011245173877451721,-9.281572019357121e-05
0.00022531486097735235,-0.0011245307065557172,-9.337798221714644e-05
0.0007416625741888093,-0.0011242889621969256,-9.39401871343346e-05
0.0012703396773091232,-0.0011237859616340512,-9.450220586529234e-05
0.0018111533066152638,-0.00112301558838807,-9.506390625279787e-05
0.002363825896417864,-0.0011219718435873118,-9.562515311079171e-05
0.0029279913071050935,-0.001120648889286431,-9.618580829401015e-05
0.0035031923577609012,-0.0011190410933702146,-9.674573078967431e-05
0.004088879762160447,-0.0011171430753402344,-9.730477683185193e-05
0.004684412393217026,-0.00111494975230139,-9.786280003876234e-05
0.0052890587429138295,-0.0011124563845173574,-9.841965157296703e-05
0.005901999412714665,-0.0011096586199784502,-9.897518032409098e-05
0.006522330471611061,-0.0011065525375073687,-9.952923311346244e-05
0.007149067542982513,-0.0011031346880037204,-0.00010008165491984021
0.0077811505026887185,-0.0010994021334923025,-0.00010063228912521422
0.008417448683790874,-0.0010953524836956826,-0.00010118097777951121
0.009056766502911056,-0.0010909839298990072,-0.00010172756188290988
0.009697849455557427,-0.00108629527590939,-0.00010227188168436198
0.010339390458767674,-0.0010812859659308088,-0.00010281377699482203
0.010980036536157574,-0.0010759561091820775,-0.00010335308751360026
0.011618395849819264,-0.0010703065010855832,-0.00010388965316616717
0.012253045099448552,-0.0010643386408482663,-0.00010442331445165063
0.012882537328245047,-0.001058054745241343,-0.00010495391279817304
0.01350541017636642,-0.00105145775836519,-0.00010548129092407467
0.014120194593257437,-0.001044551357172784,-0.00010600529320295916
0.01472542397490966,-0.0010373399525307424,-0.00010652576603038504
0.015319643657005378,-0.0010298286856227636,-0.00010704255818992341
0.01590142067285258,-0.0010220234195402991,-0.00010755552121621417
0.016469353653661964,-0.0010139307259586705,-0.00010806450975258892
0.01702208269290726,-0.0010055578668720282,-0.0001085693819007966
0.01755829893029411,-0.000996912771466228,-0.00010906999956038117
0.01807675356989895,-0.0009880040083411795,-0.00010956622875533302
0.018576266061652538,-0.0009788407534332916,-0.00011005793994577664
0.01905573124530528,-0.0009694327541065522,-0.0001105450083226616
0.019514125351925683,-0.0009597902899572444,-0.00011102731408367756
0.01995051084746734,-0.0009499241309073961,-0.00011150474268889371
0.02036404017055476,-0.0009398454931528906,-0.00011197718509490878
0.020753958456951327,-0.0009295659934960141,-0.000112444537966571
0.02111960534659116,-0.0009190976025451285,-0.00011290670386558129
0.021460415930315974,-0.0009084525972259017,-0.00011336359141552405
0.021775920831193757,-0.0008976435130355243,-0.00011381511544308941
0.022065745366173485,-0.0008866830964861824,-0.00011426119709546984
0.022329607722656363,-0.0008755842582139749,-0.00011470176393414488
0.02256731611552423,-0.0008643600272544298,-0.00011513675000551198
0.022778764960646795,-0.0008530235069853871,-0.00011556609588907194
0.02296393020021421,-0.0008415878331951719,-0.00011598974872411708
0.02312286401455313,-0.0008300661346414801,-0.00011640766221607624
0.023255689216074,-0.0008184714963338233,-0.00011681979662382007
0.023362593614403855,-0.0008068169256262039,-0.00011722611872931008
0.023443824568907715,-0.0007951153210803759,-0.00011762660179098673
0.023499683851517714,-0.0007833794439752696,-0.00011802122548225064
0.023530522891884363,-0.0007716218922894191,-0.00011840997581631681
0.023536738483722546,-0.0007598550769455174,-0.00011879284505862554
0.023518769047381125,-0.0007480912000627414,-0.0001191698316278776
0.023477091517916836,-0.0007363422349214169,-0.00011954093998662364
0.023412218860919837,-0.0007246199073267077,-0.00011990618052218567
