acceleration,velocity,displacement
-0.035979911741832946,0.0,0.0
-0.035129785447387436,-1.7777424297305098e-05,-4.444356074326274e-09
-0.034281827501426054,-3.5130327534508464e-05,-1.7671294032279666e-08
-0.03343819416942755,-5.2060332952221864e-05,-3.9468959153962245e-08
-0.03260101754042145,-6.857013587968411e-05,-6.962657636193873e-08
-0.03177239341828955,-8.466348861936186e-05,-1.0793498248670022e-07
-0.030954369217112945,-0.00010034517927821249,-1.541871494610938e-07
-0.03014893193122179,-0.00011562100456529618,-2.08178695421971e-07
-0.02935799631527005,-0.00013049773662691914,-2.6970838072002485e-07
-0.02858339346063323,-0.00014498308407089497,-3.385785858944784e-07
-0.027826859974268602,-0.00015908564742962044,-4.145957687696073e-07
-0.027090027955443085,-0.00017281486941204835,-4.975708979800244e-07
-0.026374415931214947,-0.00018618098038371286,-5.873198604289647e-07
-0.02568142086013196,-0.00019919493958154959,-6.836638404202803e-07
-0.025012311260547086,-0.00021186837261171935,-7.864296684685975e-07
-0.02436822149000906,-0.0002242135057993584,-8.95450138071367e-07
-0.023750147206857405,-0.000236243097973575,-1.0105642890146004e-06
-0.02315894206432091,-0.0002479703702913696,-1.1316176560808366e-06
-0.02259531568641023,-0.0002594089347290524,-1.2584624823359421e-06
-0.02205983294110327,-0.00027057272188593076,-1.390957896489688e-06
-0.02155291447692773,-0.00028147590874043853,-1.5289700541462804e-06
-0.02107483844898772,-0.00029213284697191737,-1.6723722430743694e-06
-0.020625743345674203,-0.00030255799242058284,-1.8210449529224945e-06
-0.020205631839900883,-0.00031276583621697664,-1.9748759100818844e-06
-0.01981437561315131,-0.0003227708380802397,-2.1337600786561884e-06
-0.019451721111961428,-0.0003325873622615179,-2.297599628741628e-06
-0.019117296176198693,-0.0003422296165835579,-2.466303873452897e-06
-0.01881061743036014,-0.0003517115949851976,-2.639789176345086e-06
-0.01853109828182425,-0.0003610470239132437,-2.8179788310696963e-06
-0.018278057355774226,-0.00037024931282264334,-3.000802915253668e-06
-0.018050727220416375,-0.000379331508966691,-3.1881981207010017e-06
-0.01784826329113742,-0.00038830625659457945,-3.380107562091319e-06
-0.01766975281876424,-0.00039718576062205486,-3.5764805663954776e-06
-0.017514223861783758,-0.00040598175479219183,-3.7772724452490393e-06
-0.01738065413257729,-0.00041470547429078207,-3.982444252519783e-06
-0.017267979607170986,-0.00042336763272571916,-4.191962529273908e-06
-0.01717510279843614,-0.00043197840332712096,-4.405799038287118e-06
-0.017100900610984435,-0.0004405474041794761,-4.623930490163767e-06
-0.0170442317155408,-0.00044908368726110737,-4.8463382630239135e-06
-0.01700394339442408,-0.00045759573103859856,-5.07300811759884e-06
-0.01697887781544285,-0.0004660914363410653,-5.303929909443756e-06
-0.016967877689999997,-0.000474578125217426,-5.5390972998333784e-06
-0.016969791267706667,-0.0004830625424568527,-5.778507466751948e-06
-0.01698347662315533,-0.0004915508594295682,-6.022160817223553e-06
-0.017007805204932457,-0.0005000486798865902,-6.2700607020525926e-06
-0.017041664636676276,-0.0005085610473469924,-6.522213133860988e-06
-0.017083960774851897,-0.0005170924536998744,-6.778626509122705e-06
-0.017133619029026208,-0.0005256468486508439,-7.039311334710384e-06
-0.017189584933549613,-0.0005342276496414878,-7.304279959283467e-06
-0.017250823933277162,-0.0005428377518581945,-7.5735463096583874e-06
-0.017316320333068905,-0.000551479537924781,-7.84712563210413e-06
-0.017385075383030503,-0.0005601548868538059,-8.125034238298777e-06
-0.017456104529012934,-0.0005688651818318167,-8.407289255470182e-06
-0.017528433929537915,-0.0005776113164464544,-8.69390838003975e-06
-0.017601096407633188,-0.0005863936990307472,-8.98490963390905e-06
-0.01767312706839411,-0.000595212254899754,-9.280311122391675e-06
-0.017743558871758786,-0.0006040664263847922,-9.580130792712811e-06
-0.017811418488571408,-0.0006129551707248748,-9.884386191990227e-06
-0.01787572276464637,-0.0006218769560381792,-1.019309422368099e-05
-0.017935476072167944,-0.0006308297557473828,-1.0506270901627381e-05
-0.01798966876132948,-0.0006398110419557571,-1.0823931101053166e-05
-0.018037276851846498,-0.0006488177783590511,-1.1146088306131868e-05
-0.01807726302363013,-0.0006578464133279203,-1.1472754354053611e-05
-0.018108578880490046,-0.0006668928738039503,-1.1803939175836578e-05
-0.018130168386302978,-0.0006759525606206486,-1.2139650534442728e-05
-0.01814097232796524,-0.0006850203457992157,-1.2479893761047693e-05
-0.018139933645723184,-0.0006940905722926378,-1.2824671490570656e-05
-0.018126003473792132,-0.0007031570565725167,-1.3173983397786945e-05
-0.018098147737675523,-0.0007122130943753835,-1.352782593552392e-05
-0.01805535415621791,-0.0007212514698488569,-1.388619207657998e-05
-0.017996639501375894,-0.0007302644682632553,-1.4249071061108009e-05
-0.01792105698476142,-0.0007392438923847896,-1.461644815127002e-05
-0.01782770366878441,-0.0007481810825481761,-1.4988304395003262e-05
-0.017715727828643574,-0.0007570669404225331,-1.536461640074594e-05
-0.01758433620010462,-0.0007658919564297201,-1.5745356124959003e-05
-0.01743280103303644,-0.0007746462407380054,-1.6130490674250935e-05
-0.017260466853156114,-0.0007833195577095535,-1.6519982123862826e-05
-0.01706675683989918,-0.0007919013636328173,-1.691378735419842e-05
-0.01685117876086205,-0.0008003808475330077,-1.7311857906989875e-05
-0.016613330447944837,-0.0008087469748352095,-1.7714139862581928e-05
-0.016352904841816673,-0.0008169885336576498,-1.8120573739705142e-05
-0.016069694661917277,-0.0008250941835335833,-1.853109441900295e-05
-0.015763596771559824,-0.0008330525063919525,-1.8945631091484334e-05
-0.01543461629727637,-0.0008408520596591615,-1.9364107232997113e-05
-0.015082870535776224,-0.0008484814313674246,-1.978644060575376e-05
-0.01470859265153373,-0.0008559292971642521,-2.021254328788668e-05
-0.014312135128025583,-0.0008631844791091419,-2.064232173195503e-05
-0.013893972871829294,-0.0008702360061091057,-2.107567685325959e-05
-0.013454705786666143,-0.0008770731757737295,-2.15125041487303e-05
-0.0129950605638391,-0.0008836856173613558,-2.195269384701407e-05
-0.012515891404591577,-0.0008900633553534634,-2.2396131090192775e-05
-0.012018179401917,-0.0008961968730550906,-2.2842696147294913e-05
-0.011503030348842785,-0.0009020771754927805,-2.3292264659431882e-05
-0.010971670795836342,-0.0009076958507789502,-2.3744707915999816e-05
-0.010425442253727003,-0.0009130451290413411,-2.4199893160954887e-05
-0.009865793531485673,-0.0009181179379876442,-2.4657683927712134e-05
-0.009294271290185747,-0.0009229079541930621,-2.511794040075731e-05
-0.008712508951724578,-0.0009274096492535396,-2.558051980161896e-05
-0.00812221411612971,-0.0009316183300205032,-2.604527679643747e-05
-0.007525154649739919,-0.0009355301722119706,-2.651206392199559e-05
-0.006923143650436022,-0.0009391422467870146,-2.6980732026745335e-05
-0.006318023582410566,-0.0009424525385952262,-2.7451130723090896e-05
-0.005711649968294848,-0.0009454599569829026,-2.7923108846985428e-05
-0.0051058750804781365,-0.0009481643382450958,-2.8396514920792427e-05
-0.0045025320563607425,-0.0009505664400293055,-2.8871197615361028e-05
-0.0039034197913345716,-0.0009526679279912294,-2.9347006207366163e-05
-0.003310288883689904,-0.0009544713551599854,-2.9823791028153965e-05
-0.002724828838453793,-0.0009559801345905214,-3.0301403900591592e-05
-0.0021486566685309494,-0.0009571985059672676,-3.077969856073104e-05
-0.0015833069547537082,-0.0009581314968730888,-3.125853106144113e-05
-0.0010302233698769373,-0.0009587848794542465,-3.1737760155522964e-05
-0.0004907516658296453,-0.0009591651232131732,-3.221724765618982e-05
3.386584015727637e-05,-0.0009592793446695912,-3.2696858773160514e-05
0.000542494208253298,-0.0009591352546574885,-3.317646242299228e-05
0.0010341081749547937,-0.0009587411040616865,-3.3655931512672074e-05
0.0015077927819207592,-0.0009581056288224676,-3.4135143195893115e-05
0.001962742385087705,-0.0009572379950307155,-3.461397910185641e-05
0.0023982581694709047,-0.0009561477448920758,-3.5092325536837106e-05
0.00281374434474901,-0.0009548447442635209,-3.5570073659126006e-05
0.003208703220263686,-0.0009533391323722676,-3.6047119628284955e-05
0.003582729361875539,-0.0009516412742267328,-3.6523364729934706e-05
0.00393550301633623,-0.0009497617161321798,-3.6998715477524436e-05
0.004266782958602066,-0.0009477111446384453,-3.747308369271709e-05
0.00457639889678926,-0.0009455003491745975,-3.794638656617035e-05
0.004864243571650528,-0.0009431401885574875,-3.841854670060337e-05
0.005130264700270959,-0.0009406415614895071,-3.888949213811512e-05
0.005374456913246494,-0.0009380153810861278,-3.935915637375903e-05
0.0055968538088829395,-0.0009352725534055955,-3.982747835738196e-05
0.005797520208781265,-0.0009324239599011794,-4.029440248570865e-05
0.00597654466919881,-0.0009294804436816844,-4.075987858660437e-05
0.006134032288287573,-0.0009264527994423128,-4.1223861897385366e-05
0.006270097842153552,-0.0009233517669097025,-4.168631303897337e-05
0.006384859283285375,-0.0009201880276283428,-4.2147197987607884e-05
0.006478431651542864,-0.0009169722048946357,-4.260648804573863e-05
0.0065509214759836565,-0.000913714866612754,-4.306415981361547e-05
0.006602421770515201,-0.0009104265308011293,-4.3520195162968946e-05
0.006633007744079465,-0.0009071176734224806,-4.397458121402485e-05
0.006642733366116208,-0.0009037987381449316,-4.44273103169167e-05
0.006631628956296405,-0.0009004801475643284,-4.4878380038344015e-05
0.006599699998603458,-0.0008971723153256034,-4.5327793154066495e-05
0.006546927398374135,-0.000893885658476359,-4.5775557647516984e-05
0.0064732693898555665,-0.0008906306092793016,-4.62216867144559e-05
0.006378665254120659,-0.0008874176256183075,-4.66661987731803e-05
0.006263040925930243,-0.0008842571990732948,-4.7109117479353196e-05
0.006126316459627251,-0.0008811598597269054,-4.755047174405325e-05
0.0059684152016895135,-0.0008781361768115762,-4.799029575318787e-05
0.005789274407405552,-0.0008751967544093025,-4.842862898599309e-05
0.005588856965438223,-0.0008723522215660915,-4.886551622998694e-05
0.00536716386014717,-0.0008696132163596951,-4.930100758946839e-05
0.005124246993595401,-0.0008669903636462595,-4.9735158484469875e-05
0.004860221990478828,-0.0008644942464002409,-5.01680296369815e-05
0.004575280610451921,-0.0008621353707500082,-5.059968704126906e-05
0.004269702393151461,-0.0008599241249991073,-5.103020191520634e-05
0.0039438651678637485,-0.0008578707331088535,-5.1459650629733334e-05
0.003598254083575408,-0.0008559852032959937,-5.1888114613834545e-05
0.0032334688701757407,-0.0008542772725575559,-5.2315680232797935e-05
0.0028502291303032384,-0.0008527563480574361,-5.274243863795168e-05
0.0024493775640075997,-0.0008514314463838584,-5.3168485586562005e-05
0.0020318811178939174,-0.000850311131713383,-5.3593921231086315e-05
0.0015988301142760715,-0.0008494034539053405,-5.4018849877491e-05
0.0011514354572276899,-0.0008487158875124646,-5.444337971284545e-05
0.0006910240361088028,-0.0008482552726391305,-5.486762250288335e-05
0.00021903245647969503,-0.0008480277585159833,-5.5291693260672125e-05
-0.0002630007754993666,-0.0008480387505957382,-5.571570988795006e-05
-0.0007534445087216554,-0.0008482928619167934,-5.613979279107819e-05
-0.0012505855681121478,-0.0008487938694360018,-5.656406447391639e-05
-0.001752640686713555,-0.0008495446759997083,-5.6988649110275313e-05
-0.0022577696813782565,-0.0008505472785917313,-5.7413672098923174e-05
-0.0027640897664243744,-0.0008518027434536819,-5.783925960443453e-05
-0.003269690860839485,-0.0008533111886104978,-5.826553808745057e-05
-0.0037726517065823067,-0.0008550717742523533,-5.869263382816628e-05
-0.004271056564291882,-0.0008570827013200719,-5.912067244705939e-05
-0.0047630121926484845,-0.000859341218509307,-5.9549778427016736e-05
-0.0052466647695594976,-0.000861843637749859,-5.998007464108153e-05
-0.00572021639161028,-0.0008645853580401515,-6.041168189002903e-05
-0.006181940794042696,-0.0008675608973365647,-6.0844718453873206e-05
-0.006630197959047475,-0.0008707639320248373,-6.127929966121356e-05
-0.007063447314785609,-0.0008741873433432955,-6.17155374800556e-05
-0.007480259273290431,-0.0008778232699903145,-6.2153540133389e-05
-0.007879324924451743,-0.0008816631660397501,-6.259341174239651e-05
-0.008259463792717265,-0.0008856978632190423,-6.303525199971121e-05
-0.008619629649473803,-0.0008899176365795901,-6.347915587466087e-05
-0.00895891443865791,-0.000894312272601623,-6.392521335195617e-05
-0.00927655041602747,-0.0008988711388152943,-6.43735092048104e-05
-0.009571910626981112,-0.0009035832540760465,-6.482412280303323e-05
-0.009844507849014517,-0.0009084373586950453,-6.527712795622601e-05
-0.01009399210126282,-0.0009134219836826147,-6.573259279182042e-05
-0.010320146786853987,-0.000918525518404644,-6.619057966734223e-05
-0.010522883499831243,-0.0009237362759763152,-6.665114511593746e-05
-0.010702235509257661,-0.0009290425557285874,-6.711433982386369e-05
-0.010858349940732023,-0.0009344327020910848,-6.75802086383186e-05
-0.010991478719245783,-0.0009398951592560793,-6.804879060365539e-05
-0.011101968408595089,-0.0009454185210380395,-6.852011902372892e-05
-0.011190249156860706,-0.0009509915754294034,-6.899422154784578e-05
-0.01125682301878764,-0.0009566033434733155,-6.947112027757146e-05
-0.01130225197099617,-0.0009622431122207614,-6.995083189149497e-05
-0.011327145956697201,-0.0009679004617026848,-7.043336778497584e-05
-0.011332151279918257,-0.0009735652860118387,-7.091873422190447e-05
-0.0113179396144754,-0.0009792278087354372,-7.140693249559128e-05
-0.011285197816821343,-0.0009848785930932614,-7.189795909604846e-05
-0.011234618661522198,-0.0009905085472128473,-7.2391805881125e-05
-0.011166892572598675,-0.0009961089250213775,-7.288846024918356e-05
-0.01108270039606582,-0.0010016713232635437,-7.338790531125479e-05
-0.010982707224512092,-0.0010071876751686882,-7.389012006086285e-05
-0.01086755723905961,-0.0010126502412845812,-7.439507953997616e-05
-0.010737869501697994,-0.0010180515979697706,-7.490275499978975e-05
-0.01059423462668505,-0.0010233846240018662,-7.541311405528265e-05
-0.010437212263596368,-0.0010286424857244366,-7.592612083271423e-05
-0.010267329305876035,-0.0010338186211168046,-7.644173610942454e-05
-0.010085078690083278,-0.0010389067231157945,-7.695991744548268e-05
-0.00989091858990791,-0.0010439007224357923,-7.748061930687058e-05
-0.009685271764947047,-0.001048794770024506,-7.800379317998566e-05
-0.00946852482875122,-0.0010535832191729305,-7.852938767728502e-05
-0.009241027273111485,-0.0010582606071983963,-7.905734863387784e-05
-0.009003090209163362,-0.001062821636568965,-7.958761919481968e-05
-0.008754984909823555,-0.0010672611553487117,-8.01201398927991e-05
-0.00849694131712263,-0.0010715741369054482,-8.065484871586263e-05
-0.008229146703263331,-0.0010757556589105447,-8.119168116481664e-05
-0.007951744662894337,-0.001079800881752084,-8.173057029998229e-05
-0.007664834584778636,-0.0010837050265640022,-8.227144677706131e-05
-0.007368471712340278,-0.001087463353138282,-8.281423887198688e-05
-0.007062667856642886,-0.0010910711380305276,-8.335887249477909e-05
-0.00674739277601248,-0.0010945236531886915,-8.39052711925839e-05
-0.006422576191063486,-0.0010978161454304606,-8.445335614223868e-05
-0.006088110372461514,-0.0011009438170713419,-8.500304613286413e-05
-0.005743853233912831,-0.0011039018079729355,-8.55542575391252e-05
-0.00538963189008392,-0.0011066851792539347,-8.610690428593192e-05
-0.00502524668445304,-0.001109288898897569,-8.66608978054698e-05
-0.004650475725349917,-0.0011117078295000196,-8.72161469875692e-05
-0.0042650799684170754,-0.0011139367184234614,-8.777255812455006e-05
-0.0038688088565840004,-0.0011159701906297117,-8.833003485181336e-05
-0.003461406499543247,-0.0011178027444687434,-8.888847808558797e-05
-0.003042618359467882,-0.001119428750683496,-8.944778595937603e-05
-0.002612198404799742,-0.0011208424548745629,-9.000785376076554e-05
-0.002169916690642166,-0.0011220379836484233,-9.056857387039629e-05
-0.0017155673181208303,-0.0011230093546506141,-9.112983570497105e-05
-0.0012489767094759345,-0.0011237504906575133,-9.169152566629807e-05
-0.0007700121017663403,-0.0011242552378603239,-9.225352709842754e-05
-0.00027859010942309976,-0.0011245173884131213,-9.28157202549959e-05
0.00022531485563115773,-0.0011245307072265693,-9.337798227890582e-05
0.0007416625697906866,-0.0011242889628702139,-9.394018719643001e-05
0.0012703396738736059,-0.0011237859623092978,-9.450220592772489e-05
0.0018111533041439605,-0.0011230155890647935,-9.50639063155684e-05
0.002363825894905921,-0.001121971844265031,-9.562515317390086e-05
0.0029279913065411957,-0.0011206488899646691,-9.618580835745828e-05
0.0035031923581353474,-0.0011190410940485,-9.674573085346158e-05
0.004088879763463538,-0.0011171430760181004,-9.730477689597823e-05
0.004684412395434216,-0.001114949752978376,-9.786280010322734e-05
0.005289058746032189,-0.0011124563851930094,-9.841965163777019e-05
0.005901999416721263,-0.0011096586206523211,-9.897518038923151e-05
0.006522330476488123,-0.0011065525381790187,-9.952923317893935e-05
0.007149067548704185,-0.0011031346886727206,-0.00010008165498565228
0.0077811505092243004,-0.0010994021341582385,-0.00010063228919136002
0.008417448691108052,-0.0010953524843581555,-0.00010118097784598912
0.009056766510980746,-0.0010909839305576334,-0.00010172756194971807
0.00969784946435701,-0.001086295276563799,-0.00010227188175149842
0.010339390468279377,-0.0010812859665806397,-0.00010281377706228453
0.010980036546365243,-0.0010759561098269785,-0.00010335308758138644
0.01161839586071159,-0.0010703065017252094,-0.00010388965323427449
0.012253045111012613,-0.0010643386414822783,-0.00010442331452007636
0.012882537340463074,-0.0010580547458694093,-0.00010495391286691429
0.01350541018921903,-0.0010514577589869887,-0.00010548129099312839
0.014120194606715552,-0.001044551357788005,-0.00010600529327232213
0.014725423988936127,-0.0010373399531390921,-0.0001065257661000539
0.01531964367155335,-0.0010298286862239698,-0.00010704255825989467
0.015901420687859054,-0.0010220234201341167,-0.00010755552128648419
0.016469353669052635,-0.0010139307265448888,-0.00010806450982315394
0.017022082708601352,-0.0010055578674504754,-0.00010856938197165278
0.017558298946204386,-0.000996912772036774,-0.00010906999963152459
0.018076753585928487,-0.0009880040089037406,-0.00010956622882675972
0.018576266077699567,-0.0009788407539878337,-0.00011005794001748262
0.019055731261263174,-0.0009694327546530929,-0.00011054500839464284
0.0195141253676846,-0.000959790290495856,-0.00011102731415593008
0.01995051086291581,-0.0009499241314382059,-0.0001115047427614136
0.02036404018558132,-0.0009398454936760816,-0.00011197718516769216
0.020753958471449358,-0.000929565994011824,-0.00011244453803961413
0.02111960536046051,-0.0009190976030538465,-0.00011290670393888055
0.021460415943467797,-0.0009084525977278644,-0.00011336359148907599
0.021775920843552135,-0.0008976435135311094,-0.00011381511551689072
0.022065745377680267,-0.0008866830969758013,-0.00011426119716951746
0.022329607733271178,-0.0008755842586980634,-0.00011470176400843593
0.02256731612522447,-0.0008643600277334395,-0.0001151367500800438
0.02277876496942602,-0.0008530235074597768,-0.00011556609596384211
0.02296393020808535,-0.000841587833665399,-0.0001159897487991234
0.023122864021553363,-0.0008300661351079893,-0.00011640766229131676
0.023255689222258274,-0.0008184714967970364,-0.00011681979669929301
0.023362593619844888,-0.0008068169260865107,-0.0001172261188050139
0.023443824573692762,-0.0007951153215381263,-0.00011762660186692006
0.023499683855748573,-0.000783379444430766,-0.00011802122555841228
0.023530522895675757,-0.00077162189274291,-0.0001184099758927057
0.023536738487194047,-0.0007598550773971925,-0.00011879284513524073
0.023518769050650683,-0.0007480912005127313,-0.00011916983170471821
0.02347709152109756,-0.0007363422353697943,-0.00011954094006368884
0.02341221886411514,-0.0007246199077734911,-0.00011990618059947465
