frame_number,force
0,687.7741090027754
1,687.834110321161
2,687.8939571604815
3,687.9534959118627
4,688.0125747077152
5,688.0710442942562
6,688.1287589041573
7,688.1855771242114
8,688.2413627481062
9,688.2959856005998
10,688.3493223179147
11,688.4012570699589
12,688.4516822125353
13,688.5004988615108
14,688.5476173848451
15,688.5929578105946
16,688.6364501486472
17,688.6780346225123
18,688.7176618075528
19,688.7552926745448
20,688.7908985411057
21,688.8244609364959
22,688.8559713863864
23,688.8854311232399
24,688.9128507261281
25,688.9382496929563
26,688.9616559495622
27,688.9831053037209
28,689.0026408555934
29,689.0203123772023
30,689.0361756717364
31,689.0502919208852
32,689.0627270271698
33,689.0735509586266
34,689.0828371039291
35,689.0906616460693
36,689.0971029619445
37,689.1022410538371
38,689.1061570173221
39,689.108932549112
40,689.1106494979304
41,689.1113894616159
42,689.1112334339233
43,689.1102615042404
44,689.1085526123733
45,689.1061843590908
46,689.1032328720163
47,689.0997727263806
48,689.0958769214031
49,689.0916169150237
50,689.0870627206663
51,689.0822830680711
52,689.0773456259601
53,689.0723172789864
54,689.0672644464195
55,689.0622534253937
56,689.057350737193
57,689.052623452182
58,689.0481394692434
59,689.04396772895
60,689.0401783446332
61,689.03684264095
62,689.0340330955105
63,689.0318231854739
64,689.0302871465448
65,689.0294996551496
66,689.02953544559
67,689.0304688738004
68,689.0323734390723
69,689.0353212749893
70,689.0393826204489
71,689.0446252804526
72,689.0511140842116
73,689.0589103460035
74,689.0680713335751
75,689.0786497499967
76,689.0906932361743
77,689.1042439008278
78,689.1193378823259
79,689.1360049434592
80,689.1542680971523
81,689.1741432588543
82,689.1956389204306
83,689.2187558411597
84,689.2434867533588
85,689.2698160824215
86,689.2977196840267
87,689.3271646060184
88,689.3581088885666
89,689.3905014214639
90,689.4242818797194
91,689.4593807577251
92,689.4957195193451
93,689.533210877154
94,689.5717592085823
95,689.611261109829
96,689.6516060815801
97,689.6926773363238
98,689.7343527159251
99,689.7765057074985
100,689.819006542358
101,689.8617233564181
102,689.9045233833419
103,689.9472741477232
104,689.9898446268551
105,690.032106354902
106,690.0739344492006
107,690.1152085433984
108,690.1558136172301
109,690.1956407184243
110,690.2345875764279
111,690.2725591080554
112,690.3094678124668
113,690.3452340501477
114,690.379786200537
115,690.413060696376
116,690.4450019385374
117,690.4755621006572
118,690.5047008365767
119,690.5323849053417
120,690.5585877287809
121,690.5832888954384
122,690.6064736223809
123,690.6281321848609
124,690.6482593239724
125,690.6668536433904
126,690.6839170062443
127,690.6994539412699
128,690.7134710644709
129,690.725976520303
130,690.7369794453253
131,690.7464894567428
132,690.7545161683029
133,690.7610687372563
134,690.7661554481739
135,690.7697833412535
136,690.7719578940714
137,690.7726827672196
138,690.7719596263784
139,690.7697880556825
140,690.7661655786208
141,690.761087801892
142,690.7545486941007
143,690.7465410051478
144,690.7370568241208
145,690.726088264393
146,690.7136282564699
147,690.6996714236469
148,690.6842150130267
149,690.667259853853
150,690.6488113152146
151,690.6288802352594
152,690.6074837941202
153,690.5846463032374
154,690.560399885529
155,690.5347850249348
156,690.5078509704431
157,690.4796559873254
158,690.4502674549367
159,690.4197618151776
160,690.3882243787705
161,690.3557489982585
162,690.3224376173171
163,690.2883997056748
164,690.2537515874793
165,690.2186156685777
166,690.1831195666537
167,690.1473951491395
168,690.1115774866518
169,690.075803732572
170,690.0402119422158
171,690.0049398488326
172,689.9701236181401
173,689.9358966066654
174,689.9023881507801
175,689.8697224128854
176,689.8380173093157
177,689.8073835419593
178,689.7779237522103
179,689.7497318107417
180,689.7228922499634
181,689.6974798396258
182,689.673559301245
183,689.6511851538554
184,689.6304016817884
185,689.6112430150982
186,689.5937333150264
187,689.5778870596321
188,689.563709427251
189,689.5511967768763
190,689.5403372240061
191,689.5311113072639
192,689.5234927358217
193,689.5174492021451
194,689.5129432400414
195,689.509933104646
196,689.5083736494579
197,689.5082171767692
198,689.5094142419165
199,689.5119143974263
200,689.5156668683601
201,689.520621153545
202,689.5267275494467
203,689.5339375960026
204,689.5422044471086
205,689.5514831708534
206,689.5617309849057
207,689.5729074321708
208,689.5849745032127
209,689.5978967155467
210,689.611641164434
211,689.626177563076
212,689.6414782897599
213,689.6575184541185
214,689.6742759854786
215,689.6917317370609
216,689.7098695939139
217,689.7286765705774
218,689.7481428852997
219,689.7682619998008
220,689.7890306164309
221,689.8104486279755
222,689.832519019008
223,689.8552477210574
224,689.8786434261781
225,689.9027173638656
226,689.927483044223
227,689.9529559669238
228,689.9791532930319
229,690.0060934767399
230,690.0337958560928
231,690.0622802039255
232,690.0915662413715
233,690.1216731166566
234,690.1526188521432
235,690.1844197630464
236,690.2170898524008
237,690.2506401893771
238,690.2850782819613
239,690.3204074595772
240,690.3566262851206
241,690.3937280174262
242,690.4317001437292
243,690.4705239981351
244,690.5101744774556
245,690.5506198602322
246,690.5918217288133
247,690.6337349888885
248,690.6763079765867
249,690.7194826408773
250,690.7631947891848
251,690.8073743859212
252,690.8519458952309
253,690.8968286602154
254,690.9419373123726
255,690.9871822073927
256,691.0324698857692
257,691.0777035579317
258,691.1227836143123
259,691.1676081619429
260,691.2120735906173
261,691.2560751717432
262,691.2995076908278
263,691.3422661111842
264,691.3842462638437
265,691.4253455570188
266,691.4654636961394
267,691.5045034013358
268,691.5423711043262
269,691.5789776036255
270,691.6142386580661
271,691.6480755038175
272,691.6804152872016
273,691.711191412243
274,691.7403438068998
275,691.7678191149109
276,691.7935708204404
277,691.8175593098129
278,691.8397518700027
279,691.860122619886
280,691.8786523694223
281,691.8953284042236
282,691.9101441981942
283,691.9230990642826
284,691.9341977607586
285,691.9434500749431
286,691.950870405824
287,691.956477361569
288,691.960293381021
289,691.9623443844711
290,691.9626594595092
291,691.9612705889443
292,691.9582124258734
293,691.9535221159932
294,691.9472391618359
295,691.939405319702
296,691.9300645178912
297,691.9192627837313
298,691.9070481665098
299,691.893470644209
300,691.8785820046205
301,691.862435695203
302,691.8450866388446
303,691.8265910134612
304,691.8070059933957
305,691.7863894519954
306,691.7647996284749
307,691.7422947673937
308,691.7189327437005
309,691.6947706882228
310,691.6698646268851
311,691.6442691425063
312,691.618037062749
313,691.5912191743946
314,691.5638639642805
315,691.5360173901636
316,691.5077226882835
317,691.4790202267075
318,691.4499474138053
319,691.4205386693822
320,691.3908254629279
321,691.3608364200403
322,691.3305974948471
323,691.3001322038317
324,691.2694619156501
325,691.2386061920038
326,691.2075831750752
327,691.1764100165886
328,691.145103342291
329,691.1136797439536
330,691.0821562893311
331,691.0505510394823
332,691.0188835628503
333,690.9871754365023
334,690.9554507264415
335,690.9237364398298
336,690.8920629411178
337,690.8604643211883
338,690.8289787049384
339,690.7976484804535
340,690.7665204334043
341,690.7356457733543
342,690.705080043546
343,690.6748829120826
344,690.6451178496162
345,690.6158517052193
346,690.5871541965925
347,690.5590973326845
348,690.53175478641
349,690.5052012326679
350,690.4795116628276
351,690.4547606825138
352,690.431021795995
353,690.4083666780945
354,690.3868644336143
355,690.3665808456485
356,690.3475776181474
357,690.3299116234208
358,690.313634169835
359,690.2987903073517
360,690.2854181887342
361,690.273548502802
362,690.2632039933129
363,690.2543990733014
364,690.2471395413311
365,690.2414224042997
366,690.2372358107469
367,690.2345590978421
368,690.2333629539531
369,690.2336096967239
370,690.235253662799
371,690.2382416992202
372,690.2425137402685
373,690.2480034508325
374,690.2546389198191
375,690.2623433929052
376,690.2710360398004
377,690.2806327545682
378,690.2910469879678
379,690.302190609672
380,690.3139747967273
381,690.3263109418294
382,690.3391115698071
383,690.3522912444437
384,690.3657674435206
385,690.3794613798472
386,690.3932987497291
387,690.407210395647
388,690.421132874837
389,690.4350089290514
390,690.4487878524823
391,690.462425754229
392,690.4758857097607
393,690.4891377949515
394,690.5021589982159
395,690.5149330109226
396,690.5274499021774
397,690.5397056896286
398,690.5517018220185
399,690.5634445913998
400,690.5749444935504
401,690.5862155548402
402,690.5972746431618
403,690.6081407796568
404,690.6188344667862
405,690.6293770461555
406,690.6397900952919
407,690.6500948664461
408,690.6603117648069
409,690.6704598606887
410,690.6805564304653
411,690.6906165229643
412,690.7006525504125
413,690.7106739049096
414,690.7206866021978
415,690.7306929547753
416,690.7406912777335
417,690.7506756338034
418,690.7606356272604
419,690.7705562568399
420,690.7804178353742
421,690.7901959813315
422,690.7998616876326
423,690.8093814755383
424,690.818717642858
425,690.8278286134994
426,690.8366693891551
427,690.8451920958579
428,690.8533466114308
429,690.8610812566475
430,690.8683435327787
431,690.875080889348
432,690.881241507208
433,690.8867750830575
434,690.8916336019263
435,690.8957720840585
436,690.8991492929457
437,690.901728392672
438,690.9034775450866
439,690.904370439774
440,690.9043867513647
441,690.9035125190625
442,690.9017404434742
443,690.8990700977544
444,690.895508054176
445,690.8910679316708
446,690.8857703719614
447,690.8796429503991
448,690.8727200238428
449,690.8650425144197
450,690.8566576263012
451,690.847618492917
452,690.8379837543106
453,690.8278170679376
454,690.8171865591871
455,690.8061642188907
456,690.7948252552424
457,690.7832474090768
458,690.771510244397
459,690.7596944281835
460,690.7478810135412
461,690.7361507391188
462,690.7245833565452
463,690.7132569959928
464,690.7022475774293
465,690.6916282724472
466,690.6814690199441
467,690.6718360981865
468,690.6627917542976
469,690.6543938886769
470,690.646695787222
471,690.6397458912669
472,690.6335875961374
473,690.6282590734819
474,690.6237931168805
475,690.6202170120713
476,690.6175524324451
477,690.6158153588484
478,690.6150160215763
479,690.6151588628005
480,690.6162425201229
481,690.6182598353286
482,690.6211978942241
483,690.6250381023485
484,690.6297562987626
485,690.635322908607
486,690.6417031354343
487,690.6488571948142
488,690.6567405900728
489,690.6653044304674
490,690.6744957933864
491,690.6842581344592
492,690.6945317500966
493,690.705254294461
494,690.7163613479438
495,690.7277870289296
496,690.7394646369012
497,690.7513273138729
498,690.7633087124362
499,690.7753436606396
500,690.7873688145684
501,690.7993232887803
502,690.811149254558
503,690.8227924973112
504,690.8342029261975
505,690.8453350295902
506,690.8561482696356
507,690.8666074091461
508,690.8766827649656
509,690.8863503831125
510,690.89559213231
511,690.9043957149419
512,690.9127545987043
513,690.920667877392
514,690.9281400735232
515,690.9351808971363
516,690.941804973054
517,690.9480315436023
518,690.9538841477051
519,690.9593902739964
520,690.9645809868794
521,690.9694905286423
522,690.97415590457
523,690.9786164599357
524,690.9829134583487
525,690.9870896707738
526,690.9911889832481
527,690.9952560285864
528,690.9993358440086
529,691.0034735541087
530,691.0077140774241
531,691.0121018542776
532,691.0166805926335
533,691.0214930271699
534,691.0265806851048
535,691.0319836515018
536,691.0377403274223
537,691.0438871761176
538,691.0504584550748
539,691.0574859351078
540,691.064998611264
541,691.0730224130492
542,691.0815799231378
543,691.0906901150665
544,691.1003681212875
545,691.1106250420956
546,691.1214678031466
547,691.1328990663088
548,691.1449171969272
549,691.1575162896398
550,691.1706862534409
551,691.1844129544018
552,691.1986784116916
553,691.2134610395699
554,691.2287359252512
555,691.2444751304096
556,691.2606480029501
557,691.2772214858256
558,691.294160411393
559,691.3114277728346
560,691.3289849675058
561,691.346792009716
562,691.3648077121363
563,691.3829898360157
564,691.4012952111656
565,691.4196798279414
566,691.4380989054941
567,691.4565069428512
568,691.4748577609454
569,691.493104544022
570,691.5111998880475
571,691.5290958623712
572,691.5467440898007
573,691.5640958500975
574,691.581102212538
575,691.5977142039238
576,691.6138830184025
577,691.6295602733967
578,691.6446983109961
579,691.6592505376241
580,691.6731717896904
581,691.6864187115368
582,691.6989501345062
583,691.7107274510394
584,691.7217149829689
585,691.7318803462588
586,691.7411948144539
587,691.7496336809136
588,691.7571766165986
589,691.7638080161356
590,691.7695173205551
591,691.7742993017787
592,691.7781542927389
593,691.7810883479693
594,691.7831133217275
595,691.7842468533381
596,691.7845122524917
597,691.7839382815014
598,691.7825588370429
599,691.7804125393197
600,691.7775422407167
601,691.7739944688964
602,691.7698188213
603,691.7650673287103
604,691.7597938042579
605,691.7540531910537
606,691.7479009177841
607,691.7413922689977
608,691.7345817765324
609,691.7275226401199
610,691.7202661871773
611,691.7128613826876
612,691.7053543991752
613,691.6977882544049
614,691.6902025214927
615,691.6826331135674
616,691.6751121433922
617,691.6676678570526
618,691.660324639001
619,691.6531030829059
620,691.6460201197192
621,691.6390891929814
622,691.6323204726739
623,691.6257211019636
624,691.6192954736916
625,691.6130455335879
626,691.6069711047826
627,691.6010702249838
628,691.5953394859912
629,691.5897743660211
630,691.5843695477814
631,691.5791192178257
632,691.574017344092
633,691.5690579283205
634,691.564235229492
635,691.5595439551126
636,691.5549794184724
637,691.5505376598916
638,691.5462155276176
639,691.5420107105407
640,691.5379217124002
641,691.5339477577685
642,691.5300886242225
643,691.5263444010959
644,691.5227151808548
645,691.5192006930688
646,691.5157998928073
647,691.5125105153638
648,691.5093286079552
649,691.5062480474743
650,691.5032600533135
651,691.5003527067955
652,691.4975104925802
653,691.4947138798201
654,691.4919389597826
655,691.4891571524532
656,691.4863349899987
657,691.4834339831651
658,691.4804105784489
659,691.4772162166502
660,691.4737975043847
661,691.470096508937
662,691.4660511844509
663,691.461595933795
664,691.4566623046553
665,691.4511798106449
666,691.4450768600659
667,691.4382817683115
668,691.4307238259776
669,691.4223343939117
670,691.413047998482
671,691.4028034047815
672,691.3915446514071
673,691.379222036128
674,691.365793044866
675,691.3512232157562
676,691.3354869269461
677,691.3185680945332
678,691.3004607685924
679,691.2811696207766
680,691.260710323345
681,691.2391098224914
682,691.2164065067917
683,691.1926502662855
684,691.1679024322821
685,691.1422355846495
686,691.1157332131393
687,691.0884892223552
688,691.0606072751708
689,691.0321999751245
690,691.0033878940106
691,690.9742984571507
692,690.9450647056531
693,690.9158239604736
694,690.8867164148816
695,690.8578836797001
696,690.82946730188
697,690.8016072748635
698,690.7744405605024
699,690.7480996461944
700,690.7227111648906
701,690.6983946073276
702,690.6752611543363
703,690.653412652853
704,690.6329407533133
705,690.6139262194249
706,690.5964384149526
707,690.5805349671889
708,690.5662616037534
709,690.5536521577371
710,690.5427287348236
711,690.5335020340374
712,690.5259718112503
713,690.5201274715364
714,690.5159487722943
715,690.5134066135791
716,690.512463886717
717,690.5130763496193
718,690.5151934992798
719,690.5187594182236
720,690.5237135786363
721,690.5299915920299
722,690.5375258937372
723,690.5462463533488
724,690.5560808065579
725,690.5669555100864
726,690.5787955271579
727,690.591525054762
728,690.6050677058557
729,690.6193467607645
730,690.6342854028736
731,690.6498069536957
732,690.6658351204411
733,690.6822942652457
734,690.6991097012025
735,690.7162080187419
736,690.7335174466432
737,690.7509682523888
738,690.7684931842876
739,690.7860279525174
740,690.8035117395785
741,690.8208877253511
742,690.8381036108581
743,690.8551121289715
744,690.871871537231
745,690.8883460931631
746,690.9045065132842
747,690.920330414598
748,690.9358027353447
749,690.9509161319895
750,690.9656713505935
751,690.9800775698158
752,690.9941527088664
753,691.0079236888396
754,691.021426632428
755,691.0347069855435
756,691.0478195443314
757,691.0608283728333
758,691.0738066009397
759,691.0868360984856
760,691.1000070265887
761,691.1134172693061
762,691.1271717478774
763,691.1413816190532
764,691.1561633605544
765,691.1716377501375
766,691.1879287472684
767,691.2051622857912
768,691.2234649828248
769,691.2429627663886
770,691.2637794247249
771,691.2860350847715
772,691.3098446347482
773,691.335316114527
774,691.3625491053305
775,691.3916331556951
776,691.4226462826273
777,691.4556535857657
778,691.4907060096816
779,691.5278392864535
780,691.5670730865646
781,691.6084103992487
782,691.6518371539788
783,691.6973220857709
784,691.744816840887
785,691.7942563162061
786,691.845559223201
787,691.8986288647995
788,691.953354109821
789,692.009610545037
790,692.0672617802068
791,692.1261608786011
792,692.1861518854455
793,692.2470714281583
794,692.308750363578
795,692.3710154480174
796,692.433691005807
797,692.4966005704929
798,692.5595684704704
799,692.6224213297722
800,692.6849894574059
801,692.7471081054681
802,692.808618584884
803,692.8693692345954
804,692.9292162440455
805,692.9880243313162
806,693.0456672816662
807,693.102028352881
808,693.1570005538033
809,693.2104868017344
810,693.2623999654533
811,693.3126628039453
812,693.3612078142708
813,693.4079770028849
814,693.4529215936086
815,693.4960016850858
816,693.537185872696
817,693.5764508534446
818,693.6137810344633
819,693.6491681638133
820,693.682610995907
821,693.7141149955847
822,693.7436920783653
823,693.7713603816018
824,693.7971440617831
825,693.8210731151834
826,693.8431832206187
827,693.8635156031648
828,693.8821169161631
829,693.8990391360697
830,693.9143394614704
831,693.9280802050589
832,693.9403286663684
833,693.9511569732194
834,693.9606418804337
835,693.9688645153587
836,693.9759100618006
837,693.981867377071
838,693.9868285400181
839,693.9908883296805
840,693.994143633796
841,693.9966927849804
842,693.9986348223822
843,694.0000686788638
844,694.001092296272
845,694.0018016721145
846,694.0022898407483
847,694.0026457934631
848,694.0029533453894
849,694.0032899615934
850,694.0037255590196
851,694.0043213055551
852,694.0051284429737
853,694.0061871659565
854,694.0075255927279
855,694.0091588626068
856,694.0110883920933
857,694.0133013151759
858,694.0157701265997
859,694.018452539945
860,694.0212915663542
861,694.0242158149324
862,694.0271400117604
863,694.0299657302457
864,694.0325823213591
865,694.0348680297839
866,694.0366912818748
867,694.0379121314005
868,694.0383838467253
869,694.0379546187563
870,694.0364693650772
871,694.0337716034762
872,694.029705367009
873,694.0241171319033
874,694.0168577287025
875,694.00778420645
876,693.9967616201426
877,693.9836647136592
878,693.9683794739104
879,693.9508045363206
880,693.930852425831
881,693.9084506211659
882,693.8835424338878
883,693.8560876980085
884,693.8260632698222
885,693.7934633407293
886,693.7582995682574
887,693.720601032013
888,693.6804140215843
889,693.637801662573
890,693.5928433856416
891,693.5456342430025
892,693.4962840784293
893,693.4449165604924
894,693.391668092844
895,693.3366866187359
896,693.2801303392137
897,693.2221663657041
898,693.1629693279144
899,693.1027199568924
900,693.0416036610502
901,692.9798091108258
902,692.9175268462429
903,692.8549479216115
904,692.7922626037002
905,692.7296591430279
906,692.6673226391196
907,692.6054340168107
908,692.5441691227467
909,692.4836979422702
910,692.4241839294541
911,692.3657834384645
912,692.3086452434695
913,692.2529101366769
914,692.1987105978341
915,692.1461705311631
916,692.0954050663123
917,692.0465204195432
