frame_number,force
0,687.7741090014614
1,687.8341103199593
2,687.893957159401
3,687.9534959109113
4,688.0125747068992
5,688.0710442935798
6,688.1287589036233
7,688.1855771238216
8,688.2413627478611
9,688.2959856004983
10,688.3493223179537
11,688.4012570701332
12,688.4516822128379
13,688.5004988619336
14,688.5476173853787
15,688.5929578112289
16,688.6364501493715
17,688.6780346233154
18,688.7176618084227
19,688.7552926754687
20,688.7908985420706
21,688.8244609374888
22,688.855971387394
23,688.8854311242492
24,688.912850727126
25,688.93824969393
26,688.9616559504992
27,688.9831053046105
28,689.0026408564263
29,689.0203123779706
30,689.0361756724335
31,689.0502919215053
32,689.0627270277075
33,689.0735509590779
34,689.0828371042907
35,689.0906616463383
36,689.0971029621194
37,689.1022410539174
38,689.1061570173081
39,689.1089325490046
40,689.1106494977312
41,689.1113894613272
42,689.1112334335483
43,689.1102615037826
44,689.108552611837
45,689.1061843584807
46,689.103232871337
47,689.0997727256365
48,689.0958769205985
49,689.091616914162
50,689.0870627197511
51,689.0822830671059
52,689.0773456249487
53,689.0723172779332
54,689.0672644453288
55,689.0622534242702
56,689.0573507360417
57,689.0526234510081
58,689.0481394680522
59,689.043967727747
60,689.0401783434248
61,689.0368426397429
62,689.0340330943116
63,689.03182318429
64,689.0302871453828
65,689.0294996540159
66,689.0295354444912
67,689.030468872743
68,689.0323734380622
69,689.0353212740321
70,689.0393826195495
71,689.0446252796155
72,689.0511140834404
73,689.0589103453016
74,689.0680713329457
75,689.0786497494428
76,689.0906932356988
77,689.1042439004335
78,689.1193378820151
79,689.1360049432332
80,689.1542680970115
81,689.1741432587976
82,689.1956389204556
83,689.2187558412633
84,689.2434867535367
85,689.2698160826684
86,689.2977196843364
87,689.327164606384
88,689.3581088889812
89,689.3905014219207
90,689.4242818802119
91,689.4593807582468
92,689.4957195198896
93,689.5332108777151
94,689.571759209154
95,689.6112611104061
96,689.6516060821581
97,689.692677336899
98,689.7343527164945
99,689.7765057080597
100,689.8190065429089
101,689.8617233569569
102,689.9045233838671
103,689.9472741482335
104,689.9898446273496
105,690.0321063553794
106,690.073934449659
107,690.115208543835
108,690.1558136176412
109,690.1956407188057
110,690.234587576776
111,690.272559108367
112,690.309467812739
113,690.3452340503776
114,690.3797862007218
115,690.413060696513
116,690.4450019386232
117,690.4755621006885
118,690.5047008365505
119,690.5323849052543
120,690.5585877286287
121,690.5832888952184
122,690.6064736220909
123,690.6281321844992
124,690.6482593235376
125,690.6668536428806
126,690.6839170056583
127,690.6994539406068
128,690.7134710637305
129,690.7259765194856
130,690.7369794444318
131,690.7464894557745
132,690.7545161672622
133,690.7610687361463
134,690.7661554469985
135,690.7697833400175
136,690.7719578927806
137,690.7726827658813
138,690.771959625001
139,690.7697880542758
140,690.7661655771948
141,690.7610878004577
142,690.754548692669
143,690.7465410037295
144,690.737056822726
145,690.7260882630313
146,690.7136282551501
147,690.6996714223766
148,690.6842150118127
149,690.667259852702
150,690.6488113141331
151,690.6288802342534
152,690.6074837931953
153,690.584646302399
154,690.5603998847821
155,690.5347850242832
156,690.5078509698899
157,690.4796559868726
158,690.4502674545853
159,690.4197618149276
160,690.3882243786206
161,690.3557489982069
162,690.3224376173615
163,690.2883997058132
164,690.2537515877093
165,690.2186156688967
166,690.1831195670585
167,690.1473951496263
168,690.1115774872161
169,690.0758037332092
170,690.040211942921
171,690.0049398496006
172,689.9701236189659
173,689.9358966075437
174,689.9023881517049
175,689.8697224138506
176,689.8380173103146
177,689.8073835429851
178,689.7779237532563
179,689.7497318118018
180,689.7228922510316
181,689.6974798406961
182,689.6735593023116
183,689.6511851549128
184,689.630401682831
185,689.6112430161206
186,689.5937333160232
187,689.5778870605985
188,689.563709428183
189,689.5511967777705
190,689.54033722486
191,689.5311113080757
192,689.52349273659
193,689.5174492028691
194,689.5129432407202
195,689.5099331052795
196,689.508373650046
197,689.5082171773123
198,689.5094142424156
199,689.5119143978827
200,689.5156668687754
201,689.5206211539204
202,689.5267275497835
203,689.5339375963017
204,689.5422044473703
205,689.5514831710767
206,689.5617309850887
207,689.5729074323115
208,689.584974503309
209,689.597896715597
210,689.6116411644371
211,689.6261775630305
212,689.6414782896651
213,689.657518453974
214,689.6742759852848
215,689.6917317368188
216,689.7098695936251
217,689.7286765702437
218,689.7481428849238
219,689.7682619993863
220,689.789030615982
221,689.8104486274976
222,689.8325190185074
223,689.8552477205404
224,689.8786434256511
225,689.9027173633345
226,689.9274830436935
227,689.9529559664012
228,689.9791532925209
229,690.0060934762446
230,690.0337958556163
231,690.0622802034702
232,690.0915662409383
233,690.1216731162451
234,690.1526188517522
235,690.1844197626737
236,690.2170898520433
237,690.2506401890314
238,690.2850782816231
239,690.3204074592417
240,690.3566262847826
241,690.3937280170802
242,690.4317001433698
243,690.4705239977563
244,690.5101744770511
245,690.5506198597956
246,690.5918217283382
247,690.6337349883686
248,690.676307976016
249,690.7194826402502
250,690.7631947884969
251,690.8073743851692
252,690.8519458944126
253,690.8968286593301
254,690.9419373114209
255,690.9871822063762
256,691.0324698846903
257,691.0777035567941
258,691.1227836131205
259,691.1676081607025
260,691.2120735893344
261,691.2560751704244
262,691.2995076894791
263,691.3422661098111
264,691.3842462624513
265,691.4253455556112
266,691.4654636947204
267,691.5045033999086
268,691.5423711028939
269,691.5789776021909
270,691.6142386566316
271,691.6480755023849
272,691.6804152857719
273,691.7111914108166
274,691.7403438054772
275,691.7678191134931
276,691.7935708190292
277,691.8175593084106
278,691.8397518686123
279,691.8601226185098
280,691.8786523680617
281,691.8953284028797
282,691.9101441968675
283,691.9230990629736
284,691.9341977594684
285,691.9434500736734
286,691.9508704045762
287,691.9564773603446
288,691.9602933798208
289,691.9623443832954
290,691.9626594583583
291,691.9612705878181
292,691.9582124247719
293,691.9535221149164
294,691.9472391607835
295,691.9394053186738
296,691.9300645168873
297,691.9192627827518
298,691.9070481655552
299,691.89347064328
300,691.8785820037176
301,691.8624356943265
302,691.8450866379941
303,691.8265910126358
304,691.8070059925942
305,691.7863894512161
306,691.7647996277157
307,691.7422947666527
308,691.7189327429758
309,691.6947706875127
310,691.6698646261885
311,691.6442691418229
312,691.6180370620784
313,691.5912191737373
314,691.5638639636368
315,691.5360173895341
316,691.5077226876691
317,691.4790202261092
318,691.4499474132242
319,691.4205386688192
320,691.3908254623833
321,691.3608364195139
322,691.3305974943386
323,691.300132203341
324,691.2694619151782
325,691.2386061915522
326,691.2075831746463
327,691.1764100161851
328,691.1451033419156
329,691.1136797436099
330,691.0821562890227
331,691.0505510392134
332,691.018883562625
333,690.9871754363252
334,690.9554507263173
335,690.9237364397634
336,690.8920629411149
337,690.8604643212545
338,690.8289787050799
339,690.7976484806763
340,690.7665204337144
341,690.7356457737568
342,690.7050800440444
343,690.6748829126788
344,690.645117850311
345,690.615851706012
346,690.5871541974814
347,690.5590973336676
348,690.531754787485
349,690.5052012338317
350,690.4795116640765
351,690.4547606838436
352,690.4310217974011
353,690.4083666795718
354,690.3868644351578
355,690.3665808472525
356,690.3475776198059
357,690.3299116251269
358,690.3136341715816
359,690.2987903091313
360,690.285418190539
361,690.2735485046238
362,690.2632039951437
363,690.2543990751335
364,690.247139543157
365,690.2414224061126
366,690.2372358125409
367,690.2345590996118
368,690.2333629556947
369,690.2336096984338
370,690.2352536644745
371,690.238241700859
372,690.2425137418684
373,690.2480034523913
374,690.2546389213345
375,690.2623433943751
376,690.2710360412229
377,690.2806327559423
378,690.2910469892928
379,690.3021906109476
380,690.3139747979533
381,690.3263109430064
382,690.339111570936
383,690.3522912455257
384,690.3657674445576
385,690.3794613808412
386,690.3932987506828
387,690.4072103965632
388,690.4211328757182
389,690.4350089298997
390,690.4487878532995
391,690.4624257550164
392,690.4758857105201
393,690.4891377956844
394,690.5021589989248
395,690.5149330116103
396,690.5274499028474
397,690.5397056902846
398,690.5517018226642
399,690.5634445920389
400,690.5749444941857
401,690.5862155554745
402,690.5972746437976
403,690.6081407802968
404,690.6188344674332
405,690.629377046812
406,690.6397900959604
407,690.650094867128
408,690.660311765503
409,690.6704598613996
410,690.6805564311915
411,690.6906165237048
412,690.7006525511663
413,690.7106739056753
414,690.7206866029734
415,690.7306929555585
416,690.7406912785212
417,690.7506756345927
418,690.7606356280484
419,690.7705562576239
420,690.7804178361519
421,690.7901959821005
422,690.799861688391
423,690.8093814762848
424,690.8187176435919
425,690.8278286142199
426,690.8366693898614
427,690.8451920965489
428,690.853346612105
429,690.8610812573039
430,690.8683435334168
431,690.8750808899678
432,690.8812415078089
433,690.8867750836393
434,690.8916336024893
435,690.8957720846035
436,690.8991492934739
437,690.9017283931851
438,690.9034775455865
439,690.9043704402629
440,690.9043867518453
441,690.9035125195375
442,690.901740443946
443,690.8990700982258
444,690.8955080546502
445,690.8910679321503
446,690.8857703724483
447,690.8796429508952
448,690.8727200243504
449,690.8650425149413
450,690.856657626839
451,690.8476184934733
452,690.8379837548874
453,690.8278170685372
454,690.8171865598118
455,690.8061642195428
456,690.7948252559239
457,690.7832474097893
458,690.7715102451408
459,690.7596944289579
460,690.7478810143447
461,690.7361507399489
462,690.7245833573993
463,690.7132569968676
464,690.702247578321
465,690.6916282733517
466,690.6814690208568
467,690.6718360991025
468,690.6627917552114
469,690.6543938895825
470,690.646695788113
471,690.6397458921367
472,690.6335875969796
473,690.6282590742902
474,690.6237931176487
475,690.6202170127933
476,690.6175524331153
477,690.6158153594616
478,690.6150160221276
479,690.6151588632857
480,690.6162425205384
481,690.618259835672
482,690.6211978944945
483,690.625038102546
484,690.6297562988889
485,690.6353229086649
486,690.641703135427
487,690.6488571947451
488,690.6567405899451
489,690.6653044302836
490,690.6744957931487
491,690.6842581341693
492,690.6945317497563
493,690.7052542940719
494,690.7163613475078
495,690.7277870284489
496,690.7394646363783
497,690.751327313311
498,690.7633087118384
499,690.7753436600098
500,690.7873688139113
501,690.7993232881014
502,690.8111492538633
503,690.8227924966066
504,690.8342029254884
505,690.8453350288817
506,690.8561482689325
507,690.8666074084529
508,690.8766827642856
509,690.8863503824487
510,690.8955921316643
511,690.9043957143158
512,690.9127545980978
513,690.9206678768039
514,690.9281400729515
515,690.935180896579
516,690.9418049725097
517,690.9480315430696
518,690.9538841471832
519,690.9593902734847
520,690.9645809863778
521,690.9694905281509
522,690.9741559040895
523,690.9786164594672
524,690.9829134578941
525,690.9870896703359
526,690.9911889828298
527,690.995256028191
528,690.99933584364
529,691.0034735537714
530,691.0077140771225
531,691.0121018540164
532,691.0166805924176
533,691.0214930270041
534,691.0265806849936
535,691.0319836514499
536,691.0377403274346
537,691.0438871761987
538,691.0504584552287
539,691.0574859353374
540,691.0649986115709
541,691.0730224134342
542,691.0815799236002
543,691.0906901156044
544,691.1003681218982
545,691.1106250427757
546,691.121467803892
547,691.1328990671145
548,691.1449171977873
549,691.1575162905481
550,691.1706862543903
551,691.1844129553853
552,691.1986784127021
553,691.2134610406005
554,691.2287359262949
555,691.2444751314597
556,691.2606480039994
557,691.277221486867
558,691.2941604124193
559,691.311427773839
560,691.3289849684825
561,691.3467920106596
562,691.3648077130422
563,691.3829898368797
564,691.4012952119841
565,691.4196798287111
566,691.4380989062118
567,691.4565069435143
568,691.474857761552
569,691.4931045445708
570,691.5111998885375
571,691.5290958628019
572,691.5467440901718
573,691.564095850409
574,691.5811022127898
575,691.597714204116
576,691.613883018535
577,691.6295602734699
578,691.6446983110102
579,691.6592505375796
580,691.6731717895883
581,691.6864187113785
582,691.6989501342933
583,691.7107274507741
584,691.7217149826533
585,691.7318803458952
586,691.741194814045
587,691.7496336804619
588,691.7571766161069
589,691.7638080156067
590,691.7695173199922
591,691.7742993011854
592,691.7781542921188
593,691.781088347326
594,691.7831133210644
595,691.7842468526588
596,691.7845122517988
597,691.7839382807967
598,691.782558836328
599,691.7804125385957
600,691.7775422399835
601,691.773994468154
602,691.7698188205483
603,691.7650673279493
604,691.7597938034871
605,691.7540531902725
606,691.747900916992
607,691.7413922681936
608,691.7345817757152
609,691.727522639289
610,691.7202661863321
611,691.7128613818277
612,691.705354398301
613,691.6977882535178
614,691.6902025205952
615,691.6826331126628
616,691.675112142484
617,691.6676678561448
618,691.6603246380981
619,691.6531030820124
620,691.6460201188396
621,691.6390891921199
622,691.6323204718339
623,691.6257211011475
624,691.6192954729014
625,691.6130455328248
626,691.6069711040477
627,691.601070224278
628,691.5953394853153
629,691.5897743653759
630,691.5843695471682
631,691.5791192172464
632,691.5740173435496
633,691.5690579278182
634,691.5642352290332
635,691.5595439547004
636,691.5549794181095
637,691.5505376595805
638,691.5462155273606
639,691.5420107103395
640,691.537921712256
641,691.5339477576812
642,691.5300886241911
643,691.5263444011186
644,691.5227151809296
645,691.5192006931934
646,691.5157998929793
647,691.5125105155804
648,691.5093286082134
649,691.5062480477709
650,691.503260053645
651,691.5003527071582
652,691.4975104929702
653,691.4947138802336
654,691.4919389602164
655,691.4891571529046
656,691.486334990465
657,691.4834339836444
658,691.48041057894
659,691.4772162171524
660,691.473797504898
661,691.4700965094613
662,691.4660511849861
663,691.4615959343408
664,691.4566623052109
665,691.4511798112089
666,691.4450768606363
667,691.4382817688858
668,691.4307238265525
669,691.4223343944835
670,691.4130479990466
671,691.4028034053346
672,691.3915446519445
673,691.3792220366453
674,691.3657930453589
675,691.3512232162211
676,691.3354869273796
677,691.3185680949327
678,691.3004607689563
679,691.281169621104
680,691.2607103236359
681,691.2391098227461
682,691.2164065070112
683,691.1926502664713
684,691.1679024324359
685,691.1422355847728
686,691.1157332132342
687,691.088489222424
688,691.0606072752163
689,691.0321999751495
690,691.0033878940178
691,690.9742984571425
692,690.9450647056319
693,690.915823960442
694,690.8867164148419
695,690.8578836796545
696,690.829467301831
697,690.8016072748137
698,690.7744405604547
699,690.7480996461519
700,690.7227111648564
701,690.6983946073045
702,690.6752611543271
703,690.6534126528603
704,690.6329407533398
705,690.613926219473
706,690.5964384150245
707,690.5805349672875
708,690.5662616038818
709,690.5536521578988
710,690.5427287350223
711,690.533502034277
712,690.5259718115353
713,690.5201274718712
714,690.5159487726828
715,690.5134066140242
716,690.5124638872211
717,690.5130763501845
718,690.5151934999076
719,690.5187594189142
720,690.52371357939
721,690.5299915928472
722,690.5375258946184
723,690.5462463542941
724,690.5560808075672
725,690.5669555111589
726,690.5787955282924
727,690.591525055957
728,690.6050677071099
729,690.6193467620759
730,690.6342854042399
731,690.6498069551144
732,690.6658351219093
733,690.6822942667599
734,690.6991097027584
735,690.7162080203344
736,690.7335174482665
737,690.7509682540366
738,690.7684931859533
739,690.7860279541939
740,690.8035117412579
741,690.8208877270254
742,690.8381036125193
743,690.8551121306122
744,690.8718715388437
745,690.8883460947413
746,690.904506514822
747,690.9203304160903
748,690.9358027367878
749,690.95091613338
750,690.9656713519289
751,690.9800775710941
752,690.9941527100864
753,691.0079236900004
754,691.0214266335292
755,691.0347069865849
756,691.0478195453127
757,691.0608283737544
758,691.073806601801
759,691.0868360992882
760,691.1000070273344
761,691.1134172699975
762,691.1271717485181
763,691.1413816196474
764,691.1561633611069
765,691.1716377506533
766,691.1879287477523
767,691.205162286248
768,691.2234649832598
769,691.242962766807
770,691.263779425132
771,691.286035085173
772,691.3098446351502
773,691.3353161149349
774,691.3625491057495
775,691.39163315613
776,691.4226462830821
777,691.455653586244
778,691.4907060101858
779,691.5278392869847
780,691.5670730871227
781,691.6084103998325
782,691.6518371545864
783,691.6973220864003
784,691.7448168415366
785,691.7942563168748
786,691.8455592238879
787,691.898628865504
788,691.9533541105429
789,692.009610545777
790,692.0672617809663
791,692.1261608793822
792,692.1861518862498
793,692.2470714289882
794,692.308750364436
795,692.3710154489062
796,692.4336910067299
797,692.4966005714537
798,692.5595684714725
799,692.6224213308194
800,692.6849894585015
801,692.7471081066151
802,692.8086185860845
803,692.8693692358507
804,692.9292162453562
805,692.988024332682
806,693.0456672830863
807,693.1020283543543
808,693.1570005553282
809,693.2104868033091
810,693.2623999670755
811,693.3126628056126
812,693.36120781598
813,693.4079770046326
814,693.4529215953909
815,693.4960016868986
816,693.5371858745352
817,693.5764508553061
818,693.6137810363429
819,693.6491681657068
820,693.6826109978098
821,693.7141149974922
822,693.7436920802727
823,693.7713603835047
824,693.7971440636763
825,693.8210731170617
826,693.8431832224767
827,693.863515604997
828,693.8821169179639
829,693.8990391378329
830,693.9143394631894
831,693.9280802067271
832,693.9403286679797
833,693.9511569747681
834,693.9606418819145
835,693.9688645167669
836,693.9759100631311
837,693.9818673783187
838,693.9868285411783
839,693.9908883307486
840,693.994143634768
841,693.9966927858526
842,693.9986348231514
843,694.0000686795267
844,694.0010922968252
845,694.0018016725546
846,694.002289841072
847,694.0026457936673
848,694.002953345471
849,694.0032899615497
850,694.0037255588486
851,694.0043213052558
852,694.0051284425465
853,694.0061871654032
854,694.0075255920514
855,694.0091588618106
856,694.0110883911814
857,694.0133013141526
858,694.0157701254705
859,694.0184525387165
860,694.0212915650344
861,694.0242158135304
862,694.0271400102865
863,694.0299657287113
864,694.0325823197758
865,694.0348680281636
866,694.0366912802299
867,694.0379121297428
868,694.0383838450663
869,694.0379546171068
870,694.0364693634475
871,694.0337716018761
872,694.0297053654476
873,694.0241171303894
874,694.0168577272439
875,694.0077842050537
876,693.9967616188151
877,693.9836647124058
878,693.9683794727353
879,693.9508045352263
880,693.9308524248197
881,693.9084506202394
882,693.8835424330474
883,693.8560876972555
884,693.8260632691572
885,693.7934633401528
886,693.7582995677687
887,693.7206010316107
888,693.680414021266
889,693.6378016623348
890,693.5928433854789
891,693.5456342429098
892,693.4962840784007
893,693.444916560521
894,693.3916680929228
895,693.3366866188572
896,693.2801303393693
897,693.2221663658856
898,693.1629693281135
899,693.1027199571004
900,693.0416036612584
901,692.9798091110258
902,692.9175268464268
903,692.8549479217714
904,692.792262603829
905,692.7296591431192
906,692.667322639168
907,692.6054340168113
908,692.5441691226949
909,692.4836979421615
910,692.4241839292832
911,692.365783438226
912,692.3086452431581
913,692.2529101362878
914,692.1987105973634
915,692.146170530608
916,692.095405065671
917,692.0465204188149
