acceleration,velocity,displacement
-0.035980065219123766,0.0,0.0
-0.03512738106681767,-1.7776861571485356e-05,-4.444215392871339e-09
-0.0342768922303221,-3.51279298957703e-05,-1.7670413259685255e-08
-0.03343078165922367,-5.2054848368156744e-05,-3.946610782566701e-08
-0.03259120755756659,-6.85603456723543e-05,-6.961990633579478e-08
-0.03176029098435519,-8.464822030783474e-05,-1.0792204783084204e-07
-0.030940103452271196,-0.00010032331891699133,-1.5416493263704855e-07
-0.03013265459717584,-0.0001155915084293531,-2.0814363947363465e-07
-0.02933988005928654,-0.0001304596420934687,-2.696564271043401e-07
-0.02856362977073538,-0.0001449355195509742,-3.3850521751545083e-07
-0.027805656865326354,-0.0001590278412099896,-4.144960577056918e-07
-0.027067607414981265,-0.0001727461572800665,-4.974395573282058e-07
-0.02635101116112425,-0.0001861008119240929,-5.871512996292456e-07
-0.025657273355112614,-0.0001991028830531521,-6.834522233735569e-07
-0.024987667765977738,-0.00021176411833342468,-7.861689737202011e-07
-0.024343330882237182,-0.0002240968679954784,-8.951342203024268e-07
-0.02372525733969924,-0.0002361140150509625,-1.010186941064037e-06
-0.02313429662747498,-0.0002478289035427561,-1.1311726707124666e-06
-0.022571151123553276,-0.0002592552654805132,-1.2579437129682838e-06
-0.022036375475768664,-0.0002704071471303437,-1.390359316120998e-06
-0.021530377292051376,-0.00028129883532229867,-1.5282858117341587e-06
-0.02105341906175093,-0.00029194478441074923,-1.6715967166674206e-06
-0.02060562121432288,-0.0003023595444797677,-1.82017279889005e-06
-0.020186966235126225,-0.00031255769134212996,-1.9739021078455244e-06
-0.019797303784017894,-0.00032255375884691597,-2.132679970392786e-06
-0.019436356774505587,-0.00033236217398654685,-2.296408953601152e-06
-0.01910372834997995,-0.0003419971952676682,-2.464998795914706e-06
-0.018798909642895895,-0.00035147285476588717,-2.638366308423095e-06
-0.018521288152953716,-0.00036080290421484955,-2.816435248168279e-06
-0.018270156565428432,-0.0003700007653944451,-2.9991361655706025e-06
-0.018044721856150983,-0.0003790794849998399,-3.186406228169174e-06
-0.01784411456659746,-0.00038805169410552706,-3.3781890229455157e-06
-0.017667398150086323,-0.000396929572284698,-3.574434339543072e-06
-0.017513578284519493,-0.00040572481639334946,-3.775097936712584e-06
-0.01738161203682463,-0.00041444861397368546,-3.980141294304343e-06
-0.017270416763619373,-0.0004231116211737965,-4.189531353091213e-06
-0.017178878643723982,-0.0004317239450256323,-4.40324024464107e-06
-0.017105860757468477,-0.00044029512987593043,-4.62124501336646e-06
-0.017050210648306956,-0.0004488341477273743,-4.843527332767286e-06
-0.017010767316874856,-0.0004573493922186697,-5.070073217753797e-06
-0.016986367603567018,-0.0004658486759487802,-5.3008727347956595e-06
-0.01697585191412152,-0.0004743392308282023,-5.535919711489905e-06
-0.016978069238970217,-0.00048282771111647524,-5.775211446976075e-06
-0.016991881420587208,-0.0004913201987813646,-6.018748424450534e-06
-0.01701616663825335,-0.0004998222107960747,-6.266534026844894e-06
-0.017049822100434826,-0.0005083387079807468,-6.5185742565390996e-06
-0.01709176595060656,-0.0005168741049935072,-6.774877459782663e-06
-0.017140938393435272,-0.0005254322810795177,-7.0354540563009195e-06
-0.017196302030428122,-0.0005340165911854835,-7.30031627436717e-06
-0.017256841366362657,-0.0005426298770346812,-7.569477891422211e-06
-0.017321561434153795,-0.0005512744777348103,-7.842953980114584e-06
-0.017389485509259374,-0.0005599522394706636,-8.120760659415952e-06
-0.01745965194535975,-0.0005686645238343185,-8.402914850242196e-06
-0.01753111023860758,-0.0005774122143803103,-8.689434034795854e-06
-0.01760291649876802,-0.0005861957210646542,-8.980336018657095e-06
-0.0176741285712764,-0.0005950149823321653,-9.2756386945063e-06
-0.01774380111616065,-0.0006038694647540246,-9.575359806277848e-06
-0.01781098099041157,-0.0006127581602806677,-9.87951671253652e-06
-0.01787470327687814,-0.0006216795813474901,-1.018812614794356e-05
-0.017933988254855742,-0.0006306317542304235,-1.0501203981838038e-05
-0.01798783953745133,-0.0006396122111785003,-1.0818764973190269e-05
-0.018035243523523568,-0.000648617981943744,-1.114082252147083e-05
-0.01807517022721012,-0.0006576455853814274,-1.1467388413302122e-05
-0.018106575457970796,-0.0006666910218027226,-1.179847256509816e-05
-0.018128404245509724,-0.0006757497667285927,-1.2134082762230989e-05
-0.018139595356395297,-0.000684816766629069,-1.2474224395570404e-05
-0.01813908673472079,-0.000693886437151848,-1.2818900196515633e-05
-0.01812582170159299,-0.0007029526642609265,-1.3168109971868827e-05
-0.018098755751953688,-0.0007120088086243132,-1.3521850340090137e-05
-0.01805686378894334,-0.0007210477135095374,-1.3880114470623599e-05
-0.017999147641257256,-0.0007300617163670876,-1.4242891828092754e-05
-0.0179246437259087,-0.0007390426642088791,-1.4610167923236747e-05
-0.01783243074913659,-0.0007479819328276404,-1.4981924072495877e-05
-0.01772163736821375,-0.000756870449856978,-1.535813716816703e-05
-0.01759144974602202,-0.000765698721635537,-1.573877946104016e-05
-0.017441118914477617,-0.0007744568638006619,-1.612381835739921e-05
-0.017269967844365505,-0.0007831346354903727,-1.6513216232221967e-05
-0.017077398124870562,-0.0007917214769826817,-1.690693026034023e-05
-0.016862896190379763,-0.0008002065505614942,-1.7304912267226275e-05
-0.016626039079203882,-0.0008085787843788901,-1.770710860096137e-05
-0.016366499752606612,-0.0008168269190868428,-1.8113460026827803e-05
-0.016084052034726674,-0.000824939557033676,-1.8523901645857933e-05
-0.01577857524691623,-0.0008329052138540868,-1.8938362838579874e-05
-0.015450058599011817,-0.0008407123723155688,-1.935676723512229e-05
-0.015098605372724208,-0.0008483495383085028,-1.977903271277831e-05
-0.014724436900205628,-0.0008558052988767353,-2.0205071422074618e-05
-0.014327896298596226,-0.0008630683821764357,-2.0634789842337912e-05
-0.013909451853966196,-0.0008701277192145763,-2.1068088867685667e-05
-0.013469699861249983,-0.0008769725071433803,-2.1504863924275156e-05
-0.013009366652213333,-0.0008835922737717462,-2.1945005119503936e-05
-0.012529309510743814,-0.0008899769428124854,-2.2388397423649992e-05
-0.01203051618730875,-0.0008961168992369985,-2.2834920884162364e-05
-0.011514102766021734,-0.0009020030539753311,-2.3284450872465447e-05
-0.010981309696360428,-0.0009076269070909267,-2.3736858362732012e-05
-0.010433495879286167,-0.0009129806084848383,-2.4192010241625952e-05
-0.009872130795538383,-0.0009180570151535444,-2.4649769647535547e-05
-0.009298784760828254,-0.0009228497440426361,-2.5109996337334592e-05
-0.008715117453015368,-0.000927353219596097,-2.5572547078244277e-05
-0.008122864872371509,-0.0009315627151774437,-2.603727606193766e-05
-0.007523824904921661,-0.000935474387621767,-2.6504035337637465e-05
-0.0069198417051703045,-0.00093908530427429,-2.697267526061148e-05
-0.006312789205533451,-0.0009423934620019659,-2.7443044952180546e-05
-0.0057045541604011755,-0.0009453977978434496,-2.79149927671419e-05
-0.005097019189723545,-0.0009480981911809807,-2.8388366764398006e-05
-0.00449204626901005,-0.0009504954575456641,-2.8863015176579667e-05
-0.003891461037849135,-0.0009525913343723789,-2.9338786874559176e-05
-0.003297038215047321,-0.000954388459185603,-2.981553182294867e-05
-0.0027104883377154607,-0.0009558903408237937,-3.029310152295102e-05
-0.0021334459692388475,-0.0009571013244005323,-3.07713494392571e-05
-0.001567459440185427,-0.0009580265507528883,-3.1250131408045456e-05
-0.0010139821266079724,-0.0009586719111445867,-3.1729306023519826e-05
-0.0004743652642296226,-0.000959043997992296,-3.220873500080405e-05
5.0147664618905124e-05,-0.0009591500523921987,-3.268828351340017e-05
0.0005584248956124524,-0.0009589979092521409,-3.316782050381126e-05
0.0010494486224930334,-0.0009585959408726145,-3.3647218966342445e-05
0.0015223154852114216,-0.0009579529998456884,-3.412635620152202e-05
0.0019762353595447514,-0.0009570783621344993,-3.4605114042017066e-05
0.0024105285807157102,-0.0009559816711494343,-3.508337905033805e-05
0.002824621785826633,-0.0009546728835577987,-3.556104268901486e-05
0.003218042584669771,-0.0009531622174651746,-3.60380014642706e-05
0.0035904132724542794,-0.0009514601035008935,-3.6514157044512116e-05
0.003941443780146005,-0.0009495771392377435,-3.6989416355196774e-05
0.004270924026157691,-0.0009475240472861675,-3.7463691651827754e-05
0.004578715811232432,-0.00094531163732682,-3.7936900572981e-05
0.004864744400584657,-0.0009429507722738657,-3.840896617538117e-05
0.00512898995090988,-0.0009404523386859922,-3.887981695312114e-05
0.005371478939315397,-0.0009378272214634358,-3.934938684315849e-05
0.005592275724080247,-0.0009350862827975869,-3.9817615219223745e-05
0.005791474325839831,-0.0009322403452851069,-4.028444687624442e-05
0.005969190486195681,-0.000929300179082098,-4.074983200733622e-05
0.006125554045622231,-0.0009262764929491435,-4.121372617534403e-05
0.006260701675094485,-0.0009231799290189643,-4.167609028083606e-05
0.006374769996458246,-0.0009200210611010761,-4.213689052836607e-05
0.006467889144240991,-0.0009168103963159012,-4.259609839272032e-05
0.006540176851238311,-0.0009135583798170314,-4.305369058675355e-05
0.006591733166349859,-0.0009102754023126344,-4.3509649032285964e-05
0.006622635931920245,-0.0009069718100380668,-4.396396083537364e-05
0.0066329371689741595,-0.0009036579167628432,-4.4416618267073866e-05
0.006622660548661049,-0.0009003440173334345,-4.4867618750597934e-05
0.006591800161099155,-0.0008970404021559944,-4.531696485547029e-05
0.006540320812372201,-0.0008937573719126266,-4.5764664298987445e-05
0.006468160068891697,-0.0008905052516923106,-4.621072995488868e-05
0.006375232217950033,-0.0008872944036206002,-4.665517986871691e-05
0.006261434227734744,-0.0008841352370091791,-4.709803727887436e-05
0.006126653675545026,-0.0008810382150333592,-4.753933064188499e-05
0.0059707784838091355,-0.0008780138569935206,-4.7979093659891714e-05
0.005793708187290174,-0.0008750727353257458,-4.841736530797153e-05
0.005595366377138982,-0.0008722254666846385,-4.885418985847413e-05
0.005375713931671838,-0.0008694826966074359,-4.9289616899297144e-05
0.005134762635343015,-0.0008668550774656821,-4.9723701342815426e-05
0.004872588788755543,-0.0008643532396096575,-5.015650342208426e-05
0.004589346413800723,-0.0008619877558090185,-5.058808867093893e-05
0.004285279658891046,-0.0008597690992908455,-5.101852788471389e-05
0.003960734016096495,-0.0008577075958720986,-5.144789705850463e-05
0.0036161659870976113,-0.0008558133708713001,-5.187627730019048e-05
0.003252150892801412,-0.0008540962916513253,-5.230375471582114e-05
0.0028693886150135076,-0.0008525659067743716,-5.2730420265427566e-05
0.002468707166750971,-0.0008512313828289305,-5.315636958782839e-05
0.0020510640820952082,-0.0008501014400167189,-5.35817027935398e-05
0.0016175456837792402,-0.0008491842875752503,-5.4006524225437796e-05
0.0011693643301605968,-0.0008484875600717653,-5.443094218734955e-05
0.0007078537681906335,-0.0008480182555471775,-5.4855068641254284e-05
0.0002344627286379189,-0.0008477826764229703,-5.527901887424682e-05
-0.0002492531043045545,-0.000847786374016887,-5.570291113685679e-05
-0.0007416406376786095,-0.0008480340974523828,-5.6126866254724105e-05
-0.0012409603509480798,-0.0008485297476995394,-5.6551007216012084e-05
-0.0017453986577022431,-0.000849276337451702,-5.697545873729989e-05
-0.0022530815779678763,-0.0008502759575106196,-5.740034681104047e-05
-0.002762089611030695,-0.0008515297503078692,-5.7825798237995095e-05
-0.003270473657811286,-0.0008530378911250797,-5.8251940148353335e-05
-0.0037762718017637356,-0.0008547995774899734,-5.86788995155071e-05
-0.004277526703253553,-0.0008568130271162278,-5.910680266665865e-05
-0.004772303298976428,-0.0008590754846167852,-5.9535774794591907e-05
-0.0052587064472926935,-0.0008615832370533525,-5.9965939475009444e-05
-0.005734898137362196,-0.0008643316381995162,-6.039741819382266e-05
-0.006199113886100347,-0.0008673151412053818,-6.0830329888673885e-05
-0.006649677973842216,-0.0008705273391703674,-6.126479050876782e-05
-0.007085017206065891,-0.0008739610129653444,-6.170091259680175e-05
-0.007503672936653876,-0.0008776081855010244,-6.213880489641835e-05
-0.00790431116099348,-0.0008814601815254362,-6.257857198817496e-05
-0.008285730581375106,-0.0008855076919610284,-6.302031395654658e-05
-0.008646868638127456,-0.000889740841765904,-6.346412608997832e-05
-0.00898680556794435,-0.000894149260317422,-6.391009861549915e-05
-0.009304766595899598,-0.000898722153358383,-6.43583164689181e-05
-0.009600122393366918,-0.0009034483756056996,-6.480885910115912e-05
-0.009872387935061944,-0.0009083165031878068,-6.526180032085749e-05
-0.010121219863400784,-0.0009133149051374225,-6.57172081729388e-05
-0.01034641242936862,-0.0009184318132106149,-6.617514485252582e-05
-0.010547892043160617,-0.0009236553893287472,-6.663566665316065e-05
-0.01072571044744088,-0.0009289737899513975,-6.709882394798069e-05
-0.010880036533930033,-0.0009343752266967402,-6.756466120214273e-05
-0.01101114686999293,-0.000939848022547721,-6.803321701445384e-05
-0.011119415076953024,-0.0009453806630344575,-6.850452418584938e-05
-0.011205300280091132,-0.0009509618418737186,-6.897860981207642e-05
-0.011269334914852762,-0.0009565805006724545,-6.945549539771297e-05
-0.011312112221266175,-0.0009622258624564842,-6.99351969884952e-05
-0.01133427378033088,-0.0009678874589568834,-7.041772531884855e-05
-0.011336497428471084,-0.0009735551517590839,-7.090308597152754e-05
-0.011319485828253135,-0.000979219147573265,-7.139127954636062e-05
-0.011283955893269951,-0.0009848700080036458,-7.188230183525486e-05
-0.011230629190752999,-0.0009904986542746516,-7.237614400082443e-05
-0.011160223397432046,-0.0009960963674216978,-7.287279275624852e-05
-0.011073444854718404,-0.0010016547844847355,-7.337223054422512e-05
-0.010970982232939264,-0.0010071658912566498,-7.387443571316048e-05
-0.010853501266318538,-0.0010126220121314644,-7.43793826890075e-05
-0.010721640486319855,-0.001018015797569624,-7.488704214143278e-05
-0.010576007876527646,-0.001023340209660336,-7.539738114324027e-05
-0.010417178376368557,-0.00102858850622356,-7.591036332221125e-05
-0.010245692141366685,-0.0010337542238529939,-7.642594900473039e-05
-0.010062053416309428,-0.001038831160242413,-7.694409535075424e-05
-0.00986672981340411,-0.0010438133560498413,-7.746475647982731e-05
-0.009660151741079303,-0.0010486950764384622,-7.798788358794939e-05
-0.00944271173398165,-0.0010534707923072273,-7.851342505513581e-05
-0.009214763511358925,-0.0010581351611185625,-7.904132654349226e-05
-0.008976620721530926,-0.001062683007176785,-7.95715310855661e-05
-0.008728555461095303,-0.0010671093012224416,-8.010397916266591e-05
-0.008470796741076637,-0.0010714091392729846,-8.063860877278977e-05
-0.00820352909901554,-0.0010755777207330077,-8.117535548779127e-05
-0.007926891544257126,-0.0010796103258938258,-8.171415249944798e-05
-0.007640976992877105,-0.0010835022930281092,-8.225493065417847e-05
-0.007345832308062452,-0.001087248995353344,-8.279761847627383e-05
-0.007041459013434022,-0.0010908458181837183,-8.334214217965809e-05
-0.006727814694937361,-0.001094288136610811,-8.388842566835673e-05
-0.006404815059075052,-0.0010975712940493143,-8.443639052602176e-05
-0.0060723365822792615,-0.0011006905819596529,-8.4985955995024e-05
-0.005730219681182456,-0.0011036412210255182,-8.553703894577029e-05
-0.005378272362492788,-0.001106418344036437,-8.608955383703578e-05
-0.005016274358957633,-0.0011090169807167996,-8.66434126682241e-05
-0.0046439817931562665,-0.0011114320447548282,-8.719852492459201e-05
-0.0042611324109014595,-0.0011136583233058426,-8.775479751660717e-05
-0.0038674513975044907,-0.001115690469257944,-8.831213471474812e-05
-0.0034626577594339377,-0.0011175229965471787,-8.88704380811994e-05
-0.0030464712379040413,-0.0011191502787965132,-8.942960640003533e-05
-0.0026186197157665437,-0.001120566551534931,-8.998953560761819e-05
-0.0021788470756160232,-0.0011217659182327765,-9.055011872506012e-05
-0.001726921460472294,-0.0011227423603667986,-9.111124579471001e-05
-0.0012626438719580816,-0.0011234897516999062,-9.16728038227267e-05
-0.0007858570050946725,-0.0011240018769191693,-9.223467672988147e-05
-0.0002964541632287768,-0.0011242724547112502,-9.279674531278908e-05
0.00020561196837451032,-0.0011242951652599637,-9.335888721778188e-05
0.0007203209668932219,-0.0011240636820261467,-9.39209769296034e-05
0.001247577033014133,-0.0011235717075261699,-9.448288577699148e-05
0.001787202346707627,-0.0011228130126812394,-9.504448195704333e-05
0.0023389316452564896,-0.0011217814791832483,-9.560563058000945e-05
0.002902408184978856,-0.0011204711442256894,-9.616619373586169e-05
0.003477181169364736,-0.0011188762468871034,-9.672603058363989e-05
0.004062704641701929,-0.0011169912754343367,-9.728499746422026e-05
0.004658337762674034,-0.0011148110148332428,-9.784294803678715e-05
0.005263346332352772,-0.001112330593809486,-9.839973343894783e-05
0.005876905382308326,-0.0011095455308808208,-9.895520247012041e-05
0.006498102666072111,-0.0011064517788687256,-9.95092017975578e-05
0.0071259429015999645,-0.0011030457674768076,-0.00010006157618414418
0.007759352642045965,-0.001099324443590896,-0.00010061216873691111
0.00839718566496899,-0.0010952853090141423,-0.00010116082117506237
0.009038228790896738,-0.0010909264554001758,-0.00010170737411616595
0.009681208076468242,-0.0010862465961833346,-0.00010225166737906182
0.010324795360211556,-0.0010812450953241646,-0.0001027935403019387
0.010967615156827155,-0.0010759219926949049,-0.00010333283207394347
0.01160825190576738,-0.0010702780259292562,-0.00010386938207859952
0.012245257596879163,-0.0010643146485535945,-0.00010440303024722023
0.01287715981618232,-0.0010580340442003292,-0.00010493361742040871
0.01350247025620467,-0.0010514391366822325,-0.00010546098571562936
0.014119693704285247,-0.00104453359569211,-0.00010598497889872294
0.014727337474580016,-0.0010373218378973937,-0.00010650544275712031
0.015323921212466578,-0.0010298090232256322,-0.00010702222547240106
0.0159079869767828,-0.0010220010461783199,-0.00010753517798975205
0.016478109472333663,-0.0010139045220660407,-0.00010804415438181314
0.01703290624610498,-0.001005526768136431,-0.00010854901220436376
0.01757104759079734,-0.0009968757796772055,-0.00010904961284131717
0.018091265856051753,-0.0009879602013154933,-0.00010954582183656535
0.018592363883027024,-0.0009787892938807237,-0.0001100375092103644
0.01907322235180956,-0.0009693728973220146,-0.00011052454975816509
0.01953280593219444,-0.0009597213902510135,-0.00011100682333005835
0.019970168222756105,-0.0009498456467122759,-0.00011148421508929917
0.020384455534288165,-0.0009397569907730149,-0.0001119566157486705
0.0207749096161551,-0.0009294671494854041,-0.00011242392178373511
0.021140869427625504,-0.000918988204724459,-0.00011288603562228757
0.02148177201519083,-0.0009083325443637549,-0.00011334286580955963
0.021797152491100345,-0.0008975128132371821,-0.00011379432714895986
0.022086643056357394,-0.0008865418643503177,-0.00011424034081835674
0.02234997099955376,-0.0008754327108363399,-0.0001146808344621534
0.022586955635368555,-0.0008641984791776093,-0.00011511574225965688
0.02279750422085687,-0.000852852364213553,-0.00011554500497050467
0.022981606992270906,-0.000841407586410271,-0.00011596856995816062
0.02313933156981742,-0.0008298773517697489,-0.00011638639119270562
0.02327081704200822,-0.0008182748146167924,-0.00011679842923430225
0.023376268034155025,-0.0008066130433477517,-0.00011720465119879339
0.023455948988608314,-0.0007949049890920609,-0.00011760503070690334
0.023510178785780825,-0.0007831634571484636,-0.00011799954781846346
0.023539325781262756,-0.0007714010810067028,-0.00011838818895300226
0.02354380334141682,-0.0007596302987260329,-0.00011877094679793544
0.023524065976824826,-0.0007478633313964725,-0.00011914782020546606
0.023480606145774522,-0.0007361121633658227,-0.00011951881407915664
0.02341395172911647,-0.0007243885238971,-0.00011988393925097237
0.02332466410089628,-0.0007127038699395969,-0.00012024321234943154
