acceleration,velocity,displacement
-0.0014093663533790827,0.0,0.0
-0.0016006052789755386,-7.524929080886553e-07,-1.8812322702216384e-10
-0.0018073901217370576,-1.6044917582668044e-06,-7.773693936110288e-10
-0.0020295931666318586,-2.5637375803590336e-06,-1.8194267282674885e-09
-0.002267016689907442,-3.637890044493859e-06,-3.3698336344807116e-09
-0.00251939283292839,-4.834492425202817e-06,-5.48792925190488e-09
-0.002786384219107363,-6.1609366882117555e-06,-8.236786530258524e-09
-0.0030675853117291063,-7.624429070920873e-06,-1.1683127970041681e-08
-0.0033625244814481756,-9.231956519215193e-06,-1.5897224367575697e-08
-0.0036706667316917575,-1.0990254322500176e-05,-2.095277707800454e-08
-0.003991417020276684,-1.2905775260492287e-05,-2.6926784473752655e-08
-0.004324124117621428,-1.4984660544966815e-05,-3.389939342511743e-08
-0.004668084952877689,-1.7232712812591593e-05,-4.195373676450703e-08
-0.00502254940981515,-1.9655371403264802e-05,-5.117575781847113e-08
-0.00538672553607259,-2.2257690139736738e-05,-6.165402320422152e-08
-0.005759785120355479,-2.5044317803843754e-05,-7.347952519011664e-08
-0.006140869573238533,-2.8019481477242255e-05,-8.674547501038815e-08
-0.006529096020772386,-3.118697287574499e-05,-1.0154708859863495e-07
-0.006923563493531625,-3.455013775432099e-05,-1.1798136625615145e-07
-0.00732335907701094,-3.811186839695663e-05,-1.3614686779397086e-07
-0.007727563888624502,-4.187459913836549e-05,-1.5614348467780138e-07
-0.008135258762489434,-4.5840304801143975e-05,-1.7807221066267874e-07
-0.008545529550639528,-5.001050187942622e-05,-2.020349123328213e-07
-0.008957471978495463,-5.4386252261709965e-05,-2.2813410086810534e-07
-0.009370196016182364,-5.896816926037942e-05,-2.5647270624862766e-07
-0.00978282974632526,-6.375642570100632e-05,-2.871538549889741e-07
-0.010194522726370206,-6.875076381918019e-05,-3.2028065236902075e-07
-0.010604448859324014,-7.395050671560374e-05,-3.559559700027167e-07
-0.01101180879913443,-7.935457113021835e-05,-3.9428223946417223e-07
-0.011415831923469514,-8.496148131086934e-05,-4.3536125257444413e-07
-0.01181577790437691,-9.076938376783095e-05,-4.792939688441192e-07
-0.012210937895109877,-9.677606271770265e-05,-5.261803304655026e-07
-0.01260063533524237,-0.00010297895602529071,-5.761190851512509e-07
-0.012984226367068951,-0.00010937517145086855,-6.292076170202907e-07
-0.013361099860044374,-0.00011596150300764688,-6.855417856349196e-07
-0.013730677052856728,-0.00012273444723587216,-7.452157731957993e-07
-0.014092410836679364,-0.0001296902192082562,-8.083219398068314e-07
-0.014445784712266924,-0.00013682476809549277,-8.749506866327687e-07
-0.014790311456363238,-0.0001441337921376503,-9.451903266910545e-07
-0.01512553153340811,-0.00015161275288509313,-1.0191269629467405e-06
-0.015451011292395567,-0.00015925688859154405,-1.0968443733158998e-06
-0.01576634099493042,-0.00016706122666337555,-1.1784239021296296e-06
-0.016071132721668394,-0.00017502059509252524,-1.263944357568605e-06
-0.016365018197619322,-0.00018312963282234718,-1.3534819145473231e-06
-0.016647646567445794,-0.00019138279901361347,-1.4471100225063133e-06
-0.01691868214472167,-0.00019977438119165534,-1.5448993175576306e-06
-0.017177802152078352,-0.00020829850226585533,-1.6469175384220083e-06
-0.01742469445813449,-0.00021694912641840854,-1.7532294455930742e-06
-0.017659055303179415,-0.000225720063858737,-1.8638967431623605e-06
-0.01788058699596081,-0.00023460497443352206,-1.9789780027354254e-06
-0.01808899556518356,-0.00024359737007380815,-2.0985285888622578e-06
-0.018283988360357613,-0.0002526906160551934,-2.222600585394508e-06
-0.018465271612729626,-0.00026187793104846525,-2.351242722170423e-06
-0.01863254798546163,-0.00027115238594801306,-2.4845003014195424e-06
-0.01878551416120116,-0.00028050690148467876,-2.6224151232777154e-06
-0.018923858528832438,-0.0002899342446571872,-2.765025409813182e-06
-0.019047259034060317,-0.00029942702404791037,-2.9123657269894563e-06
-0.019155381251148646,-0.0003089776841192126,-3.064466904031237e-06
-0.019247876722706274,-0.00031857849861267635,-3.2213559497142092e-06
-0.019324381607239562,-0.00032822156319516283,-3.383055965166169e-06
-0.019384515672021214,-0.00033789878751497803,-3.549586052843704e-06
-0.01942788167002472,-0.00034760188685048954,-3.720961221435071e-06
-0.019454065141923167,-0.0003573223735534765,-3.8971922865360625e-06
-0.019462634684622303,-0.00036705154851011284,-4.07828576705196e-06
-0.01945314272374278,-0.00037678049286220413,-4.264243777395039e-06
-0.019425126817718075,-0.0003865000602475693,-4.455063915672482e-06
-0.019378111507462072,-0.00039620086982886435,-4.650739148191591e-06
-0.01931161071077556,-0.00040587330038342376,-4.851257690744663e-06
-0.019225130647815444,-0.00041550748572307154,-5.056602887271287e-06
-0.01911817327463182,-0.00042509331170368335,-5.266753086627975e-06
-0.01899024019340302,-0.00043462041507069205,-5.481681518321569e-06
-0.018840836995540157,-0.00044407818436792787,-5.701356168181224e-06
-0.01866947797588328,-0.0004534557631107837,-5.925739655050902e-06
-0.018475691138677378,-0.0004627420553894239,-6.154789109675954e-06
-0.018259023405910912,-0.00047192573402557095,-6.388456057029702e-06
-0.018019045936025945,-0.00048099525136105514,-6.626686303376358e-06
-0.017755359460815086,-0.0004899388527102654,-6.8694198293941885e-06
-0.017467599548026177,-0.0004987445924624757,-7.116590690687374e-06
-0.01715544169892182,-0.0005074003527742127,-7.3681269269965456e-06
-0.016818606195604355,-0.0005158938647478442,-7.62395048137706e-06
-0.016456862620677914,-0.0005242127319519148,-7.883977130551999e-06
-0.01607003397944774,-0.0005323444561019462,-8.148116427565463e-06
-0.01565800036195604,-0.0005402764646872971,-8.416271657762775e-06
-0.015220702091826587,-0.0005479961403007427,-8.688339809009785e-06
-0.014758142323554385,-0.000555490851404588,-8.964211556936118e-06
-0.014270389066574695,-0.0005627479842521202,-9.243771265850295e-06
-0.013757576625738769,-0.0005697549756751985,-9.526897005832124e-06
-0.013219906450322333,-0.0005764993464442138,-9.813460586361977e-06
-0.012657647383627988,-0.0005829687349027013,-1.0103327606698706e-05
-0.012071135310623067,-0.000589150930576264,-1.0396357523068447e-05
-0.011460772213123735,-0.0005950339074572008,-1.0692403732576813e-05
-0.010827024657724288,-0.0006006058566749128,-1.0991313673609841e-05
-0.01017042175916563,-0.0006058552182791353,-1.1292928942348353e-05
-0.00949155267733692,-0.000610770711888261,-1.1597085424890202e-05
-0.008791063712872325,-0.0006153413659858133,-1.190361344435872e-05
-0.008069655062445778,-0.0006195565456796428,-1.2212337922275083e-05
-0.007328077287370399,-0.0006234059787670968,-1.2523078553386769e-05
-0.006567127547360785,-0.0006268797799757796,-1.2835649993072488e-05
-0.005787645655383141,-0.0006299684732764656,-1.3149862056385549e-05
-0.004990510011188818,-0.0006326630121931086,-1.3465519927752943e-05
-0.004176633464582067,-0.0006349547980620513,-1.3782424380316732e-05
-0.00334695915020739,-0.0006368356962157487,-1.4100372003886182e-05
-0.0025024563332586404,-0.0006382980500866151,-1.4419155440461774e-05
-0.001644116312759021,-0.0006393346932481196,-1.4738563626295457e-05
-0.0007729484401269596,-0.0006399389594363411,-1.5058382039466572e-05
0.00011002368014098313,-0.0006401046906263375,-1.5378392951982244e-05
0.0010037657359350108,-0.0006398262432723185,-1.5698375685456907e-05
0.0019072359293242434,-0.0006390984928560038,-1.6018106869488988e-05
0.0028193878191418564,-0.0006379168369188873,-1.633736070193271e-05
0.0037391727583490895,-0.0006362771967745145,-1.665590921035606e-05
0.004665541938017589,-0.0006341760181004228,-1.6973522514074795e-05
0.005597448080621496,-0.000631610270595763,-1.7289969086248843e-05
0.006533846837723117,-0.0006285774468661768,-1.7605016015614326e-05
0.007473697943106893,-0.0006250755606709693,-1.7918429267498613e-05
0.008415966163195069,-0.0006211031446443938,-1.8229973943827454e-05
0.009359622079379489,-0.0006166592475837501,-1.853941454188449e-05
0.010303642730348849,-0.000611743431381318,-1.8846515211625755e-05
0.011247012136459988,-0.0006063557676646158,-1.915104001138724e-05
0.012188721726859642,-0.000600496834198786,-1.945275316185309e-05
0.013127770692953808,-0.0005941677110938326,-1.9751419298176245e-05
0.01406316629159994,-0.0005873699768476942,-2.0046803720161626e-05
0.014993924115533885,-0.0005801057042459107,-2.0338672640435027e-05
0.01591906834342789,-0.0005723774561311703,-2.0626793430529298e-05
0.016837631983100117,-0.0005641882810495382,-2.0910934864824474e-05
0.017748657127343786,-0.0005555417087719272,-2.119086736227984e-05
0.01865119524790322,-0.0005464417456781154,-2.146636322589235e-05
0.019544307554728618,-0.0005368928699774574,-2.1737196879806243e-05
0.020427065444724533,-0.0005269000267275942,-2.2003145103982506e-05
0.02129855106177586,-0.0005164686226009691,-2.2263987266314646e-05
0.02215785799259869,-0.0005056045203373755,-2.251950555204923e-05
0.023004092130900867,-0.0004943140328065006,-2.27694851903352e-05
0.023836372752716332,-0.00048260391658559634,-2.3013714677683225e-05
0.02465383385324103,-0.000470481364934107,-2.3251985998063153e-05
0.025455625789326,-0.0004579540000234652,-2.3484094839302546e-05
0.026240917242621363,-0.0004450298642654784,-2.3709840805374783e-05
0.027008897472125974,-0.0004317174105867916,-2.392902762408785e-05
0.027758778783003035,-0.00041802549152300934,-2.41414633496153e-05
0.028489799118061026,-0.0004039633470477433,-2.434696055925799e-05
0.029201224678867675,-0.00038954059109851114,-2.454533654379455e-05
0.02989235249552495,-0.000374767196804913,-2.4736413490770407e-05
0.030562512882656125,-0.0003596534804603677,-2.4920018660086726e-05
0.031211071744187444,-0.0003442100843036568,-2.509598455127773e-05
0.031837432719972115,-0.0003284479581876169,-2.526414906190055e-05
0.03244103919728903,-0.0003123783402083016,-2.542435563649953e-05
0.033021376229311984,-0.0002960127363516514,-2.5576453405639518e-05
0.03357797240117672,-0.0002793628991940292,-2.572029731452594e-05
0.0341104016620029,-0.00026244080567823427,-2.5855748240744004e-05
0.03461828511086403,-0.0002452586339850175,-2.5982673100659817e-05
0.03510129270323522,-0.0002278287395314927,-2.6100944944038945e-05
0.03555914483745614,-0.00021016363014631986,-2.62104430364584e-05
0.03599161378111003,-0.00019227594049167832,-2.63110529291179e-05
0.03639852489853301,-0.00017417840582176756,-2.640266651569626e-05
0.03677975764400686,-0.0001558838351861326,-2.6485182075948236e-05
0.03713524629342027,-0.00013740508420177582,-2.6558504305795212e-05
0.03746498039801619,-0.00011875502752891671,-2.6622544333727886e-05
0.03776900495184606,-9.994653119145114e-05,-2.6677219723407978e-05
0.03804742026546874,-8.099242488712245e-05,-2.672245446242762e-05
0.0383003815320491,-6.190547443774298e-05,-2.6758178937258836e-05
0.03852809806299501,-4.269835453898196e-05,-2.6784329894503018e-05
0.038730832165502715,-2.3383621981857524e-05,-2.6800850388633227e-05
0.038908897636492155,-3.973689531358803e-06,-2.680768971651153e-05
0.03906265785342011,1.5519199341119266e-05,-2.680480333905909e-05
0.03919252345062887,3.508299466713151e-05,-2.6792152790557025e-05
0.03929894958094736,5.470586292502557e-05,-2.6769705576158986e-05
0.03938243277490351,7.437620851398828e-05,-2.6737435058299233e-05
0.039443507422428754,9.408269356332136e-05,-2.6695320332779905e-05
0.03948274191772236,0.00011381425589835913,-2.6643346095414486e-05
0.03950073453144977,0.00013356012501065218,-2.6581502500187235e-05
0.03949810910163255,0.00015330983591892275,-2.650978500995484e-05
0.03947551065527209,0.0001730532408581489,-2.6428194240760573e-05
0.03943360108075923,0.00019278051879215673,-2.6336735800847995e-05
0.03937305496648054,0.00021248218280396668,-2.6235420125448965e-05
0.03929455570682952,0.0002321490854722942,-2.61242623083799e-05
0.03919879195748557,0.00025177242238837296,-2.6003281931414736e-05
0.039086454503267344,0.00027134373400356117,-2.587250289231675e-05
0.038958233587381604,0.0002908549060262234,-2.5731953232309304e-05
0.03881481673804648,0.0003102981686075804,-2.5581664963650852e-05
0.038656887114253725,0.00032966609457065545,-2.5421673897856293e-05
0.03848512237934068,0.00034895159694405404,-2.5252019474977615e-05
0.03830019410313538,0.00036814792606467306,-2.5072744594225432e-05
0.038102767687311134,0.0003872486665122847,-2.488389544608119e-05
0.03789350279511999,0.0004062477341328925,-2.4685521345919897e-05
0.03767305424186985,0.00042513937339213996,-2.4477674569038638e-05
0.03744207327016551,0.0004439181552701488,-2.4260410186873066e-05
0.037201209099276156,0.00046257897586250924,-2.4033785904089902e-05
0.03695111060554431,0.00048111705578871434,-2.3797861896177095e-05
0.03669242796778786,0.0004995279404320474,-2.3552700647121905e-05
0.03642581410626616,0.0005178075009505609,-2.3298366786776254e-05
0.03615192575715636,0.0005359519359164165,-2.303492692755951e-05
0.03587142404986933,0.000553957773368173,-2.276244950023836e-05
0.03558497448579684,0.0005718218730020895,-2.2481004588645795e-05
0.03529324625230112,0.0005895414281866139,-2.219066376334862e-05
0.03499691084289164,0.0006071139674604122,-2.1891499914436864e-05
0.03469663998767904,0.0006245373551680549,-2.1583587083779747e-05
0.034393102923714725,0.0006418097908959034,-2.1267000297263758e-05
0.034086963057178156,0.0006589298073911266,-2.0941815397692002e-05
0.03377887409590849,0.0006758962666793982,-2.060810887917437e-05
0.033469475759174576,0.000692708354143169,-2.0265957723968728e-05
0.03315938919063663,0.0007093655703806219,-1.991543924283778e-05
0.0328492122035199,0.000725867720729161,-1.9556630920060334e-05
0.03253951448005438,0.0007422149024000546,-1.918961026427803e-05
0.032230832840067836,0.0007584074892300852,-1.8814454666370494e-05
0.031923666689841,0.0007744461141125624,-1.8431241265534833e-05
0.031618473759213096,0.0007903316492248259,-1.8040046824700486e-05
0.031315666227901065,0.0008060651842216045,-1.7640947616338877e-05
0.031015607327605495,0.0008216480026104811,-1.7234019319630854e-05
0.030718608484777078,0.0008370815565635767,-1.681933692983734e-05
0.030424927043703937,0.000852367440445697,-1.639697468058502e-05
0.030134764585292656,0.0008675073633529461,-1.596700597963536e-05
0.029848265837683925,0.0008825031209586903,-1.552950335855745e-05
0.029565518162118897,0.000897356566958641,-1.5084538436578118e-05
0.029286551590934302,0.0009120695843969043,-1.4632181898739232e-05
0.02901133939381514,0.0009266440571430917,-1.4172503488354232e-05
0.02873979915170637,0.000941081841779472,-1.3705572013623591e-05
0.028471794320086306,0.0009553847401474202,-1.3231455368141868e-05
0.028207136262216718,0.000969554472792996,-1.2750220564906764e-05
0.0279455867301627,0.000983592653541091,-1.2261933783323243e-05
0.027686860766116945,0.0009975007654151608,-1.176666042858418e-05
0.027430629983056946,0.0010112801381024544,-1.1264465202704776e-05
0.027176526162147278,0.0010249319271387555,-1.0755412186394474e-05
0.026924145085947343,0.0010384570949507792,-1.023956493087209e-05
0.026673050524286115,0.0010518563938533376,-9.71698655867106e-06
0.026422778307687415,0.0010651303510613311,-9.187739872442393e-06
0.02617284045595953,0.0010782792557522429,-8.651887470739e-06
0.025922729366579248,0.0010913031482078775,-8.10949186974897e-06
0.025671922097298436,0.001104201811073847,-7.560615629928539e-06
0.025419884791394058,0.00111697476279602,-7.005321486461072e-06
0.025166077290806343,0.0011296212533165701,-6.443672482432924e-06
0.02490995796741735,0.001142140262131126,-5.875732103571e-06
0.02465098878133813,0.001154530498818315,-5.301564413333639e-06
0.024388640549028784,0.0011667904061509068,-4.721234187091334e-06
0.024122398373225055,0.0011789181658814702,-4.13480704408324e-06
0.023851767152472714,0.0011909117072628945,-3.542349575797149e-06
0.023576277055166905,0.0012027687183148044,-2.9439294694027243e-06
0.023295488818387843,0.0012144866597831932,-2.339615624878225e-06
0.02300899872404511,0.0012260627816688015,-1.729478264515226e-06
0.022716443120767135,0.0012374941421300046,-1.1135890335655247e-06
0.02241750239852967,0.0012487776285098288,-4.920210909055664e-07
0.02211190437168462,0.0012599099802023824,1.3515081127248644e-07
0.021799427068070906,0.0012708878130623213,7.678502595886624e-07
0.0214799009485146,0.0012817076450664677,1.4059991241208597e-06
0.021153210594344687,0.0012923659229521825,2.0495175161255223e-06
0.02081929590573146,0.0013028590495772015,2.698323759257868e-06
0.0204781528533014,0.0013131834117669596,3.3523343745939086e-06
0.020129833820983323,0.0013233354084355308,4.011464079644531e-06
0.01977444757173481,0.0013333114787837104,4.675625801449342e-06
0.019412158859043783,0.0013431081303914051,5.344730703743121e-06
0.019043187694790815,0.0013527219670298638,6.0186882280984385e-06
0.018667808272004066,0.0013621497160215626,6.697406148861295e-06
0.018286347534796486,0.0013713882549732626,7.380790641610001e-06
0.017899183388793802,0.0013804346377041601,8.068746364779357e-06
0.01750674255292696,0.0013892861191895903,8.761176554002795e-06
0.017109498067792942,0.0013979401793447702,9.457983128636385e-06
0.016707966493632247,0.0014063945454851265,1.015906680984386e-05
0.016302704844147694,0.0014146472133195714,1.0864327249545035e-05
0.01589430730584201,0.0014226964663570688,1.1573663169464196e-05
0.015483401790407378,0.0014305408936311312,1.2286972509461245e-05
0.015070646366645995,0.0014381794056703946,1.3004152584286627e-05
0.014656725618717488,0.0014456112486667355,1.372510024787091e-05
0.014242346972536183,0.001452836016814549,1.4449712064241231e-05
0.013828237017835523,0.0014598536628121419,1.5177884484147904e-05
0.013415137832629955,0.0014666645065247582,1.590951402648213e-05
0.013003803294922235,0.0014732692418066462,1.664449746356498e-05
0.012594995347474713,0.0014796689414672455,1.738273200938345e-05
0.012189480168927971,0.0014858650603463463,1.8124115509836848e-05
0.011788024203249507,0.0014918594364393906,1.8868546634033282e-05
0.011391390011007549,0.001497654289992955,1.961592506564137e-05
0.01100033192517746,0.0015032522204770013,2.0366151693258857e-05
0.010615591511814303,0.0015086562013362493,2.111912879871217e-05
0.0102378928470676,0.0015138695724259696,2.1874760242152723e-05
0.009867937629335273,0.0015188960300450704,2.2632951642770482e-05
0.00950640015492295,0.001523739614491135,2.3393610553904534e-05
0.009153922199711815,0.0015284046950797936,2.4156646631297265e-05
0.00881110786270808,0.0015328959525953984,2.4921971793216062e-05
0.008478518432256308,0.0015372183591691394,2.5689500371157195e-05
0.008156667332330442,0.0015413771556102862,2.6459149249852052e-05
0.00784601520421485,0.0015453778262444226,2.723083799531573e-05
0.007546965186276121,0.0015492260713420455,2.8004488969712347e-05
0.007259858470105565,0.001552927777256141,2.8780027431861896e-05
0.006984970225871162,0.001556488984430135,2.9557381622283465e-05
0.00672250599374691,0.0015599158534850396,3.033648283176226e-05
0.006472598629263451,0.0015632146296407922,3.1117265452543715e-05
0.006235305872771781,0.0015663916057663011,3.189966701139549e-05
0.006010608592776711,0.0015694530843826883,3.268362818393274e-05
0.005798409733244324,0.0015724053389641935,3.346909278976946e-05
0.00559853397791453,0.0015752545748919833,3.4256007768233504e-05
0.0054107281311500995,0.0015780068904192495,3.504432313456131e-05
0.0052346622019198786,0.001580668238002517,3.583399191666675e-05
0.005069931160330334,0.0015832443863430794,3.662497007275315e-05
0.004916057316421761,0.0015857408834622675,3.7417216390204486e-05
0.004772493257194002,0.0015881630211056715,3.821069236634647e-05
0.004638625275255066,0.001590515800738784,3.9005362071807584e-05
0.004513777227191487,0.0015928039013643955,3.980119199733338e-05
0.004397214764179086,0.0015950316493622383,4.059815088501503e-05
0.004288149877130837,0.0015972029905225657,4.1396209544986236e-05
0.004185745696108408,0.0015993214644158755,4.219534065872085e-05
0.004089121484079614,0.0016013901812109224,4.299551857012755e-05
0.003997357769952225,0.0016034118010244303,4.379671906568639e-05
