acceleration,velocity,displacement
0.0013324130883918498,0.0,0.0
0.0011930994316413199,6.313781300082925e-07,1.5784453250207314e-10
0.0010011846646609877,1.1799491540838695e-06,6.106763535251136e-10
0.0007555498015458755,1.6191327706355853e-06,1.3104468347049772e-09
0.000455822598589394,1.921975870669403e-06,2.195723995031224e-09
0.00010244214745163508,2.06154205717966e-06,3.19160347699349e-09
-0.0003033050439755186,2.011326333048689e-06,4.2098205745505775e-09
-0.0007592790023209693,1.7456803214745669e-06,5.149072238181392e-09
-0.0012625082854232,1.2402334995385246e-06,5.895550693434664e-09
-0.0018092358055351772,4.7229747679893033e-07,6.323683437519028e-09
-0.0023949836278595827,-5.787573815497596e-07,6.297068461331321e-09
-0.003014633062077634,-1.9311615540340638e-06,5.669588727435365e-09
-0.0036625188353192296,-3.6004495283832794e-06,4.286685956831029e-09
-0.00433253844709417,-5.59921384898663e-06,1.986770112488552e-09
-0.005018278666942072,-7.936918127495692e-06,-1.3972628816320288e-09
-0.0057131602089475824,-1.0619777846468105e-05,-6.036436875122978e-09
-0.0064105990325649485,-1.3650717656846239e-05,-1.2104060750951564e-08
-0.00710417886021034,-1.7029412130040062e-05,-1.977409319767314e-08
-0.007787825499344873,-2.0752413219928866e-05,-2.9219549535165373e-08
-0.008455970961823201,-2.4813362335220883e-05,-4.061099342395281e-08
-0.009103695163012881,-2.9203278866429902e-05,-5.411515372436551e-08
-0.009726835241523792,-3.391091146756407e-05,-6.9893701307864e-08
-0.010322056476374115,-3.892313439703855e-05,-8.810221277401466e-08
-0.010886882887786957,-4.422536923807882e-05,-1.08889338682794e-07
-0.011419688782008984,-4.98020121555278e-05,-1.3239618403119566e-07
-0.011919654857073927,-5.563684806529853e-05,-1.5875589908640226e-07
-0.012386694531124575,-6.171343541234815e-05,-1.8809346995581392e-07
-0.012821357889304233,-6.801544851745536e-05,-2.205256909382648e-07
-0.013224721788567095,-7.45269684369232e-05,-2.5616129517685945e-07
-0.01359827487501249,-8.12327176028181e-05,-2.9510121668679475e-07
-0.013943805085817409,-8.811823759302558e-05,-3.3743895548575566e-07
-0.014263294476773847,-9.51700124836734e-05,-3.832610180049304e-07
-0.014558822871925723,-0.00010237554182084829,-4.3264740658106086e-07
-0.01483247958336634,-0.0001097233674346713,-4.856721338949408e-07
-0.01508628223228584,-0.00011720305788858436,-5.424037402257547e-07
-0.015322102921722008,-0.00012480515417708632,-6.029057932421724e-07
-0.015541603433211894,-0.0001325210807658198,-6.672373519778989e-07
-0.015746181835810284,-0.00014034302708307533,-7.354533789401227e-07
-0.015936932676221698,-0.00014826380571108334,-8.076050871386623e-07
-0.016114622389692135,-0.0001562766944775618,-8.837402121858235e-07
-0.016279681618071654,-0.00016437527047950275,-9.639032034250897e-07
-0.016432216585199833,-0.00017255324503032062,-1.0481353323025456e-06
-0.016572041417355184,-0.00018080430953095936,-1.1364747209428657e-06
-0.016698731866380188,-0.0001891220028518932,-1.2289562990385787e-06
-0.016811699122771338,-0.0001974996105991811,-1.3256117024013472e-06
-0.01691028102664153,-0.0002059301056365343,-1.4264691314602762e-06
-0.016993846692786335,-0.00021440613756639127,-1.5315531922610076e-06
-0.017061908717795095,-0.0002229200764190366,-1.6408847457573646e-06
-0.017114234896080126,-0.00023146411232250543,-1.75448079294275e-06
-0.01715094987568306,-0.00024003040851544623,-1.872354423152238e-06
-0.01717261743195135,-0.00024861130034235486,-1.994514850366688e-06
-0.017180295885450652,-0.0002571995286717054,-2.120967557620203e-06
-0.01717556188064132,-0.00026578849311322835,-2.2517145630664366e-06
-0.01716050087873475,-0.00027437250880307237,-2.3867548135455117e-06
-0.01713766599364604,-0.00028294705052116757,-2.5260847033765717e-06
-0.017110009336468255,-0.00029150896935369616,-2.6696987083452875e-06
-0.017080790942462783,-0.00030005666942342895,-2.8175901180395686e-06
-0.017053469761106752,-0.00030859023459932133,-2.9697518440452563e-06
-0.017031580171188998,-0.0003171114970823953,-3.1261772769656853e-06
-0.017018597039031705,-0.0003256240413849505,-3.2868611615825218e-06
-0.017017792721922945,-0.00033413313882518916,-3.4518004566350567e-06
-0.017032090377361354,-0.0003426456096000102,-3.6209951437413567e-06
-0.017063919104147823,-0.00035116961197038753,-3.794448949133956e-06
-0.017115077363954182,-0.00035971436108741303,-3.9721699423984065e-06
-0.017186611361976592,-0.0003682897832688957,-4.154170978487484e-06
-0.017278714438813198,-0.00037690611471909315,-4.3404699529844815e-06
-0.017390652266531664,-0.0003855734563954294,-4.531089845763112e-06
-0.017520717197663453,-0.0003943012987614781,-4.726058534552339e-06
-0.017666213953870236,-0.00040309803154936155,-4.925408367130049e-06
-0.01782347817105273,-0.0004119704545805923,-5.129175488662537e-06
-0.01798792874331933,-0.00042092330630918534,-5.337398928884982e-06
-0.018154153620480326,-0.00042995882690013526,-5.550119462187312e-06
-0.018316026486089036,-0.0004390763719267776,-5.767378261894041e-06
-0.018466849484745848,-0.00044827209091948634,-5.989215377605607e-06
-0.018599515957072283,-0.0004575386822799409,-6.215668070905464e-06
-0.018706686979127925,-0.0004668652330139909,-6.446769049728947e-06
-0.0187809755890634,-0.0004762371486560388,-6.6825446451464546e-06
-0.018815132531885884,-0.0004856361756862761,-6.923012976232033e-06
-0.018802227484164623,-0.0004950405156902887,-7.168182149076174e-06
-0.018735820310768522,-0.000504425027639022,-7.418048534908502e-06
-0.018610117730277015,-0.0005137615121492834,-7.67259516985558e-06
-0.018420111432553603,-0.0005230190694399911,-7.931790315252898e-06
-0.018161694180792033,-0.0005321645208433275,-8.195586212823728e-06
-0.017831751210345307,-0.0005411628821911118,-8.463918063582338e-06
-0.017428225708183687,-0.000549977876420744,-8.736703253235303e-06
-0.016950158873583452,-0.0005585724725661859,-9.013840840482035e-06
-0.016397705874899925,-0.0005669094387533067,-9.295211318311907e-06
-0.0157721284337301,-0.0005749518973304641,-9.58067665233285e-06
-0.015075763755067305,-0.0005826638703776635,-9.870080594259882e-06
-0.014311969358829689,-0.0005900108036561377,-1.0163249262768331e-05
-0.013485044253241294,-0.0005969600570591555,-1.0459991977947155e-05
-0.012600128376358752,-0.0006034813502165555,-1.0760102329766082e-05
-0.011663084042434914,-0.0006095471533212539,-1.1063359455650535e-05
-0.010680364699359617,-0.0006151330155067025,-1.1369529497857524e-05
-0.009658876599228951,-0.0006202178258313496,-1.1678367208192038e-05
-0.008605837705651065,-0.0006247840044075697,-1.1989617665751768e-05
-0.007528636443614165,-0.0006288176229448859,-1.2303018072589881e-05
-0.006434692161516308,-0.0006323084550961686,-1.2618299592100145e-05
-0.0053313194819982895,-0.0006352499580070472,-1.2935189195375948e-05
-0.0042255987601532066,-0.0006376391875675851,-1.3253411481769607e-05
-0.003124253767605198,-0.0006394766506995247,-1.3572690441336384e-05
-0.0020335363103119687,-0.000640766098219004,-1.3892751128566016e-05
-0.0009591172798242737,-0.000641514261616538,-1.42133212185249e-05
9.401497480964823e-05,-0.0006417305371927917,-1.4534132418227233e-05
0.0011216459662832137,-0.0006414266219575185,-1.4854921708014811e-05
0.0021204112022778212,-0.0006406161076653782,-1.5175432390420536e-05
0.003087850938802672,-0.0006393140421301081,-1.5495414927869407e-05
0.0040224370268374995,-0.000637536470138698,-1.5814627555936607e-05
0.0049235668555097315,-0.0006352999691681112,-1.613283666576331e-05
0.005791523259606155,-0.0006326211966393322,-1.644981695721517e-05
0.0066274043778653475,-0.0006295164647299644,-1.6765351372557494e-05
0.007433031478280073,-0.0006260013557659281,-1.7079230827681466e-05
0.008210843928401837,-0.0006220903869142575,-1.7391253763351512e-05
0.008963789108641002,-0.0006177967286549968,-1.7701225542243826e-05
0.00969521292407266,-0.0006131319781468184,-1.8008957718944278e-05
0.01040875477907407,-0.0006081059862210317,-1.831426721003624e-05
0.011108249255125113,-0.0006027267352124819,-1.861697539039462e-05
0.011797635247375185,-0.0005970002640868567,-1.8916907140219455e-05
0.012480872645397259,-0.0005909306371136636,-1.9213889865519586e-05
0.013161866717460734,-0.0005845199522729491,-1.950775251286624e-05
0.013844400031221346,-0.0005777683855857786,-1.9798324597330923e-05
0.014532070636920144,-0.0005706742679187431,-2.0085435260707053e-05
0.015228234350632723,-0.000563234191671855,-2.0368912375604702e-05
0.015935949138571787,-0.0005554431457995538,-2.0648581709972556e-05
0.01665792062334807,-0.0005472946783590738,-2.0924266166012213e-05
0.01739644885346143,-0.0005387810859898715,-2.119578510709945e-05
0.018153376992313144,-0.0005298936295284278,-2.1462953785979025e-05
0.018930042468979957,-0.0005206227746631045,-2.1725582887026907e-05
0.019727231171826697,-0.0005109584562529028,-2.1983478194755907e-05
0.0205451361682589,-0.0005008903644178814,-2.2236440399923603e-05
0.021383324191759628,-0.0004904082493278768,-2.2484265053360042e-05
0.0222407153132547,-0.0004795022394516232,-2.2726742675554917e-05
0.023115582963247054,-0.0004681631648824978,-2.2963659026638447e-05
0.024005581123562672,-0.0004563828738607954,-2.319479553632427e-05
0.024907801579347875,-0.0004441545281850677,-2.3419929886835735e-05
0.025818857536496632,-0.0004314728634061066,-2.363883673473353e-05
0.02673498397727119,-0.00041833440302766465,-2.3851288551341972e-05
0.027652142493339228,-0.00040473762141001205,-2.405705655745139e-05
0.028566118922999383,-0.0003906830560559274,-2.4255911726817874e-05
0.029472604453443775,-0.0003761733752118166,-2.444762583463481e-05
0.030367254114855854,-0.00036121341056974166,-2.46319725310802e-05
0.03124572079752159,-0.00034581016684164727,-2.4808728425433047e-05
0.03210366791173183,-0.0003299728196643339,-2.4977674172059543e-05
0.03293676863755407,-0.00031371271052701245,-2.513859555460738e-05
0.033740702752819846,-0.00029704334267941895,-2.5291284567908987e-05
0.03451116180149135,-0.00027998037654084114,-2.5435540497714053e-05
0.035243869811242334,-0.00026254161863765774,-2.5571170996508677e-05
0.03593462187893224,-0.0002447469957151141,-2.569799315009687e-05
0.036579339347056795,-0.00022661850540861683,-2.58158345253778e-05
0.037174138872593375,-0.0002081801358537043,-2.592453418569338e-05
0.03771541234106572,-0.00018945774805028952,-2.602394365666938e-05
0.038199914299114,-0.0001704789163902446,-2.6113927822779515e-05
0.038624853567848436,-0.00015127272442350397,-2.619436573298295e-05
0.038987986387276574,-0.00013186951443472272,-2.6265151292697507e-05
0.039287709502180704,-0.0001123005904623584,-2.6326193818921777e-05
0.03952315218870284,-9.259787503963752e-05,-2.6377418435297274e-05
0.03969426569317938,-7.279352056916696e-05,-2.6418766284199475e-05
0.03980190688778168,-5.29194774239267e-05,-2.6450194533697747e-05
0.039847910885284804,-3.300702298066008e-05,-2.6471676158798895e-05
0.0398351459816435,-1.3086258763927999e-05,-2.648319947923504e-05
0.0397675440242251,6.814413737539152e-06,-2.6484767440491638e-05
0.0396500997009369,2.6668824668829653e-05,-2.6476396630890046e-05
0.03948883303731321,4.645355785339218e-05,-2.6458116035259492e-05
0.039290710715119546,6.614844379150038e-05,-2.642996553484827e-05
0.03906352349205775,8.57370023432947e-05,-2.639199417331457e-05
0.03881571874060692,0.00010520681290146088,-2.634425821950338e-05
0.038556189485960166,0.00012454978995810265,-2.628681906878849e-05
0.038294024991738326,0.00014376234357752727,-2.6219741035404582e-05
0.038038232297353126,0.00016284540789980012,-2.614308909753525e-05
0.03779744157599082,0.0001818043263681361,-2.605692666396827e-05
0.03757960977209548,0.0002006485892051577,-2.5961313435074947e-05
0.03739173671753271,0.00021939142582756474,-2.5856303431316766e-05
0.037239606263928846,0.00023804926157293014,-2.5741943259466642e-05
0.03712756259057168,0.0002566410537865553,-2.5618270680626772e-05
0.03705832965500976,0.00027518752684795066,-2.5485313535468144e-05
0.03703288023588225,0.0002937103293206737,-2.5343089071425987e-05
0.03705035978805891,0.000312231139326659,-2.5191603704264154e-05
0.03710806889085816,0.00033077074649638823,-2.5030853232808394e-05
0.03720150678787462,0.00034934814041607143,-2.486082351108028e-05
0.03732447800240504,0.00036797963661364135,-2.4681491566822854e-05
0.03746926371455917,0.0003866780720428824,-2.4492827139658722e-05
0.03762685807130319,0.000405452102489348,-2.4294794596025664e-05
0.037787266222247394,0.0004243056335627356,-2.4087355162012642e-05
0.0379398562132366,0.0004432374141716066,-2.3870469400079055e-05
0.03807375172484439,0.00046224081615612683,-2.364409984249712e-05
0.03817824770237006,0.00048130381601293044,-2.3408213684454856e-05
0.03824322732330654,0.0005004091847693496,-2.3162785434259284e-05
0.03825955774139703,0.0005195348810355256,-2.2907799417808066e-05
0.03821944380954396,0.0005386546314232609,-2.264325203969337e-05
0.038116722497127775,0.0005577386729999288,-2.2369153713587573e-05
0.037947085012182094,0.0005767546248772562,-2.2085530389118275e-05
0.03770821845479182,0.0005956684507439997,-2.179242462021296e-05
0.03739986385408047,0.0006144454713212178,-2.1489896139696656e-05
0.03702379178273077,0.0006330513852304206,-2.1178021925558746e-05
0.036583699847480014,0.0006514532581379733,-2.085689576471665e-05
0.03608503896396176,0.0006696204428408338,-2.052662733947195e-05
0.03553477856997489,0.0006875253972243179,-2.018734087945566e-05
0.03494112450635277,0.0007051443729933998,-1.9839173436901228e-05
0.03431320546425561,0.000722457955486052,-1.9482272854781366e-05
0.033660743650891285,0.0007394514427648387,-1.9116795505218642e-05
0.03299372360652488,0.0007561150595791927,-1.8742903879632634e-05
0.03232207146409431,0.0007724440083468475,-1.8360764112651123e-05
0.03165535593692634,0.0007884383651971026,-1.7970543519265137e-05
0.031002521548240233,0.0008041028345683942,-1.7572408219323762e-05
0.03037166336843902,0.000819446380797564,-1.7166520915482273e-05
0.02976985026043057,0.0008344817592047814,-1.6753038880481686e-05
0.029203000374830906,0.0008492249718635967,-1.633211219771459e-05
0.028675808944267724,0.0008636946741933714,-1.590388228620035e-05
0.02819172501730998,0.0008779115576837658,-1.5468480728231065e-05
0.027752971246676764,0.0008918977317497625,-1.5026028405872684e-05
0.02736059943837595,0.0009056761244210257,-1.4576634941829986e-05
0.027014574206414056,0.0009192699178322232,-1.4120398431266673e-05
0.026713877693907765,0.0009327020308073036,-1.3657405444106792e-05
0.0264566296069298,0.000945994657632513,-1.3187731271996837e-05
0.026240217998763377,0.0009591688695339363,-1.2711440390205225e-05
0.026061436918456853,0.0009722442832632414,-1.2228587102005931e-05
0.025916627469036578,0.0009852387993601148,-1.1739216331350092e-05
0.02580181885343499,0.0009981684109407326,-1.124336452877488e-05
0.02571286472881118,0.0010110470818362942,-1.0741060655580623e-05
0.025645567640306698,0.0010238866899285736,-1.0232327212639406e-05
0.025595782212564627,0.0010366970273917914,-9.717181283309314e-06
0.02555948815295647,0.0010494858449831717,-9.195635565215573e-06
0.025532827572254134,0.0010622589239144744,-8.667699372991162e-06
0.025512106795622578,0.0010750201575064435,-8.133379602635932e-06
0.025493769101472365,0.0010877716264807173,-7.592681656639142e-06
0.025474349884383917,0.0011005136562271813,-7.0456103359621674e-06
0.025450428253991467,0.0011132448507617753,-6.4921707092149285e-06
0.025418588851904123,0.0011259621050382492,-5.932368970264922e-06
0.025375405507417143,0.0011386606036280795,-5.36621329309834e-06
0.02531745511840468,0.001151333818784535,-4.7937146874951864e-06
0.025241366098484146,0.0011639735240887572,-4.214887851776863e-06
0.025143900852099294,0.001176569840826403,-3.6297520105480732e-06
0.025022066269553906,0.0011891113326068163,-3.0383317171897684e-06
0.02487324088409657,0.0012015851593952288,-2.440657594189257e-06
0.024695303207200515,0.001213977295418053,-1.8367669804859365e-06
0.02448674418035558,0.001226272807264942,-1.2267044548151878e-06
0.02424674873416744,0.0012384561804935728,-6.10522207875559e-07
0.023975236975386865,0.0012505116769209613,1.1719756478074518e-08
0.02367286257735225,0.001262423701809146,6.399536011606013e-07
0.02334097194306623,0.0012741771604392507,1.2741038167227005e-06
0.02298153129682767,0.0012857577862492241,1.914087553394819e-06
0.022597030360334475,0.0012971524266635146,2.5598151066230037e-06
0.022190371510565906,0.0013083492771312397,3.2111905325716924e-06
0.021764752693706174,0.0013193380581823077,3.8681123664000795e-06
0.02132355112891015,0.0013301101341379618,4.530474414480147e-06
0.02087021332134166,0.0013406585752505247,5.198166591827269e-06
0.02040815504788002,0.0013509781673428302,5.871075777475608e-06
0.01994067259428858,0.0013610653742533723,6.549086662874659e-06
0.01947086420673003,0.001370918258453627,7.232082571051408e-06
0.01900155935697114,0.0013805363643445523,7.919946226750953e-06
0.0185352532099293,0.0013899205674862774,8.61256045970866e-06
0.018074044528860536,0.001399072891920975,9.309808824560472e-06
0.01761957719244436,0.001407996297351301,1.0011576121878541e-05
0.0171729880060631,0.0014166944386509279,1.0717748805879098e-05
0.01673486530218204,0.0014251714019779891,1.1428215266036328e-05
0.01630522316452447,0.0014334314240946658,1.2142865972554492e-05
0.01588349558279063,0.0014414786037814946,1.2861593479523532e-05
0.015468554517977722,0.0014493166163066866,1.3584292284545577e-05
0.015058755746623635,0.001456948443872837,1.4310858549590457e-05
0.014652015435154979,0.0014643761366682816,1.5041189694725736e-05
0.014245918030063403,0.0014716006200345862,1.5775183883901453e-05
0.013837852674701267,0.0014786215627107773,1.6512739429587794e-05
0.013425171822578697,0.0014854373188350973,1.7253754149974263e-05
0.01300536261402531,0.0014920449524442483,1.79981247177941e-05
0.012576219492072108,0.0014984403479707726,1.8745746042897853e-05
0.012136006180736939,0.0015046184043889749,1.949651073098779e-05
0.01168359680190266,0.0015105733051346349,2.025030865836869e-05
0.011218588746646383,0.001516298851521772,2.1007026697532793e-05
0.010741382532020028,0.0015217888443414386,2.1766548621498594e-05
0.010253225494366988,0.0015270374963480353,2.2528755206670964e-05
0.009756217212241422,0.0015320398570246873,2.3293524545014143e-05
0.009253275976114781,0.0015367922303217763,2.4060732566850758e-05
0.008748067792254715,0.0015412925662638688,2.483025376599717e-05
0.008244901497423298,0.0015455408085862884,2.560196210970971e-05
0.007748594379111059,0.001549539182555422,2.6375732107495135e-05
0.0072643122884150394,0.0015532924092223033,2.7151440005439566e-05
0.006797388070195002,0.0015568078343119558,2.792896506632313e-05
0.006353123507935119,0.0015600954622064884,2.870819089045274e-05
0.005936582691420687,0.0015631678887563273,2.9489006728193444e-05
0.0055523873204796756,0.0015660401312593024,3.027130873319735e-05
0.005204525489124747,0.0015687293594617035,3.10550011058776e-05
0.004896184546264973,0.001571254536970551,3.1839997079985665e-05
0.0046296163853410234,0.0015736359872034523,3.2626219711029165e-05
0.004406040884172709,0.0015758949015208309,3.341360243321024e-05
0.0042255907300868065,0.0015780528094243957,3.420208936094654e-05
0.004087298812576598,0.0015801310318100616,3.4991635321255156e-05
0.003989127866978121,0.0015821501384799502,3.578220561382766e-05
0.0039280406461328155,0.001584129430608228,3.65737755060997e-05
0.0039001068245605765,0.0015860864674759013,3.736632948062073e-05
0.0039006403403633086,0.0015880366542671324,3.8159860261056494e-05
0.0039243592848572815,0.0015899929041734374,3.895436765066664e-05
0.003965560544819953,0.0015919653841308568,3.974985722274271e-05
0.004018302578750956,0.0015939613499117494,4.054633890625336e-05
0.0040765907829499615,0.0015959850732521746,4.134382551204434e-05
0.004134560201320149,0.0015980378609982422,4.214233124560695e-05
0.004186650190130988,0.001600118163596105,4.294187025175554e-05
0.004227765912444228,0.0016022217676217487,4.3742455234560005e-05
0.004253422413684612,0.0016043420647032808,4.454409619264126e-05
