frame_number,force
0,859.3044652786665
1,859.2922637914294
2,859.27545534899
3,859.253941947372
4,859.2276909844094
5,859.1967409170007
6,859.1612044211751
7,859.1212689219013
8,859.0771946665552
9,859.0293107115941
10,858.9780092473156
11,858.9237385832128
12,858.8669949000365
13,858.8083126721798
14,858.7482535886512
15,858.6873938820688
16,858.6263102014743
17,858.5655645027513
18,858.5056887810003
19,858.4471706964977
20,858.3904411642822
21,858.3358647796223
22,858.2837336068885
23,858.2342644994484
24,858.1875998401954
25,858.1438113859314
26,858.1029067197416
27,858.0648376636001
28,858.0295099033043
29,857.9967930589831
30,857.9665305380008
31,857.9385487462595
32,857.9126655268393
33,857.8886978918302
34,857.8664691322157
35,857.8458152838745
36,857.8265908032416
37,857.8086732434434
38,857.7919667409598
39,857.776404169207
40,857.7619478113444
41,857.7485883639862
42,857.7363421064844
43,857.7252461957034
44,857.7153522012599
45,857.7067181170057
46,857.6993991976676
47,857.6934381314272
48,857.6888552555127
49,857.6856396528941
50,857.6837419465194
51,857.6830694456557
52,857.6834840632855
53,857.6848031487693
54,857.6868030931108
55,857.6892253420032
56,857.6917843722622
57,857.6941772392302
58,857.6960943919356
59,857.6972314916788
60,857.6973019360786
61,857.6960497066665
62,857.6932620560439
63,857.6887814698097
64,857.6825163183291
65,857.6744496682811
66,857.6646458341991
67,857.6532543767171
68,857.6405113559964
69,857.626737707492
70,857.6123346575183
71,857.5977762088611
72,857.5835989217813
73,857.5703894135518
74,857.5587701056626
75,857.5493837619969
76,857.5428773537337
77,857.5398857912935
78,857.5410160521606
79,857.5468321817301
80,857.5578415721056
81,857.5744828653676
82,857.5971157850257
83,857.6260131310485
84,857.6613550449849
85,857.7032255013368
86,857.7516109100171
87,857.8064007658519
88,857.8673903697645
89,857.934285660589
90,858.0067101189289
91,858.0842135743559
92,858.1662825886744
93,858.25235195052
94,858.341816790644
95,858.4340449392153
96,858.5283892969096
97,858.6242000560422
98,858.7208365811083
99,858.8176787544227
100,858.9141376888967
101,859.0096658335395
102,859.1037665154997
103,859.196002840944
104,859.2860056930571
105,859.3734804000078
106,859.4582115304024
107,859.5400652445909
108,859.6189887641931
109,859.6950068606847
110,859.7682157121862
111,859.8387748305408
112,859.906897862513
113,859.9728429480817
114,860.0369031311527
115,860.099397161137
116,860.1606608816135
117,860.2210392722513
118,860.2808791514718
119,860.3405225538066
120,860.4003007673176
121,860.4605289195051
122,860.52150092231
123,860.5834846011334
124,860.6467169221182
125,860.7113993300696
126,860.7776932544937
127,860.8457158312417
128,860.9155358906571
129,860.9871703421333
130,861.060581238953
131,861.1356739978479
132,861.2122974009378
133,861.2902459772608
134,861.3692650170677
135,861.4490578952739
136,861.5292948608907
137,861.6096222186019
138,861.6896708801111
139,861.7690634673081
140,861.8474194353496
141,861.9243580519732
142,861.999499506289
143,862.0724648430723
144,862.1428756849491
145,862.2103546850561
146,862.2745273415459
147,862.3350253770124
148,862.3914915710029
149,862.4435858092644
150,862.4909920828436
151,862.5334261456819
152,862.5706435383734
153,862.6024477460193
154,862.6286983509549
155,862.6493190927014
156,862.664305701273
157,862.6737332239773
158,862.6777623852238
159,862.6766443985507
160,862.6707236263609
161,862.6604375176618
162,862.6463133234536
163,862.6289612055889
164,862.6090635008409
165,862.5873600541769
166,862.5646297420986
167,862.5416686282276
168,862.519265574755
169,862.4981764368531
170,862.4790981064019
171,862.4626436486328
172,862.4493196297612
173,862.4395065253952
174,862.433442907504
175,862.4312139748146
176,862.4327448838288
177,862.4377992115865
178,862.4459827690082
179,862.4567529385797
180,862.4694336840482
181,862.4832362471288
182,862.4972852503286
183,862.5106495167892
184,862.5223764674456
185,862.531528523086
186,862.5372196235514
187,862.5386498881288
188,862.5351365956109
189,862.5261399702052
190,862.5112826356285
191,862.4903620215133
192,862.463355446453
193,862.4304179822515
194,862.391873475849
195,862.348199333977
196,862.3000059598678
197,862.2480120444557
198,862.193017104538
199,862.1358726387406
200,862.077453121566
201,862.0186279120376
202,861.960235065349
203,861.9030579683448
204,861.8478056103698
205,861.795097102591
206,861.7454507735122
207,861.6992778449932
208,861.6568803945406
209,861.6184530884158
210,861.584088046787
211,861.5537821704478
212,861.5274463125909
213,861.5049157917133
214,861.4859618460739
215,861.4703036893468
216,861.4576208649028
217,861.4475655990133
218,861.4397747431507
219,861.4338806722516
220,861.4295203225246
221,861.4263415852798
222,861.4240065755799
223,861.4221917908526
224,861.4205857232815
225,861.4188849328476
226,861.4167898082198
227,861.4140012225735
228,861.4102191021108
229,861.4051436417886
230,861.3984795484597
231,861.3899432642745
232,861.3792726441523
233,861.3662380925605
234,861.3506538034851
235,861.3323876092795
236,861.3113681238433
237,861.2875883498987
238,861.2611055380212
239,861.2320376100247
240,861.2005567734396
241,861.1668810851905
242,861.1312647437279
243,861.0939878342956
244,861.0553461433758
245,861.0156415257162
246,860.9751731447938
247,860.9342296987124
248,860.8930825407036
249,860.8519794839704
250,860.8111390621689
251,860.7707450909687
252,860.7309415459515
253,860.6918279917737
254,860.6534559562695
255,860.6158266729313
256,860.5788905689635
257,860.5425488474945
258,860.5066575027465
259,860.4710340266354
260,860.4354668580995
261,860.3997273308712
262,860.3635835652813
263,860.326815477915
264,860.2892298998044
265,860.2506747629479
266,860.2110514597302
267,860.1703247285141
268,860.1285296477245
269,860.0857754626344
270,860.0422460603197
271,859.9981970329809
272,859.9539494598988
273,859.9098807212818
274,859.866412728902
275,859.8239979227259
276,859.7831033685094
277,859.7441934115645
278,859.7077115793113
279,859.6740626533956
280,859.6435959224592
281,859.6165905436055
282,859.5932437440814
283,859.5736623642638
284,859.5578580252871
285,859.5457460248565
286,859.5371479335248
287,859.5317977405272
288,859.5293512167532
289,859.5293979435429
290,859.5314753162755
291,859.5350838400352
292,859.5397031376777
293,859.5448081847205
294,859.5498853115877
295,859.5544475012482
296,859.5580485333581
297,859.5602956028104
298,859.560860117646
299,859.559486418836
300,859.5559981726807
301,859.550302184584
302,859.5423893850866
303,859.5323327761297
304,859.5202822264322
305,859.5064561620947
306,859.4911303930973
307,859.4746245493704
308,859.4572868403739
309,859.4394779964789
310,859.4215552264748
311,859.4038568992876
312,859.3866885456628
313,859.3703106851456
314,859.3549288461204
315,859.3406859630288
316,859.3276571778625
317,859.3158469674465
318,859.3051884255984
319,859.295544441722
320,859.286710479731
321,859.2784186962612
322,859.2703432027287
323,859.2621063196026
324,859.2532857062666
325,859.2434223260868
326,859.2320293010852
327,859.2186017294955
328,859.2026274550672
329,859.1835986724045
330,859.1610241971758
331,859.1344421993028
332,859.1034331406229
333,859.0676325803452
334,859.0267434519056
335,858.9805473817703
336,858.9289145916819
337,858.871811900434
338,858.8093083420887
339,858.741577964238
340,858.668899487933
341,858.5916527162007
342,858.5103118313702
343,858.4254359433982
344,858.337657384196
345,858.2476682747648
346,858.1562058520532
347,858.0640369934865
348,857.9719423742092
349,857.8807007367426
350,857.7910738069112
351,857.7037924098954
352,857.6195442708156
353,857.5389637728816
354,857.4626236172419
355,857.3910280066028
356,857.3246067995827
357,857.2637101253317
358,857.2086031780262
359,857.1594612003898
360,857.1163648659176
361,857.079296330592
362,857.0481362220834
363,857.0226618835316
364,857.0025473251936
365,856.987365449482
366,856.9765930370601
367,856.96961869551
368,856.9657536606026
369,856.964245175271
370,856.9642921234475
371,856.9650625379367
372,856.9657125120012
373,856.9654059890556
374,856.9633348863207
375,856.958738957972
376,856.950924698493
377,856.9392824882427
378,856.9233011651559
379,856.902579303114
380,856.8768326820726
381,856.8458977212475
382,856.8097309976891
383,856.7684053642047
384,856.7221035125091
385,856.6711099506401
386,856.6158022412599
387,856.5566421071284
388,856.4941667807904
389,856.4289807678467
390,856.3617479720597
391,856.2931839136096
392,856.2240476277199
393,856.1551328078233
394,856.0872578334676
395,856.0212544598832
396,855.9579551472008
397,855.8981792574307
398,855.8427185626102
399,855.7923225980934
400,855.7476843271941
401,855.7094264015932
402,855.6780881269462
403,855.6541131845936
404,855.6378382124627
405,855.6294824376437
406,855.6291386590888
407,855.6367660211945
408,855.6521851631794
409,855.675076403526
410,855.7049816061559
411,855.7413103037776
412,855.7833505196847
413,855.8302844897822
414,855.881209117079
415,855.9351605267581
416,855.9911416320779
417,856.0481512822363
418,856.1052134000829
419,856.1614045457902
420,856.2158785794973
421,856.2678875276987
422,856.3167982873861
423,856.362105264435
424,856.4034392818546
425,856.4405730603551
426,856.4734233783875
427,856.5020498347761
428,856.5266500482456
429,856.5475511227083
430,856.5651972820286
431,856.5801337656595
432,856.5929873891782
433,856.6044445663724
434,856.6152279568863
435,856.6260731080131
436,856.6377064107556
437,856.6508254197895
438,856.6660822122061
439,856.6840700768286
440,856.7053134807508
441,856.7302610068064
442,856.7592808568236
443,856.7926585690029
444,856.8305967066825
445,856.873216314341
446,856.9205598707551
447,856.972595389196
448,857.0292213087812
449,857.0902718634023
450,857.15552263087
451,857.2246959587832
452,857.2974660142203
453,857.3734633572303
454,857.452279145432
455,857.5334692624705
456,857.6165588047886
457,857.7010474495656
458,857.7864161915487
459,857.872135729885
460,857.9576764920332
461,858.0425200319215
462,858.1261713672843
463,858.2081716751974
464,858.2881106187732
465,858.365637485849
466,858.4404703716027
467,858.5124028460972
468,858.5813078182816
469,858.6471385495466
470,858.7099269954432
471,858.7697799018187
472,858.8268733057884
473,858.8814461905017
474,858.9337939663849
475,858.984262261358
476,859.0332413063285
477,859.0811610386604
478,859.1284868756694
479,859.1757159181439
480,859.2233731704711
481,859.272007235724
482,859.3221848833801
483,859.3744839615568
484,859.4294843662638
485,859.4877570829799
486,859.5498515210753
487,859.6162814202761
488,859.6875096268567
489,859.7639321637181
490,859.8458622879472
491,859.9335155185962
492,860.0269967579582
493,860.126290549817
494,860.2312552681666
495,860.3416217134522
496,860.4569963003846
497,860.5768687816827
498,860.7006242300147
499,860.8275587679652
500,860.9568983374592
501,861.0878196990968
502,861.2194728467034
503,861.3510040600497
504,861.481578850122
505,861.6104040448067
506,861.7367482188437
507,861.8599596544743
508,861.9794811193474
509,862.094860982055
510,862.2057604640802
511,862.3119570492238
512,862.4133442136745
513,862.5099277266684
514,862.6018188103113
515,862.6892244366339
516,862.7724350124072
517,862.8518097060685
518,862.9277597298764
519,863.0007299885251
520,863.0711796090296
521,863.1395619872538
522,863.2063051907604
523,863.2717938331459
524,863.3363536963823
525,863.4002402197838
526,863.4636314982142
527,863.5266258519626
528,863.5892435793587
529,863.6514322804327
530,863.7130751107879
531,863.7740013822539
532,863.8339989565707
533,863.8928278334668
534,863.9502342619702
535,864.0059646818778
536,864.0597788732427
537,864.1114618375595
538,864.1608340667773
539,864.207759869339
540,864.2521533234326
541,864.2939813751829
542,864.3332637406835
543,864.3700695653669
544,864.4045110698971
545,864.4367345830323
546,864.4669095066012
547,864.4952159650729
548,864.5218321231935
549,864.5469222815763
550,864.5706267952477
551,864.5930546230452
552,864.614278972942
553,864.6343361121609
554,864.6532270352229
555,864.6709214441556
556,864.6873634619278
557,864.7024786036951
558,864.7161816018114
559,864.7283846064507
560,864.7390051195018
561,864.7479729104359
562,864.7552351923678
563,864.7607595057094
564,864.764534026863
565,864.7665653168073
566,864.7668737903359
567,864.765487423263
568,864.7624344257385
569,864.7577357547949
570,864.7513983756862
571,864.7434100793816
572,864.733736403551
573,864.7223198315921
574,864.7090810848558
575,864.6939221082833
576,864.6767303302582
577,864.6573838749832
578,864.6357574529609
579,864.611728577785
580,864.5851836880024
581,864.5560238624633
582,864.5241700824167
583,864.4895682256404
584,864.4521940293159
585,864.4120581091722
586,864.3692108376656
587,864.3237465797149
588,864.2758066018065
589,864.2255800098951
590,864.173302324615
591,864.1192516386359
592,864.0637425501425
593,864.0071181493959
594,863.9497403204065
595,863.8919786296427
596,863.8341981462651
597,863.7767466113328
598,863.7199413995934
599,863.6640567405967
600,863.6093117510784
601,863.5558599523259
602,863.5037810042747
603,863.4530753179985
604,863.403662009346
605,863.3553803565616
606,863.3079946086699
607,863.2612017903534
608,863.214642111163
609,863.1679116298443
610,863.1205768466499
611,863.0721908534317
612,863.0223105680217
613,862.9705144777995
614,862.9164202951397
615,862.8597019505338
616,862.800105284292
617,862.7374616197617
618,862.6716982640262
619,862.6028450399866
620,862.5310362218089
621,862.45650763517
622,862.3795890858739
623,862.3006926287251
624,862.2202974592254
625,862.138932368009
626,862.0571567091655
627,861.9755407433757
628,861.8946461197975
629,861.8150072041119
630,861.7371139302398
631,861.6613968192511
632,861.5882147320906
633,861.5178457646717
634,861.4504814651249
635,861.3862243316871
636,861.3250884157354
637,861.2670028091194
638,861.2118177721898
639,861.1593132158836
640,861.109209217778
641,861.0611782739949
642,861.0148590361168
643,860.9698712524498
644,860.9258314764921
645,860.8823689024508
646,860.8391405469499
647,860.7958449476471
648,860.7522336045489
649,860.7081196012703
650,860.6633831920262
651,860.6179744436015
652,860.5719130934781
653,860.5252856601456
654,860.4782397486119
655,860.4309756169995
656,860.383735392023
657,860.3367906914295
658,860.2904296845539
659,860.24494470843
660,860.2006214207373
661,860.1577301474413
662,860.1165196792645
663,860.0772134304358
664,860.040007718615
665,860.0050719691159
666,859.9725507510796
667,859.9425675501049
668,859.9152300338121
669,859.8906363736626
670,859.868882069882
671,859.850066725873
672,859.8343002700294
673,859.8217081377671
674,859.8124348974567
675,859.8066458234116
676,859.804526076809
677,859.8062774229031
678,859.8121126682448
679,859.8222481521864
680,859.8368946559756
681,859.8562470370548
682,859.880472843412
683,859.9097002104035
684,859.9440055119163
685,859.9834014588909
686,860.0278265126026
687,860.077136537237
688,860.1310995224271
689,860.1893939555599
690,860.2516110613035
691,860.3172607713473
692,860.3857810598028
693,860.4565501678173
694,860.5289011117621
695,860.6021376596834
696,860.6755507934442
697,860.748434707669
698,860.8201016178494
699,860.8898949080681
700,860.9572003620437
701,861.0214554422606
702,861.082156845201
703,861.1388667660416
704,861.1912183185241
705,861.2389203613797
706,861.2817616967648
707,861.3196143736913
708,861.3524357410017
709,861.380268944675
710,861.4032416818507
711,861.4215631566484
712,861.4355193127393
713,861.4454665074292
714,861.4518238126351
715,861.4550641310186
716,861.4557043719443
717,861.454295016701
718,861.4514094342937
719,861.4476332637249
720,861.4435540842022
721,861.4397514933862
722,861.436787673095
723,861.4351985799119
724,861.4354859860952
725,861.4381106105019
726,861.4434865118565
727,861.4519768425071
728,861.4638910213944
729,861.4794833326598
730,861.4989528230619
731,861.5224441885049
732,861.5500492421144
733,861.5818086233189
734,861.6177135750768
735,861.6577077888761
736,861.7016894526214
737,861.7495136921597
738,861.8009955253235
739,861.8559132646365
740,861.9140120915622
741,861.9750073770916
742,862.0385873151654
743,862.1044145905814
744,862.1721270948682
745,862.2413380634514
746,862.3116363081459
747,862.3825873167398
748,862.4537358435003
749,862.5246103139315
750,862.5947290449324
751,862.6636080129931
752,862.7307696929805
753,862.7957523213694
754,862.8581188432257
755,862.9174648564331
756,862.9734250868488
757,863.0256782272548
758,863.0739502186104
759,863.1180161573084
760,863.1577009990217
761,863.192879199468
762,863.2234734545443
763,863.2494527761828
764,863.2708302429054
765,863.287660841724
766,863.3000397690047
767,863.3081013254744
768,863.3120182110223
769,863.3120007790176
770,863.3082957721033
771,863.3011842107986
772,863.2909783228009
773,863.2780175707572
774,863.2626639193758
775,863.2452965083642
776,863.2263059033136
777,863.2060880858904
778,863.1850383006552
779,863.1635447869594
780,863.1419823183853
781,863.1207054429215
782,863.1000414508335
783,863.0802833502479
784,863.0616833595716
785,863.0444475404008
786,863.028732189247
787,863.0146424691326
788,863.0022334678584
789,862.9915134805792
790,862.9824489928131
791,862.9749707100116
792,862.9689800131716
793,862.964355311164
794,862.9609578798816
795,862.9586369787926
796,862.9572343153945
797,862.9565881593702
798,862.9565374442728
799,862.9569260388345
800,862.9576071790628
801,862.9584479487064
802,862.9593336503877
803,862.9601718390659
804,862.9608956809726
805,862.9614662052343
806,862.9618729963152
807,862.9621329899297
808,862.9622872712993
809,862.962396028126
810,862.962532004059
811,862.9627729559401
812,862.9631937562868
813,862.9638588381036
814,862.9648156030648
815,862.9660892489626
816,862.9676793129915
817,862.9695581464224
818,862.9716715360888
819,862.9739416977259
820,862.9762727751017
821,862.978558697435
822,862.9806928009651
823,862.982578199271
824,862.9841377246337
825,862.9853224282843
826,862.9861179731629
827,862.9865485620289
828,862.9866782022378
829,862.9866091621315
830,862.9864775489499
831,862.9864461003468
832,862.9866944899045
833,862.9874076449814
834,862.9887627624435
835,862.9909158911274
836,862.9939890842224
837,862.9980591449862
838,863.0031488622627
839,863.0092213585086
840,863.0161777913265
841,863.0238582595958
842,863.0320454923511
843,863.0404708141833
844,863.0488219593532
845,863.0567524435954
846,863.0638922878281
847,863.0698598690767
848,863.074274553057
849,863.0767695834024
850,863.077004549775
851,863.0746767149151
852,863.0695305622728
853,863.0613650752719
854,863.0500384354873
855,863.0354700484747
856,863.017640081852
857,862.9965869708822
858,862.9724035338759
859,862.945232392218
860,862.9152612690119
861,862.8827184613175
862,862.8478684720252
863,862.8110076060012
864,862.77245931755
865,862.7325691390079
866,862.6916990065596
867,862.6502207376337
868,862.6085084445554
869,862.566929903994
870,862.5258372707058
871,862.4855578156224
872,862.4463854266611
873,862.4085734716002
874,862.3723294507024
875,862.3378117650843
876,862.3051288410804
877,862.2743406806622
878,862.245462649073
879,862.2184710457082
880,862.1933098015992
881,862.1698975258865
882,862.1481341056085
883,862.127906185854
884,862.1090911104321
885,862.0915592151563
886,862.075174675709
887,862.0597953820422
888,862.0452724784733
889,862.0314502169175
890,862.0181666440006
891,862.0052554645579
892,861.9925492572694
893,861.9798840693942
894,861.9671052663542
895,861.954074361831
896,861.9406764239017
897,861.9268275299642
898,861.9124816166174
899,861.8976359924364
900,861.8823348209369
901,861.8666700528985
902,861.8507795734383
903,861.8348426868711
904,861.8190733811111
905,861.803711972827
906,861.7890157344729
907,861.7752490606298
908,861.7626737320252
909,861.7515398493679
910,861.7420779450541
911,861.7344926100022
912,861.7289577581267
913,861.7256134800613
914,861.7245643607856
915,861.7258791444926
916,861.7295916762089
917,861.7357030907455
