frame_number,force
0,859.0402744876162
1,859.0227378786436
2,859.0041103115758
3,858.9844052460344
4,858.9636391987234
5,858.941831756768
6,858.9190055690799
7,858.8951863157532
8,858.8704026562391
9,858.8446861575871
10,858.8180712043069
11,858.7905948913694
12,858.7622969016137
13,858.7332193685716
14,858.7034067256991
15,858.6729055432413
16,858.6417643544498
17,858.6100334735441
18,858.5777648084875
19,858.5450116720791
20,858.5118285948861
21,858.4782711431458
22,858.4443957440823
23,858.4102595203508
24,858.3759201347293
25,858.3414356456991
26,858.306864374111
27,858.2722647807404
28,858.2376953542142
29,858.2032145086271
30,858.1688804902138
31,858.1347512927455
32,858.1008845817107
33,858.0673376275698
34,858.0341672482598
35,858.0014297608027
36,857.9691809415025
37,857.9374759939842
38,857.9063695242427
39,857.8759155218509
40,857.8461673463682
41,857.817177717828
42,857.7889987101432
43,857.7616817464341
44,857.7352775955094
45,857.7098363689089
46,857.6854075180806
47,857.6620398315515
48,857.6397814322881
49,857.6186797756901
50,857.5987816486261
51,857.5801331696449
52,857.5627797900988
53,857.5467662954483
54,857.5321368055538
55,857.5189347724171
56,857.5072029737727
57,857.4969835011245
58,857.4883177410886
59,857.4812463490965
60,857.4758092145781
61,857.472045416722
62,857.469993169867
63,857.4696897575767
64,857.4711714545663
65,857.4744734359012
66,857.479629673249
67,857.4866728183442
68,857.4956340741612
69,857.5065430545329
70,857.5194276331747
71,857.5343137833912
72,857.551225410207
73,857.570184177104
74,857.5912093298093
75,857.6143175196482
76,857.6395226289811
77,857.6668356012548
78,857.6962642781533
79,857.7278132461927
80,857.7614836949062
81,857.7972732885713
82,857.835176053243
83,857.8751822806131
84,857.9172784498305
85,857.9614471679961
86,858.0076671297437
87,858.0559130962511
88,858.1061558940052
89,858.1583624335012
90,858.2124957477364
91,858.2685150499478
92,858.3263758095868
93,858.3860298451165
94,858.4474254320311
95,858.5105074245756
96,858.5752173898105
97,858.641493752695
98,858.7092719507418
99,858.7784845967318
100,858.8490616481266
101,858.920930582031
102,858.9940165745988
103,859.0682426835751
104,859.143530032375
105,859.2197979938514
106,859.2969643717669
107,859.3749455780172
108,859.4536568039997
109,859.5330121852439
110,859.6129249593641
111,859.6933076181529
112,859.774072054938
113,859.8551297082099
114,859.9363917022873
115,860.0177689856006
116,860.099172466996
117,860.1805131503099
118,860.2617022674157
119,860.342651410021
120,860.4232726604791
121,860.5034787217271
122,860.5831830463297
123,860.6622999646428
124,860.7407448122497
125,860.8184340569819
126,860.8952854258742
127,860.9712180323319
128,861.0461525037331
129,861.1200111097628
130,861.192717891973
131,861.2641987953352
132,861.3343818027458
133,861.4031970732943
134,861.4705770843836
135,861.5364567766397
136,861.600773699501
137,861.6634681548835
138,861.724483336335
139,861.7837654614179
140,861.8412638955348
141,861.896931266052
142,861.9507235663649
143,862.0026002503157
144,862.0525243178704
145,862.1004623929443
146,862.1463847937264
147,862.1902655951094
148,862.2320826823133
149,862.2718177946359
150,862.3094565582977
151,862.3449885073992
152,862.3784070921176
153,862.4097096735026
154,862.4388975045171
155,862.4659756972027
156,862.4909531758891
157,862.5138426162337
158,862.5346603696696
159,862.5534263727462
160,862.5701640409192
161,862.584900146522
162,862.5976646808749
163,862.6084907007828
164,862.617414160018
165,862.6244737267083
166,862.6297105879698
167,862.6331682437313
168,862.6348922923925
169,862.634930211492
170,862.6333311367795
171,862.6301456429778
172,862.6254255291742
173,862.6192236113038
174,862.611593523733
175,862.6025895315838
176,862.59226635513
177,862.5806790072396
178,862.5678826445088
179,862.5539324325372
180,862.5388834256348
181,862.5227904609145
182,862.5057080660894
183,862.4876903794814
184,862.468791079866
185,862.4490633229545
186,862.4285596807246
187,862.4073320796683
188,862.3854317343425
189,862.3629090732331
190,862.3398136547098
191,862.3161940717131
192,862.2920978447346
193,862.2675713034555
194,862.2426594580327
195,862.2174058615537
196,862.1918524658271
197,862.166039473359
198,862.1400051888199
199,862.113785873352
200,862.0874156048619
201,862.060926147239
202,862.0343468313035
203,862.0077044501859
204,861.9810231716258
205,861.9543244692869
206,861.9276270746037
207,861.9009469500089
208,861.87429728375
209,861.8476885059863
210,861.8211283255042
211,861.7946217861933
212,861.7681713423779
213,861.7417769521501
214,861.7154361878761
215,861.6891443629984
216,861.6628946741583
217,861.6366783575087
218,861.6104848577191
219,861.5843020076252
220,861.5581162159826
221,861.5319126607251
222,861.5056754855644
223,861.4793879985829
224,861.4530328723872
225,861.4265923461483
226,861.400048430191
227,861.3733831137282
228,861.3465785759572
229,861.3196174002115
230,861.2924827902169
231,861.2651587867392
232,861.2376304820733
233,861.2098842290122
234,861.1819078403471
235,861.1536907747733
236,861.1252243055084
237,861.0965016689322
238,861.0675181918115
239,861.0382713967599
240,861.0087610863
241,860.9789894062582
242,860.9489608894032
243,860.9186824802659
244,860.8881635420115
245,860.8574158461194
246,860.8264535454553
247,860.7952931310515
248,860.7639533726539
249,860.7324552429855
250,860.7008218257424
251,860.669078207574
252,860.6372513546983
253,860.605369975301
254,860.5734643692269
255,860.5415662666019
256,860.5097086570074
257,860.4779256108329
258,860.4462520944708
259,860.4147237809246
260,860.3833768570634
261,860.352247828258
262,860.3213733206039
263,860.2907898804739
264,860.2605337708379
265,860.230640763769
266,860.2011459288451
267,860.1720834176417
268,860.1434862449526
269,860.115386067649
270,860.0878129622638
271,860.0607952026128
272,860.0343590391071
273,860.0085284817244
274,859.9833250887079
275,859.9587677629527
276,859.9348725579548
277,859.9116524953535
278,859.8891173964508
279,859.8672737304277
280,859.8461244820273
281,859.8256690412182
282,859.8059031168567
283,859.7868186758111
284,859.7684039084702
285,859.7506432210839
286,859.7335172549944
287,859.7170029324441
288,859.7010735281666
289,859.6856987654231
290,859.6708449347539
291,859.6564750336026
292,859.6425489250444
293,859.6290235139126
294,859.6158529385733
295,859.6029887764865
296,859.5903802616665
297,859.5779745122373
298,859.5657167663752
299,859.55355062496
300,859.5414182992549
301,859.5292608619131
302,859.5170184996135
303,859.5046307656886
304,859.4920368313161
305,859.47917573414
306,859.4659866235648
307,859.452409002414
308,859.4383829651068
309,859.4238494327905
310,859.4087503858382
311,859.3930290939073
312,859.3766303435556
313,859.3595006632585
314,859.3415885454261
315,859.3228446646895
316,859.3032220914392
317,859.2826764994212
318,859.2611663660266
319,859.2386531637712
320,859.215101541405
321,859.1904794931816
322,859.164758514975
323,859.1379137460466
324,859.1099240953822
325,859.0807723517278
326,859.0504452766936
327,859.0189336804212
328,858.9862324792524
329,858.9523407347582
330,858.9172616735108
331,858.8810026870592
332,858.8435753116175
333,858.8049951869887
334,858.7652819943
335,858.7244593722482
336,858.682554811669
337,858.6395995283808
338,858.5956283144343
339,858.5506793681592
340,858.5047941037857
341,858.458016941958
342,858.4103950830646
343,858.3619782658552
344,858.3128185141708
345,858.2629698747564
346,858.2124881491268
347,858.161430622406
348,858.1098557920694
349,858.0578230995902
350,858.0053926680549
351,857.9526250487797
352,857.8995809797366
353,857.8463211580867
354,857.7929060283641
355,857.7393955870893
356,857.6858492040756
357,857.6323254605577
358,857.5788820044744
359,857.5255754235287
360,857.4724611367742
361,857.4195933053345
362,857.3670247626065
363,857.3148069641371
364,857.2629899573703
365,857.2116223714357
366,857.1607514267902
367,857.110422963794
368,857.0606814885516
369,857.0115702338863
370,856.963131233111
371,856.9154054040458
372,856.8684326405098
373,856.8222519083765
374,856.7769013432487
375,856.7324183467518
376,856.6888396783165
377,856.6462015392365
378,856.6045396458835
379,856.5638892892939
380,856.5242853788918
381,856.4857624688503
382,856.4483547664532
383,856.4120961227749
384,856.3770200068499
385,856.343159464974
386,856.3105470668022
387,856.2792148397082
388,856.2491941926825
389,856.2205158308909
390,856.1932096618082
391,856.1673046936382
392,856.142828926632
393,856.1198092380114
394,856.0982712614672
395,856.078239262533
396,856.059736011568
397,856.0427826565643
398,856.0273985983852
399,856.0136013711715
400,856.0014065304554
401,855.9908275510859
402,855.981875736627
403,855.9745601416267
404,855.9688875080758
405,855.9648622173537
406,855.9624862589441
407,855.9617592172465
408,855.9626782778516
409,855.9652382545555
410,855.9694316381366
411,855.9752486675698
412,855.9826774238866
413,855.9917039462562
414,856.002312368996
415,856.0144850772067
416,856.0282028777423
417,856.0434451814922
418,856.0601901925684
419,856.0784150999852
420,856.09809626783
421,856.1192094207264
422,856.1417298223947
423,856.1656324460231
424,856.1908921356843
425,856.2174837580708
426,856.245382343583
427,856.2745632155904
428,856.3050021066754
429,856.3366752608022
430,856.3695595206533
431,856.4036323998702
432,856.4388721406689
433,856.4752577581646
434,856.5127690735517
435,856.5513867387847
436,856.5910922554204
437,856.6318679898706
438,856.6736971866953
439,856.7165639809119
440,856.7604534096866
441,856.8053514233291
442,856.8512448953167
443,856.8981216311608
444,856.9459703760831
445,856.9947808214987
446,857.0445436101168
447,857.0952503392472
448,857.1468935618208
449,857.1994667846217
450,857.252964463176
451,857.3073819926501
452,857.3627156941246
453,857.4189627958184
454,857.4761214091535
455,857.5341904998387
456,857.593169854367
457,857.653060042457
458,857.7138623758846
459,857.7755788637719
460,857.8382121638739
461,857.9017655289758
462,857.9662427472484
463,858.0316480752019
464,858.0979861616935
465,858.1652619613708
466,858.2334806361359
467,858.3026474437193
468,858.3727676130869
469,858.4438462069843
470,858.5158879724742
471,858.5888971809296
472,858.6628774595007
473,858.7378316163905
474,858.8137614622694
475,858.890667629926
476,858.9685493940067
477,859.0474044924886
478,859.1272289512989
479,859.2080169132021
480,859.2897604718007
481,859.3724495112796
482,859.4560715524095
483,859.5406116054497
484,859.6260520309746
485,859.7123724101479
486,859.7995494262499
487,859.8875567592589
488,859.9763649951873
489,860.0659415519485
490,860.1562506238633
491,860.2472531472563
492,860.338906789657
493,860.4311659647678
494,860.5239818746818
495,860.6173025800409
496,860.7110730980701
497,860.8052355277684
498,860.8997292009323
499,860.9944908570652
500,861.0894548396933
501,861.1845533112581
502,861.2797164836139
503,861.3748728611134
504,861.4699494932307
505,861.5648722335908
506,861.6595660021557
507,861.7539550472644
508,861.8479632044144
509,861.9415141491395
510,862.034531641897
511,862.1269397633661
512,862.2186631389053
513,862.3096271511838
514,862.3997581401856
515,862.4889835898941
516,862.5772323010502
517,862.6644345495106
518,862.7505222299915
519,862.8354289852931
520,862.9190903214262
521,863.0014437094145
522,863.0824286750465
523,863.1619868784707
524,863.2400621859325
525,863.3166007357551
526,863.3915509998728
527,863.464863841238
528,863.5364925666453
529,863.6063929741772
530,863.6745233944661
531,863.7408447251188
532,863.805320457739
533,863.8679166969376
534,863.928602170614
535,863.9873482307659
536,864.0441288442497
537,864.0989205731925
538,864.1517025450149
539,864.2024564120682
540,864.2511663007089
541,864.2978187495528
542,864.3424026369134
543,864.3849090979754
544,864.4253314327672
545,864.4636650063063
546,864.4999071425515
547,864.5340570141689
548,864.5661155305336
549,864.5960852265957
550,864.6239701551045
551,864.649775784216
552,864.6735089018491
553,864.6951775273859
554,864.7147908305876
555,864.732359057116
556,864.7478934599451
557,864.7614062361021
558,864.7729104682631
559,864.7824200705504
560,864.7899497375344
561,864.7955148952014
562,864.7991316526648
563,864.8008167536682
564,864.800587527399
565,864.7984618386389
566,864.7944580377451
567,864.78859491136
568,864.7808916351121
569,864.7713677298191
570,864.7600430227482
571,864.7469376152891
572,864.732071857898
573,864.7154663324729
574,864.6971418416597
575,864.6771194041785
576,864.6554202552335
577,864.6320658512499
578,864.6070778782777
579,864.5804782632707
580,864.5522891873378
581,864.5225331002778
582,864.4912327362233
583,864.4584111306644
584,864.4240916392404
585,864.3882979584359
586,864.3510541478167
587,864.3123846528918
588,864.2723143273801
589,864.2308684537418
590,864.1880727613177
591,864.1439534420422
592,864.0985371641635
593,864.0518510845501
594,864.0039228601208
595,863.9547806589463
596,863.90445317167
597,863.852969624006
598,863.8003597910821
599,863.746654014392
600,863.6918832222374
601,863.6360789547035
602,863.5792733942749
603,863.5214994030057
604,863.4627905667393
605,863.4031812462609
606,863.3427066346387
607,863.2814028195864
608,863.2193068495735
609,863.1564568024548
610,863.0928918554117
611,863.0286523548995
612,862.963779885108
613,862.8983173332582
614,862.8323089500361
615,862.7658004035417
616,862.6988388250459
617,862.6314728445717
618,862.5637526141185
619,862.4957298165216
620,862.4274576584987
621,862.3589908472278
622,862.2903855506164
623,862.221699342136
624,862.1529911316653
625,862.0843210841443
626,862.0157505279213
627,861.9473418545626
628,861.8791584117612
629,861.811264390914
630,861.743724710914
631,861.6766048996567
632,861.6099709746312
633,861.5438893236783
634,861.4784265865718
635,861.413649537666
636,861.3496249695838
637,861.2864195778268
638,861.224099846124
639,861.162731932242
640,861.1023815538998
641,861.0431138744633
642,860.9849933881704
643,860.9280838045873
644,860.872447931704
645,860.8181475567221
646,860.7652433233492
647,860.7137946043491
648,860.6638593682408
649,860.6154940394688
650,860.568753352065
651,860.5236901974336
652,860.4803554670876
653,860.4387978909925
654,860.399063872069
655,860.3611973176968
656,860.3252394697181
657,860.2912287351772
658,860.2592005205951
659,860.2291870727817
660,860.2012173289788
661,860.1753167785591
662,860.1515073377789
663,860.1298072384722
664,860.1102309312821
665,860.092789004095
666,860.0774881165117
667,860.0643309511485
668,860.0533161822401
669,860.0444384615943
670,860.037688421665
671,860.0330526954277
672,860.0305139527309
673,860.0300509527289
674,860.0316386118244
675,860.0352480864627
676,860.0408468702686
677,860.0483989053754
678,860.0578647081071
679,860.0692015092998
680,860.0823634094377
681,860.0973015485081
682,860.113964290215
683,860.1322974201082
684,860.1522443573306
685,860.1737463799236
686,860.1967428637995
687,860.2211715354367
688,860.2469687380423
689,860.2740697103305
690,860.3024088762866
691,860.331920143526
692,860.3625372073692
693,860.3941938574807
694,860.4268242836555
695,860.4603633769376
696,860.4947470219612
697,860.529912376516
698,860.5657981348118
699,860.6023447714977
700,860.6394947640052
701,860.6771927913446
702,860.7153859081436
703,860.7540236932956
704,860.7930583728262
705,860.8324449164631
706,860.8721411071199
707,860.9121075823382
708,860.9523078468465
709,860.9927082557602
710,861.0332779684511
711,861.0739888736337
712,861.1148154867352
713,861.1557348210456
714,861.1967262344331
715,861.2377712536594
716,861.2788533786498
717,861.3199578694318
718,861.3610715186857
719,861.402182412917
720,861.4432796852128
721,861.484353262442
722,861.5253936097533
723,861.5663914753572
724,861.6073376387451
725,861.6482226654945
726,861.6890366716228
727,861.7297691002245
728,861.7704085129377
729,861.8109423985463
730,861.8513570006086
731,861.8916371654723
732,861.9317662116495
733,861.971725821418
734,862.011495955584
735,862.0510547924034
736,862.0903786916516
737,862.12944218466
738,862.1682179907392
739,862.2066770597983
740,862.2447886403091
741,862.2825203712296
742,862.3198383962334
743,862.3567074986369
744,862.3930912557246
745,862.4289522116283
746,862.4642520682761
747,862.4989518939326
748,862.5330123484262
749,862.566393923479
750,862.5990571958515
751,862.6309630904374
752,862.6620731500079
753,862.6923498079566
754,862.7217566602225
755,862.7502587326913
756,862.7778227408273
757,862.8044173389075
758,862.830013356784
759,862.8545840224025
760,862.878105168415
761,862.900555421326
762,862.9219163718137
763,862.9421727251897
764,862.9613124313382
765,862.9793267938234
766,862.996210557967
767,863.0119619774824
768,863.026582858858
769,863.0400785824363
770,863.0524580992799
771,863.0637339033889
772,863.073921979436
773,863.0830417266859
774,863.0911158600884
775,863.0981702897544
776,863.1042339801801
777,863.109338790698
778,863.1135192986728
779,863.1168126069005
780,863.1192581365491
781,863.1208974070057
782,863.1217738042799
783,863.1219323401202
784,863.1214194044375
785,863.1202825138413
786,863.1185700590722
787,863.1163310538311
788,863.1136148869226
789,863.1104710788638
790,863.1069490434508
791,863.1030978544701
792,863.0989660177252
793,863.0946012486359
794,863.0900502558045
795,863.0853585312245
796,863.0805701482334
797,863.0757275686491
798,863.0708714605073
799,863.0660405274442
800,863.0612713503288
801,863.0565982414741
802,863.0520531115991
803,863.0476653495003
804,863.0434617141289
805,863.0394662385138
806,863.0357001448792
807,863.0321817704488
808,863.0289265038141
809,863.0259467321504
810,863.0232517998749
811,863.0208479795816
812,863.0187384562937
813,863.0169233261353
814,863.0153996103406
815,863.0141612851728
816,863.0131993279945
817,863.0125017795417
818,863.0120538224201
819,863.0118378758265
820,863.0118337062996
821,863.012018553753
822,863.0123672711912
823,863.0128524757095
824,863.0134447080461
825,863.0141125982482
826,863.0148230356175
827,863.0155413416581
828,863.0162314450184
829,863.0168560574992
830,863.0173768503157
831,863.0177546300798
832,863.0179495143383
833,863.0179211068386
834,863.0176286730253
835,863.0170313165816
836,863.0160881580592
837,863.01475851666
838,863.0130020959715
839,863.0107791739439
840,863.0080507966721
841,863.0047789748191
842,863.0009268810053
843,862.9964590463361
844,862.9913415543867
845,862.9855422312314
846,862.9790308302863
847,862.9717792107264
848,862.9637615080586
849,862.9549542951512
850,862.9453367317918
851,862.9348907008413
852,862.9236009292744
853,862.911455092759
854,862.8984439028403
855,862.8845611763021
856,862.8698038868836
857,862.8541722001378
858,862.8376694926587
859,862.8203023571108
860,862.8020805943689
861,862.7830171936628
862,862.7631283011402
863,862.7424331770144
864,862.7209541415036
865,862.6987165099227
866,862.6757485173149
867,862.6520812329503
868,862.6277484651024
869,862.6027866569761
870,862.5772347753505
871,862.5511341940355
872,862.5245285743408
873,862.4974637444682
874,862.4699875793902
875,862.4421498825484
876,862.414002270489
877,862.3855980611825
878,862.3569921662247
879,862.328240986565
880,862.2994023109485
881,862.2705352159686
882,862.241699966513
883,862.2129579155394
884,862.1843714025078
885,862.1560036503101
886,862.1279186610363
887,862.100181111365
888,862.0728562486179
889,862.0460097884906
890,862.0197078152031
891,861.994016684452
892,861.9690029292269
893,861.9447331682628
894,861.9212740166236
895,861.8986919976406
896,861.8770534552054
897,861.8564244652154
898,861.8368707447657
899,861.8184575575772
900,861.8012496142633
901,861.7853109664061
902,861.7707048939877
903,861.757493786441
904,861.7457390182251
905,861.7355008201813
906,861.7268381479803
907,861.7198085489414
908,861.7144680285592
909,861.7108709181442
910,861.7090697449066
911,861.7091151055389
912,861.7110555439878
913,861.7149374338197
914,861.7208048654636
915,861.7286995386495
916,861.7386606604618
917,861.7507248495051
