acceleration,velocity,displacement
-0.0017205809987565937,0.0,0.0
-0.0019208090508901596,-9.103475124116884e-07,-2.275868781029221e-10
-0.0021334933546690265,-1.923923113801485e-06,-9.361545346562154e-10
-0.002358480231931819,-3.0469165104516964e-06,-2.1788644407195106e-09
-0.0025955810996132916,-4.285431843337974e-06,-4.011951529166929e-09
-0.002844572317446101,-5.645470197602822e-06,-6.494677039402127e-09
-0.0031051952865485616,-7.132912098601488e-06,-9.689272613453205e-09
-0.003377156798852958,-8.753500119951868e-06,-1.3660875668091545e-08
-0.0036601296288345866,-1.0512821726873754e-05,-1.847745612979795e-08
-0.003953753352829483,-1.2416292472289772e-05,-2.420973467958883e-08
-0.00425763537821215,-1.446913965505018e-05,-3.093109271142382e-08
-0.004571352165070662,-1.6676386540870883e-05,-3.871747426040409e-08
-0.004894450625950051,-1.9042837238626062e-05,-4.764728020527832e-08
-0.005226449692073781,-2.157306231813202e-05,-5.780125509446784e-08
-0.005566842034780144,-2.4271385249845502e-05,-6.926236698646223e-08
-0.00591509592815472,-2.714186974057922e-05,-8.211568073406841e-08
-0.006270657233227279,-3.0188308030924718e-05,-9.644822517694439e-08
-0.00663295147643914,-3.341421020834132e-05,-1.123488547367609e-07
-0.007001385987315624,-3.6822794574280016e-05,-1.2990810593241624e-07
-0.0073753520553599536,-4.041697908494891e-05,-1.4921804934722347e-07
-0.007754227065947384,-4.419937386527575e-05,-1.7037213758477964e-07
-0.00813737657946106,-4.817227477662786e-05,-1.9346504974525554e-07
-0.008524156325781105,-5.23376580029384e-05,-2.1859253294014712e-07
-0.008913914094551143,-5.669717560802147e-05,-2.458512413428871e-07
-0.009305991508445612,-6.125215200877066e-05,-2.753385732470851e-07
-0.009699725672110386,-6.600358130390966e-05,-3.071525065752552e-07
-0.010094450694529826,-7.095212539556971e-05,-3.4139143325012504e-07
-0.010489499087068432,-7.609811284096928e-05,-3.781539928092598e-07
-0.01088420304309194,-8.144153837350937e-05,-4.1753890561287944e-07
-0.011277895606952193,-8.69820630360204e-05,-4.596448059652619e-07
-0.011669911739577623,-9.271901487265285e-05,-5.045700754424302e-07
-0.012059589284458286,-9.865139012866183e-05,-5.524126766927588e-07
-0.01244626983331805,-0.00010477785490810591,-6.032699879519508e-07
-0.012829299488204151,-0.00011109674723848647,-6.572386384885989e-07
-0.013208029517947105,-0.00011760607949002429,-7.144143451707266e-07
-0.013581816910682314,-0.00012430354109718163,-7.748917503175281e-07
-0.013950024828312226,-0.00013118650153193026,-8.38764260974806e-07
-0.014312022971425512,-0.0001382520134818647,-9.061238897282548e-07
-0.014667187864184026,-0.00014549681619076708,-9.770610971464128e-07
-0.015014903068880422,-0.00015291733892403318,-1.0516646359251128e-06
-0.015354559341123244,-0.0001605097045265341,-1.1300213967877547e-06
-0.015685554738452075,-0.00016826973304642792,-1.2122162561809952e-06
-0.016007294695624095,-0.00017619294540494696,-1.2983319257938389e-06
-0.016319192077965002,-0.00018427456709834423,-1.3884488039196616e-06
-0.016620667221543477,-0.00019250953192322134,-1.482644828675053e-06
-0.016911147966941112,-0.0002008924857203425,-1.580995333085944e-06
-0.017190069691480243,-0.00020941779013494783,-1.6835729020497666e-06
-0.017456875341529676,-0.0002180795263932003,-1.7904472311818037e-06
-0.017711015462637487,-0.0002268714990942421,-1.9016849875536644e-06
-0.0179519482224441,-0.0002357872400155125,-2.017349672331103e-06
-0.01817913942168711,-0.0002448200119265453,-2.1375014853166176e-06
-0.018392062491790796,-0.00025396281240491476,-2.2621971913994825e-06
-0.018590198482042773,-0.00026320837764837315,-2.3914899889128046e-06
-0.018773036044695008,-0.0002725491862800576,-2.5254293798949123e-06
-0.018940071431630467,-0.000281977463149139,-2.6640610422522112e-06
-0.019090808520157838,-0.0002914851831370861,-2.8074267038237675e-06
-0.019224758886175797,-0.0003010640749886695,-2.9555640183552065e-06
-0.019341441940771392,-0.0003107056251954063,-3.1085064434012253e-06
-0.019440385143243383,-0.00032040108196641,-3.2662831201916795e-06
-0.01952112430134766,-0.00033014145932755776,-3.4289187555151712e-06
-0.019583203968831068,-0.00033991754139510243,-3.596433505695836e-06
-0.01962617795054716,-0.000349719886874947,-3.7688428627633487e-06
-0.019649609925960057,-0.00035953883384407377,-3.946157542943104e-06
-0.019653074201863404,-0.0003693645048760296,-4.12838337762313e-06
-0.019636156603795394,-0.0003791868125774443,-4.315521206986499e-06
-0.01959845551278538,-0.00038899546560658947,-4.507566776532507e-06
-0.01953958304992309,-0.0003987799752472666,-4.704510636745971e-06
-0.01945916640691495,-0.00040852966261147614,-4.906338046210657e-06
-0.019356849317008356,-0.000418233666542457,-5.11302887849914e-06
-0.01923229365781537,-0.0004278809522861629,-5.3245575332062955e-06
-0.01908518117512066,-0.0004374603209943969,-5.540892851526435e-06
-0.018915215313061562,-0.00044696042011644244,-5.761998036804145e-06
-0.018722123130813673,-0.00045636975472741124,-5.987830580515109e-06
-0.01850565728085572,-0.0004656766998303286,-6.2183421941545435e-06
-0.01826559802090564,-0.00047486951365576896,-6.453478747526068e-06
-0.018001755230830797,-0.00048393635196870307,-6.693180213932186e-06
-0.017713970405758547,-0.0004928652833778504,-6.937380622768824e-06
-0.017402118596501797,-0.0005016443056284155,-7.18600802002039e-06
-0.017066110268924278,-0.0005102613628447719,-7.438984437138687e-06
-0.01670589305548118,-0.0005187043636758733,-7.696225868768849e-06
-0.01632145337441643,-0.0005269612002833477,-7.957642259758653e-06
-0.01591281789435245,-0.00053501976810054,-8.223137501854625e-06
-0.01548005482410609,-0.0005428679862801546,-8.492609440449798e-06
-0.015023275010400523,-0.0005504938187387813,-8.76594989170453e-06
-0.014542632830497785,-0.0005578852956990059,-9.043044670313978e-06
-0.014038326871612005,-0.0005650305356245333,-9.323773628144863e-06
-0.013510600392400483,-0.0005719177674405365,-9.608010703911131e-06
-0.012959741562613794,-0.0005785353529292901,-9.895623984003588e-06
-0.012386083477189962,-0.000584871809189241,-1.018647577453322e-05
-0.011790003942756037,-0.0005909158310442276,-1.0480422684591587e-05
-0.011171925038118102,-0.0005966563132894461,-1.0777315720675005e-05
-0.01053231245502356,-0.0006020823726627315,-1.107700039216305e-05
-0.009871674630710621,-0.0006071833694341651,-1.1379316827687274e-05
-0.009190561688369315,-0.0006119489285139351,-1.1684099902174299e-05
-0.008489564203808664,-0.0006163689599869796,-1.1991179374299527e-05
-0.007769311815696545,-0.0006204336789918559,-1.2300380034044235e-05
-0.0070304716948462204,-0.0006241336248694916,-1.2611521860009572e-05
-0.00627374688769513,-0.0006274596795151269,-1.2924420186105726e-05
-0.005499874550503937,-0.0006304030848746767,-1.3238885877203177e-05
-0.004709624091521633,-0.0006329554595351831,-1.3554725513305641e-05
-0.003903795236684171,-0.0006351088143672345,-1.3871741581781246e-05
-0.003083216031942559,-0.0006368555671843911,-1.4189732677169153e-05
-0.0022487407948556166,-0.0006381885563910907,-1.4508493708063024e-05
-0.0014012480303761678,-0.0006391010535973986,-1.4827816110560147e-05
-0.0005416383290902789,-0.0006395867751872652,-1.5147488067756313e-05
0.0003291677309920581,-0.0006396398928367898,-1.5467294734762325e-05
0.0012102316564270444,-0.000639255042989935,-1.5787018468719006e-05
0.0021005990618322623,-0.0006384273353103702,-1.6106439063294082e-05
0.0029993016265157098,-0.0006371523601382832,-1.6425333987156246e-05
0.003905358974186629,-0.0006354261949881076,-1.6743478625937842e-05
0.004817780476410132,-0.0006332454101254584,-1.7060646527216234e-05
0.0057355669891697054,-0.0006306070732590635,-1.7376609648062364e-05
0.0066577125353480164,-0.0006275087533779341,-1.7691138604721613e-05
0.007583205944622761,-0.0006239485237579414,-1.8004002924005584e-05
0.008511032459545882,-0.0006199249641568992,-1.8314971295984294e-05
0.009440175314427451,-0.0006154371622134058,-1.862381182757687e-05
0.01036961729161801,-0.0006104847140618945,-1.8930292296645696e-05
0.01129834225803598,-0.000605067724174481,-1.923418040620479e-05
0.012225336684263618,-0.000599186804438906,-1.9535244038358137e-05
0.013149591149369705,-0.0005928430724804977,-1.9833251507587988e-05
0.014070101834476873,-0.0005860381492345361,-2.0127971813016746e-05
0.014985872006354763,-0.0005787741557743281,-2.0419174889268963e-05
0.01589591349081446,-0.0005710537094000359,-2.0706631855562553e-05
0.016799248136035283,-0.0005628799189933235,-2.0990115262660894e-05
0.017694909267602275,-0.0005542563796424141,-2.1269399337319827e-05
0.018581943138790247,-0.000545187166540816,-2.1544260223865635e-05
0.019459410380100163,-0.0005356768281610934,-2.1814476222541112e-05
0.020326387451220247,-0.0005257303787032633,-2.2079828024257202e-05
0.021181968097956024,-0.0005153532898159692,-2.234009894138701e-05
0.02202526481750678,-0.0005045514815871034,-2.259507513423778e-05
0.022855410337749228,-0.0004933313127982894,-2.2844545832834128e-05
0.023671559119269353,-0.00048169957043403474,-2.308830355364221e-05
0.02447288889110065,-0.0004696634584314422,-2.3326144310858578e-05
0.02525860222943793,-0.00045723058565130754,-2.3557867821879267e-05
0.026027928180323723,-0.0004444089530488671,-2.3783277706554312e-05
0.026780123914186087,-0.0004312069400252397,-2.400218167982284e-05
0.02751447638813739,-0.0004176332899496588,-2.4214391737316565e-05
0.028230303986302437,-0.0004036970948560488,-2.441972433351799e-05
0.028926958108641463,-0.0003894077793323128,-2.461800055206508e-05
0.029603824682461644,-0.000374775083634537,-2.4809046267806795e-05
0.03026032557621701,-0.0003598090460698673,-2.4992692300232895e-05
0.030895919902547548,-0.00034451998470017616,-2.5168774557925407e-05
0.031510105206460866,-0.00032891847842292404,-2.533713417370618e-05
0.03210241854336959,-0.00031301534748546644,-2.5497617630183278e-05
0.03267243745732739,-0.0002968216334852922,-2.5650076875425967e-05
0.03321978086961938,-0.0002803485789035555,-2.579436942852318e-05
0.03374410988170247,-0.00026360760621572504,-2.5930358474803e-05
0.03424512848801983,-0.0002466102966232945,-2.6057912950512756e-05
0.03472258418825334,-0.0002293683684542262,-2.6176907616782137e-05
0.035176268486860306,-0.00021189365528544778,-2.6287223122717057e-05
0.03560601726808104,-0.00019419808384671245,-2.6388746057500096e-05
0.03601171103522943,-0.00017629365177088482,-2.6481368991404495e-05
0.03639327500427803,-0.00015819240526100794,-2.6564990505662467e-05
0.036750679044434895,-0.0001399064167488297,-2.6639515211164927e-05
0.0370839374616791,-0.0001214477626223012,-2.670485375600771e-05
0.03739310862385837,-0.00010282850110091682,-2.6760922821938515e-05
0.037678294426450355,-8.406065033833964e-05,-2.680764510979833e-05
0.03793963959653319,-6.515616683259374e-05,-2.6844949314091064e-05
0.03817733083015719,-4.612692422592115e-05,-2.6872770086855693e-05
0.03839159575721561,-2.6984692579077948e-05,-2.6891047991056943e-05
0.038582701728772775,-7.741118207580852e-06,-2.6899729443753607e-05
0.03875095442377843,1.159229583055695e-05,-2.6898766649347862e-05
0.03889669627466086,3.1004208505166776e-05,-2.688811752326393e-05
0.03902030471469064,5.048345875250465e-05,-2.6867745606449515e-05
0.039122190253893616,7.001908249465071e-05,-2.6837619971137725e-05
0.03920279439403877,8.960032865663382e-05,-2.6797715118349903e-05
0.03926258739799598,0.0001092166741046425,-2.6748010867659585e-05
0.03930206593567434,0.00012885783743806008,-2.6688492239773908e-05
0.03932175063673248,0.00014851379158116178,-2.6619149332519102e-05
0.03932218358630982,0.00016817477513692236,-2.653997719083958e-05
0.039303925802526805,0.0001878313024841315,-2.6450975671434316e-05
0.03926755473329756,0.0002074741726180876,-2.6352149302658762e-05
0.03921366180598056,0.00022709447675290712,-2.6243507140316015e-05
0.03914285005801831,0.0002466836047189068,-2.612506261994806e-05
0.03905573187146854,0.00026623325020127853,-2.5996833406218013e-05
0.038952926830182366,0.00028573541487669123,-2.585884123994852e-05
0.03883505971480109,0.0003051824115129371,-2.571111178335111e-05
0.03870275864672555,0.00032456686610331877,-2.5553674463947048e-05
0.03855665338840643,0.00034388171911210177,-2.5386562317643194e-05
0.0383973738050904,0.00036312022591047596,-2.520981183138755e-05
0.0382255484913531,0.00038227595648458685,-2.5023462785788787e-05
0.0380418035618722,0.00040134279449789316,-2.4827558098043167e-05
0.037846761598687655,0.00042031493578803314,-2.4622143665471686e-05
0.037641040737880854,0.00043918688637217525,-2.4407268209931632e-05
0.03742525386856193,0.0004579534600237859,-2.418298312333264e-05
0.037200007907639464,0.0004766097754678363,-2.3949342314459734e-05
0.03696590310711791,0.0004951512532215257,-2.3706402057287392e-05
0.036723532349031085,0.0005135736120855629,-2.345422084096062e-05
0.036473480386734036,0.0005318728652695042,-2.3192859221621855e-05
0.036216322998447105,0.0005500453161157995,-2.292237967627553e-05
0.03595262602764947,0.0005680875533723237,-2.2642846458903496e-05
0.03568294429482221,0.0005859964459529415,-2.235432545907218e-05
0.035407820375527935,0.0006037691371205291,-2.2056884063303812e-05
0.0351277832489909,0.0006214030380266588,-2.1750591019517015e-05
0.03484334682847996,0.0006388958205460265,-2.1435516304873845e-05
0.03455500839085802,0.000656245409350861,-2.1111730997399624e-05
0.034263246930033735,0.0006734499731810839,-2.077930715176664e-05
0.03396852146687806,0.0006905079152803119,-2.043831767965129e-05
0.033671269353308685,0.0007074178629853585,-2.0088836235084872e-05
0.03337190460881133,0.0007241786564758885,-1.973093710521956e-05
0.03307081632530952,0.0007407893367094188,-1.9364695106923233e-05
0.032768367173925644,0.0007572491325842275,-1.899018548959982e-05
0.032464892045688566,0.0007735574473891311,-1.860748384460648e-05
0.032160696856999266,0.0007897138446148031,-1.8216666021605498e-05
0.031856057548289705,0.0008057180332161254,-1.7817808052147766e-05
0.031551219299791246,0.0008215698524281456,-1.74109860807367e-05
0.031246395981736293,0.0008372692562485275,-1.699627630356753e-05
0.030941769848676703,0.0008528162977061307,-1.6573754915078866e-05
0.030637491480300743,0.0008682111130383751,-1.614349806239274e-05
0.030333679965223168,0.0008834539058997561,-1.5705581807658206e-05
0.030030423320192505,0.00089854493172111,-1.526008209825299e-05
0.029727779134915294,0.000913484482334887,-1.480707474473899e-05
0.029425775432175234,0.0009282728709766596,-1.4346635406411104e-05
0.02912441173347947,0.0009429104177680732,-1.387883958422492e-05
0.028823660320790045,0.0009573974357816406,-1.3403762620837493e-05
0.028523467684315688,0.0009717342177829171,-1.2921479707446353e-05
0.028223756145228058,0.000985921023740303,-1.2432065897065549e-05
0.027924425640392096,0.000999958069186708,-1.1935596123833797e-05
0.027625355652025577,0.0010138455145098123,-1.1432145227909666e-05
0.0273264072588777,0.001027583455237538,-1.0921787985472827e-05
0.027027425279958214,0.001041171913372247,-1.0404599143320381e-05
0.02672824048109577,0.0010546108298125105,-9.880653457524192e-06
0.026428671819667897,0.0010679000578877015,-9.35002573559914e-06
0.026128528712067483,0.0010810393580206353,-8.812790881622055e-06
0.02582761331900958,0.0010940283935284045,-8.269023943734795e-06
0.02552572285235851,0.0011068667275712465,-7.718800163459883e-06
0.025222651911081768,0.0011195538212621066,-7.162195026251544e-06
0.024918194853094836,0.0011320890329531508,-6.59928431269773e-06
0.02461214820550087,0.0011444716187177996,-6.030144149779993e-06
0.024304313109717906,0.0011567007340466044,-5.4548510615888915e-06
0.02399449779062639,0.0011687754367716906,-4.8734820188843174e-06
0.023682520030194946,0.001180694691226896,-4.286114486884671e-06
0.023368209616453684,0.001192457373638558,-3.692826470668307e-06
0.023051410729444884,0.0012040622787250327,-3.0936965575774095e-06
0.02273198421905697,0.0012155081274621581,-2.488803956030612e-06
0.02240980972764874,0.0012267935759488345,-1.8782285301778638e-06
0.02208478761528129,0.001237917225284567,-1.2620508298695132e-06
0.021756840656848565,0.0012488776323525996,-6.403521154602216e-07
0.02142591549469137,0.0012596733213904845,-1.3214377024450552e-08
0.021091983842712547,0.0012703027962248355,6.192796523793794e-07
0.02075504344616903,0.0012807645530470558,1.2570464896973525e-06
0.020415118805502848,0.001291057093609974,1.9000019013616098e-06
0.020072261674587626,0.0013011789387299966,2.5480609094466025e-06
0.019726551344116296,0.0013111286419846726,3.20113780462527e-06
0.019378094720066564,0.0013209048035007183,3.859146165996618e-06
0.019027026205868366,0.0013305060837322021,4.521998887804848e-06
0.018673507394949097,0.0013399312171324064,5.189608213021001e-06
0.018317726577261335,0.001349179025625459,5.861885773710467e-06
0.017959898060465423,0.0013582484317848907,6.5387426380630545e-06
0.017600261305194456,0.0013671384716263057,7.220089363915854e-06
0.017239079874576967,0.0013758483069212484,7.905836058552741e-06
0.016876640200893685,0.0013843772369401162,8.595892444518083e-06
0.01651325017681275,0.0013927247095345428,9.290167931136747e-06
0.016149237584296677,0.0014008903314748202,9.988571691389088e-06
0.015784948378423036,0.0014088738779655002,1.0691012743749168e-05
0.015420744844811977,0.001416675301271309,1.139740003855837e-05
0.015057003649196637,0.001424294738394811,1.21076425484749e-05
0.014694113797667364,0.001431732517756527,1.2821649362512734e-05
0.014332474526624239,0.0014389891648375998,1.3539329783161266e-05
0.0139724931403561,0.001446065406754345,1.4260593426059252e-05
0.013614582810318198,0.0014529621757420135,1.4985350321683342e-05
0.013259160344535333,0.001459680611530727,1.571351101850153e-05
0.012906643929428073,0.0014662220625992178,1.6444986687034015e-05
0.012557450841166069,0.0014725880862918664,1.7179689224256785e-05
0.012211995120107582,0.0014787804477821849,1.7917531357775296e-05
0.01187068520168575,0.0014848011178626333,1.8658426749186502e-05
0.011533921500445838,0.0014906522695381662,1.9402290096036702e-05
0.011202093949437537,0.001496336273400637,2.0149037231771404e-05
0.01087557950225866,0.001501855691763561,2.0898585223062453e-05
0.010554739608131955,0.0015072132715411586,2.1650852463888634e-05
0.010239917672421765,0.001512411935861297,2.2405758765739248e-05
0.009931436517576437,0.0015174547744087965,2.3163225443306772e-05
0.009629595863383035,0.0015223450325040364,2.392317539503498e-05
0.009334669848989233,0.0015270860989321294,2.4685533177894022e-05
0.009046904620333644,0.0015316814925494602,2.5450225075764418e-05
0.008766516005335623,0.0015361348477058775,2.6217179160828253e-05
0.008493687298284347,0.0015404498985317826,2.6986325347387668e-05
0.008228567176580366,0.0015446304621504988,2.7757595437558237e-05
0.007971267777080794,0.0015486804208889142,2.853092315831809e-05
0.007721862963064879,0.0015526037035739507,2.9306244189433804e-05
0.007480386813490944,0.0015564042660180897,3.0083496181831814e-05
0.007246832363189954,0.00156008607081226,3.08626187660394e-05
0.007021150617094374,0.001563653066557331,3.16435535503818e-05
0.006803249855174435,0.0015671091666753982,3.242624410868998e-05
0.00659299523862189,0.0015704582279488474,3.321063595734604e-05
0.006390208722399486,0.0015737040289391026,3.3996676521568025e-05
0.006194669274814223,0.001576850248438406,3.4784315090912405e-05
0.006006113400544811,0.0015799004441072457,3.557350276404882e-05
0.005824235958040887,0.001582858031446892,3.636419238293735e-05
0.00564869125604328,0.0015857262632504132,3.7156338456611676e-05
0.005479094409453519,0.0015885082096667874,3.794989707484098e-05
0.005315022933528146,0.0015912067390025327,3.874482581200831e-05
0.005156018556183407,0.0015938244993749606,3.9541083621602684e-05
0.005001589228970803,0.0015963639013212491,4.033863072177674e-05
0.004851211316697277,0.0015988271014576662,4.113742847247147e-05
0.004704331944465711,0.001601215987272957,4.1937439244654126e-05
0.004560371480577824,0.0016035321631292178,4.273862628225467e-05
0.004418726134699498,0.001605776937533037,4.354095355742023e-05
