frame_number,force
0,859.0402744873762
1,859.0227378784031
2,859.0041103113256
3,858.9844052457661
4,858.9636391984294
5,858.9418317564415
6,858.9190055687152
7,858.8951863153446
8,858.870402655781
9,858.8446861570739
10,858.8180712037322
11,858.7905948907272
12,858.7622969008979
13,858.7332193677764
14,858.7034067248193
15,858.6729055422727
16,858.6417643533902
17,858.6100334723923
18,858.5777648072434
19,858.5450116707437
20,858.5118285934617
21,858.4782711416352
22,858.4443957424888
23,858.4102595186783
24,858.3759201329832
25,858.3414356438857
26,858.3068643722379
27,858.2722647788161
28,858.237695352247
29,858.2032145066249
30,858.1688804881848
31,858.1347512906972
32,858.1008845796504
33,858.0673376255038
34,858.0341672461942
35,858.001429758743
36,857.9691809394538
37,857.937475991951
38,857.9063695222286
39,857.8759155198585
40,857.8461673443999
41,857.8171777158861
42,857.7889987082303
43,857.7616817445531
44,857.7352775936645
45,857.7098363671043
46,857.6854075163211
47,857.6620398298422
48,857.6397814306351
49,857.6186797741001
50,857.5987816471056
51,857.5801331682012
52,857.5627797887392
53,857.5467662941804
54,857.5321368043845
55,857.5189347713517
56,857.5072029728152
57,857.4969835002773
58,857.4883177403523
59,857.4812463484704
60,857.4758092140605
61,857.4720454163096
62,857.469993169555
63,857.4696897573592
64,857.4711714544362
65,857.474473435851
66,857.4796296732706
67,857.4866728184296
68,857.4956340743025
69,857.5065430547223
70,857.5194276334039
71,857.5343137836514
72,857.5512254104891
73,857.5701841773982
74,857.5912093301057
75,857.6143175199371
76,857.639522629254
77,857.6668356015047
78,857.6962642783744
79,857.7278132463805
80,857.7614836950573
81,857.7972732886828
82,857.8351760533128
83,857.8751822806387
84,857.9172784498091
85,857.9614471679245
86,858.0076671296188
87,858.0559130960695
88,858.1061558937632
89,858.158362433195
90,858.2124957473621
91,858.2685150495022
92,858.3263758090663
93,858.3860298445176
94,858.4474254313503
95,858.5105074238098
96,858.5752173889564
97,858.6414937517491
98,858.7092719497002
99,858.7784845955906
100,858.8490616468822
101,858.9209305806803
102,858.994016573139
103,859.0682426820033
104,859.1435300306885
105,859.2197979920475
106,859.2969643698426
107,859.3749455759704
108,859.453656801829
109,859.533012182949
110,859.6129249569464
111,859.6933076156147
112,859.7740720522829
113,859.8551297054428
114,859.9363916994142
115,860.0177689826281
116,860.0991724639317
117,860.1805131471616
118,860.2617022641912
119,860.3426514067284
120,860.4232726571262
121,860.5034787183201
122,860.5831830428742
123,860.6622999611434
124,860.7407448087107
125,860.8184340534069
126,860.8952854222656
127,860.9712180286908
128,861.0461525000599
129,861.1200111060564
130,861.1927178882306
131,861.2641987915526
132,861.3343817989174
133,861.4031970694141
134,861.4705770804463
135,861.5364567726408
136,861.6007736954369
137,861.6634681507517
138,861.7244833321345
139,861.7837654571491
140,861.8412638911989
141,861.896931261651
142,861.9507235619022
143,862.0026002457959
144,862.0525243132994
145,862.1004623883298
146,862.146384789078
147,862.1902655904381
148,862.2320826776314
149,862.2718177899566
150,862.3094565536345
151,862.344988502766
152,862.378407087529
153,862.4097096689729
154,862.4388975000601
155,862.4659756928306
156,862.4909531716131
157,862.5138426120636
158,862.5346603656145
159,862.5534263688141
160,862.5701640371177
161,862.5849001428585
162,862.5976646773564
163,862.6084906974169
164,862.6174141568122
165,862.6244737236698
166,862.6297105851056
167,862.6331682410482
168,862.6348922898959
169,862.6349302091862
170,862.633331134668
171,862.6301456410629
172,862.6254255274574
173,862.6192236097872
174,862.6115935224186
175,862.6025895304731
176,862.5922663542235
177,862.5806790065363
178,862.5678826440065
179,862.5539324322326
180,862.5388834255236
181,862.5227904609914
182,862.5057080663483
183,862.4876903799159
184,862.4687910804682
185,862.4490633237149
186,862.4285596816316
187,862.4073320807087
188,862.3854317355017
189,862.3629090744954
190,862.3398136560579
191,862.316194073129
192,862.2920978462002
193,862.2675713049534
194,862.2426594595458
195,862.2174058630659
196,862.1918524673229
197,862.1660394748236
198,862.1400051902389
199,862.1137858747112
200,862.087415606149
201,862.060926148443
202,862.0343468324149
203,862.0077044511968
204,861.9810231725296
205,861.9543244700778
206,861.9276270752765
207,861.9009469505585
208,861.8742972841718
209,861.8476885062764
210,861.8211283256592
211,861.7946217862104
212,861.7681713422564
213,861.741776951891
214,861.7154361874816
215,861.6891443624721
216,861.6628946735065
217,861.6366783567394
218,861.6104848568425
219,861.5843020066521
220,861.5581162149246
221,861.5319126595945
222,861.5056754843746
223,861.4793879973469
224,861.4530328711181
225,861.4265923448588
226,861.4000484288933
227,861.3733831124337
228,861.3465785746763
229,861.3196173989543
230,861.2924827889929
231,861.2651587855572
232,861.2376304809417
233,861.209884227939
234,861.1819078393399
235,861.1536907738388
236,861.1252243046524
237,861.0965016681608
238,861.0675181911296
239,861.038271396172
240,861.0087610858103
241,860.9789894058707
242,860.9489608891221
243,860.9186824800946
244,860.8881635419518
245,860.8574158461713
246,860.826453545617
247,860.7952931313197
248,860.763953373024
249,860.7324552434524
250,860.7008218263
251,860.6690782082148
252,860.6372513554151
253,860.6053699760854
254,860.5734643700695
255,860.5415662674925
256,860.5097086579351
257,860.4779256117856
258,860.446252095436
259,860.414723781889
260,860.3833768580131
261,860.3522478291786
262,860.3213733214808
263,860.2907898812915
264,860.2605337715803
265,860.2306407644201
266,860.2011459293886
267,860.1720834180612
268,860.143486245231
269,860.1153860677689
270,860.0878129622073
271,860.0607952023618
272,860.0343590386432
273,860.0085284810291
274,859.9833250877639
275,859.9587677617441
276,859.9348725564674
277,859.9116524935747
278,859.8891173943696
279,859.8672737280343
280,859.8461244793132
281,859.8256690381758
282,859.8059031134798
283,859.786818672095
284,859.7684039044119
285,859.7506432166817
286,859.7335172502485
287,859.7170029273564
288,859.7010735227401
289,859.6856987596622
290,859.6708449286641
291,859.6564750271915
292,859.6425489183212
293,859.6290235068877
294,859.6158529312577
295,859.602988768891
296,859.5903802538022
297,859.5779745041161
298,859.5657167580096
299,859.5535506163627
300,859.5414182904389
301,859.5292608528919
302,859.5170184904
303,859.5046307562959
304,859.4920368217574
305,859.479175724429
306,859.4659866137149
307,859.4524089924386
308,859.4383829550187
309,859.4238494226022
310,859.4087503755625
311,859.3930290835573
312,859.3766303331448
313,859.3595006528005
314,859.3415885349348
315,859.3228446541783
316,859.3032220809224
317,859.2826764889135
318,859.2611663555439
319,859.2386531533299
320,859.2151015310217
321,859.1904794828739
322,859.1647585047612
323,859.1379137359442
324,859.1099240854091
325,859.0807723419025
326,859.0504452670342
327,859.0189336709453
328,858.986232469977
329,858.9523407257002
330,858.9172616646865
331,858.8810026784843
332,858.8435753033065
333,858.8049951789542
334,858.7652819865535
335,858.7244593648004
336,858.6825548045292
337,858.6395995215569
338,858.595628307932
339,858.5506793619815
340,858.5047940979332
341,858.4580169364286
342,858.4103950778538
343,858.3619782609572
344,858.3128185095792
345,858.2629698704641
346,858.212488145127
347,858.1614306186924
348,858.1098557886352
349,858.0578230964285
350,858.0053926651589
351,857.9526250461423
352,857.899580977351
353,857.8463211559458
354,857.792906026461
355,857.7393955854172
356,857.6858492026281
357,857.6323254593291
358,857.5788820034596
359,857.5255754227229
360,857.4724611361725
361,857.4195933049315
362,857.367024762396
363,857.3148069641117
364,857.2629899575215
365,857.2116223717546
366,857.1607514272672
367,857.1104229644187
368,857.0606814893124
369,857.0115702347709
370,856.963131234106
371,856.9154054051369
372,856.8684326416823
373,856.8222519096146
374,856.7769013445351
375,856.7324183480675
376,856.6888396796412
377,856.6462015405488
378,856.6045396471621
379,856.5638892905174
380,856.5242853800389
381,856.4857624699005
382,856.4483547673877
383,856.412096123578
384,856.3770200075082
385,856.343159465477
386,856.3105470671412
387,856.279214839876
388,856.2491941926735
389,856.2205158307007
390,856.1932096614335
391,856.1673046930778
392,856.1428289258872
393,856.1198092370862
394,856.0982712603682
395,856.0782392612691
396,856.0597360101498
397,856.0427826550035
398,856.027398596695
399,856.013601369366
400,856.0014065285488
401,855.9908275490928
402,855.9818757345628
403,855.9745601395066
404,855.9688875059147
405,855.964862215166
406,855.9624862567434
407,855.9617592150457
408,855.9626782756625
409,855.965238252388
410,855.9694316359992
411,855.9752486654693
412,855.9826774218282
413,855.9917039442435
414,856.0023123670312
415,856.0144850752906
416,856.0282028758746
417,856.0434451796724
418,856.0601901907959
419,856.0784150982591
420,856.0980962661489
421,856.1192094190885
422,856.1417298207981
423,856.1656324444657
424,856.1908921341637
425,856.2174837565855
426,856.2453823421313
427,856.2745632141706
428,856.3050021052851
429,856.3366752594387
430,856.3695595193134
431,856.4036323985503
432,856.4388721393655
433,856.4752577568743
434,856.5127690722716
435,856.5513867375131
436,856.5910922541566
437,856.6318679886145
438,856.6736971854483
439,856.716563979676
440,856.7604534084649
441,856.8053514221247
442,856.8512448941333
443,856.898121630002
444,856.9459703749524
445,856.9947808203991
446,857.0445436090507
447,857.0952503382169
448,857.1468935608287
449,857.1994667836698
450,857.2529644622651
451,857.3073819917803
452,857.3627156932951
453,857.4189627950271
454,857.4761214083978
455,857.5341904991154
456,857.5931698536727
457,857.6530600417884
458,857.7138623752385
459,857.7755788631454
460,857.8382121632634
461,857.9017655283772
462,857.9662427466577
463,858.0316480746158
464,858.0979861611095
465,858.165261960788
466,858.2334806355544
467,858.3026474431401
468,858.3727676125126
469,858.4438462064178
470,858.5158879719177
471,858.5888971803853
472,858.6628774589713
473,858.7378316158793
474,858.8137614617798
475,858.8906676294615
476,858.9685493935706
477,859.0474044920838
478,859.1272289509284
479,859.2080169128692
480,859.2897604715091
481,859.3724495110323
482,859.4560715522098
483,859.5406116053005
484,859.6260520308788
485,859.7123724101084
486,859.7995494262697
487,859.887556759341
488,859.9763649953347
489,860.0659415521642
490,860.1562506241502
491,860.2472531476172
492,860.3389067900956
493,860.4311659652881
494,860.5239818752877
495,860.6173025807369
496,860.7110730988605
497,860.8052355286576
498,860.8997292019243
499,860.9944908581641
500,861.0894548409034
501,861.1845533125836
502,861.2797164850585
503,861.3748728626799
504,861.4699494949206
505,861.5648722354048
506,861.6595660040938
507,861.7539550493259
508,861.8479632065984
509,861.9415141514442
510,862.0345316443205
511,862.1269397659064
512,862.2186631415606
513,862.3096271539521
514,862.3997581430646
515,862.4889835928809
516,862.5772323041409
517,862.6644345527009
518,862.7505222332771
519,862.8354289886694
520,862.9190903248877
521,863.0014437129552
522,863.0824286786589
523,863.1619868821463
524,863.2400621896619
525,863.316600739528
526,863.3915510036792
527,863.4648638450668
528,863.5364925704848
529,863.6063929780154
530,863.674523398291
531,863.7408447289182
532,863.8053204615011
533,863.8679167006512
534,863.9286021742676
535,863.9873482343479
536,864.0441288477488
537,864.0989205765968
538,864.151702548313
539,864.2024564152479
540,864.251166303758
541,864.2978187524601
542,864.3424026396686
543,864.38490910057
544,864.4253314351943
545,864.4636650085605
546,864.4999071446289
547,864.5340570160675
548,864.5661155322531
549,864.5960852281368
550,864.6239701564684
551,864.6497757854048
552,864.6735089028649
553,864.6951775282307
554,864.7147908312633
555,864.7323590576242
556,864.7478934602881
557,864.7614062362825
558,864.7729104682837
559,864.7824200704142
560,864.7899497372446
561,864.7955148947618
562,864.7991316520803
563,864.8008167529453
564,864.8005875265453
565,864.798461837663
566,864.7944580366558
567,864.7885949101658
568,864.7808916338213
569,864.7713677284397
570,864.7600430212889
571,864.7469376137597
572,864.7320718563085
573,864.7154663308344
574,864.697141839984
575,864.6771194024789
576,864.6554202535242
577,864.6320658495458
578,864.6070778765938
579,864.5804782616223
580,864.5522891857394
581,864.5225330987437
582,864.4912327347681
583,864.4584111293028
584,864.424091637987
585,864.3882979573051
586,864.3510541468211
587,864.3123846520429
588,864.2723143266879
589,864.2308684532159
590,864.1880727609665
591,864.1439534418735
592,864.0985371641844
593,864.0518510847668
594,864.0039228605388
595,863.9547806595699
596,863.9044531725026
597,863.8529696250504
598,863.8003597923398
599,863.7466540158644
600,863.6918832239247
601,863.6360789566057
602,863.579273396391
603,863.5214994053339
604,863.4627905692761
605,863.4031812490016
606,863.3427066375775
607,863.281402822716
608,863.2193068528845
609,863.156456805937
610,863.0928918590533
611,863.028652358688
612,862.9637798890296
613,862.8983173372984
614,862.8323089541805
615,862.7658004077758
616,862.698838829356
617,862.6314728489442
618,862.5637526185404
619,862.4957298209802
620,862.4274576629806
621,862.3589908517198
622,862.2903855551051
623,862.2216993466075
624,862.1529911361052
625,862.0843210885383
626,862.0157505322557
627,861.9473418588236
628,861.8791584159353
629,861.8112643949883
630,861.7437247148761
631,861.6766049034952
632,861.6099709783359
633,861.5438893272404
634,861.4784265899851
635,861.4136495409267
636,861.3496249726905
637,861.2864195807798
638,861.2240998489249
639,861.1627319348931
640,861.1023815564045
641,861.0431138768254
642,860.9849933903951
643,860.9280838066807
644,860.8724479336724
645,860.8181475585717
646,860.7652433250847
647,860.7137946059742
648,860.6638593697573
649,860.6154940408775
650,860.5687533533652
651,860.5236901986244
652,860.4803554681673
653,860.438797891958
654,860.3990638729161
655,860.3611973184211
656,860.3252394703142
657,860.2912287356394
658,860.2592005209181
659,860.2291870729609
660,860.2012173290108
661,860.1753167784407
662,860.1515073375077
663,860.1298072380472
664,860.1102309307031
665,860.0927890033621
666,860.0774881156252
667,860.0643309501093
668,860.0533161810488
669,860.0444384602515
670,860.0376884201722
671,860.0330526937869
672,860.0305139509446
673,860.0300509508005
674,860.0316386097583
675,860.0352480842632
676,860.0408468679408
677,860.0483989029246
678,860.0578647055394
679,860.0692015066212
680,860.0823634066544
681,860.0973015456264
682,860.1139642872416
683,860.1322974170508
684,860.1522443541976
685,860.173746376724
686,860.1967428605424
687,860.2211715321317
688,860.2469687346996
689,860.2740697069615
690,860.3024088729032
691,860.3319201401406
692,860.3625372039938
693,860.3941938541273
694,860.4268242803358
695,860.4603633736633
696,860.4947470187439
697,860.5299123733665
698,860.5657981317413
699,860.6023447685177
700,860.6394947611278
701,860.6771927885817
702,860.7153859055065
703,860.7540236907952
704,860.7930583704729
705,860.8324449142667
706,860.8721411050897
707,860.9121075804829
708,860.9523078451746
709,860.9927082542796
710,861.033277967169
711,861.0739888725575
712,861.1148154858726
713,861.155734820404
714,861.1967262340198
715,861.2377712534819
716,861.2788533787163
717,861.3199578697506
718,861.3610715192647
719,861.402182413764
720,861.4432796863347
721,861.4843532638454
722,861.5253936114442
723,861.5663914773402
724,861.6073376410234
725,861.64822266807
726,861.6890366744954
727,861.7297691033915
728,861.770408516395
729,861.8109424022892
730,861.8513570046317
731,861.89163716977
732,861.9317662162166
733,861.9717258262497
734,862.011495960675
735,862.0510547977487
736,862.0903786972457
737,862.1294421904971
738,862.1682179968135
739,862.2066770661038
740,862.2447886468397
741,862.2825203779781
742,862.3198384031913
743,862.3567075057935
744,862.393091263067
745,862.4289522191418
746,862.4642520759435
747,862.4989519017344
748,862.5330123563409
749,862.5663939314841
750,862.5990572039229
751,862.6309630985505
752,862.6620731581371
753,862.6923498160747
754,862.7217566683014
755,862.7502587407024
756,862.7778227487421
757,862.8044173466984
758,862.8300133644245
759,862.8545840298667
760,862.8781051756775
761,862.9005554283617
762,862.9219163785983
763,862.9421727316998
764,862.9613124375511
765,862.9793267997171
766,862.9962105635201
767,863.0119619826747
768,863.0265828636709
769,863.040078586853
770,863.0524581032852
771,863.0637339069692
772,863.0739219825805
773,863.0830417293859
774,863.0911158623377
775,863.0981702915494
776,863.1042339815199
777,863.1093387915842
778,863.11351929911
779,863.1168126068951
780,863.1192581361096
781,863.1208974061416
782,863.1217738030018
783,863.1219323384399
784,863.1214194023678
785,863.120282511396
786,863.1185700562661
787,863.1163310506798
788,863.1136148834426
789,863.1104710750722
790,863.1069490393656
791,863.1030978501104
792,863.09896601311
793,863.0946012437843
794,863.0900502507358
795,863.0853585259582
796,863.0805701427886
797,863.0757275630441
798,863.0708714547601
799,863.0660405215725
800,863.0612713443492
801,863.0565982354018
802,863.0520531054474
803,863.0476653432818
804,863.0434617078556
805,863.0394662321982
806,863.0357001385331
807,863.0321817640838
808,863.0289264974409
809,863.0259467257789
810,863.0232517935142
811,863.0208479732398
812,863.018738449978
813,863.0169233198518
814,863.0153996040947
815,863.0141612789696
816,863.0131993218391
817,863.0125017734392
818,863.0120538163754
819,863.0118378698448
820,863.0118337003865
821,863.0120185479145
822,863.0123672654345
823,863.0128524700425
824,863.0134447024784
825,863.0141125927903
826,863.01482303028
827,863.0155413364515
828,863.0162314399536
829,863.0168560525877
830,863.017376845569
831,863.0177546255095
832,863.0179495099563
833,863.0179211026567
834,863.017628669054
835,863.0170313128299
836,863.0160881545346
837,863.0147585133678
838,863.0130020929155
839,863.0107791711264
840,863.0080507940946
841,863.0047789724831
842,863.0009268789128
843,862.9964590444891
844,862.9913415527868
845,862.985542229879
846,862.97903082918
847,862.9717792098634
848,862.9637615074354
849,862.9549542947634
850,862.9453367316339
851,862.9348907009065
852,862.9236009295552
853,862.9114550932468
854,862.898443903526
855,862.8845611771759
856,862.869803887936
857,862.854172201359
858,862.8376694940386
859,862.8203023586383
860,862.8020805960333
861,862.783017195454
862,862.7631283030491
863,862.7424331790313
864,862.7209541436181
865,862.6987165121237
866,862.6757485195914
867,862.6520812352903
868,862.6277484674939
869,862.6027866594063
870,862.5772347778061
871,862.5511341965034
872,862.5245285768078
873,862.4974637469206
874,862.4699875818148
875,862.4421498849333
876,862.414002272824
877,862.3855980634581
878,862.3569921684333
879,862.3282409886997
880,862.2994023130033
881,862.2705352179383
882,862.2416999683937
883,862.2129579173272
884,862.1843714041996
885,862.1560036519022
886,862.127918662524
887,862.1001811127431
888,862.0728562498805
889,862.0460097896314
890,862.0197078162153
891,861.9940166853281
892,861.9690029299594
893,861.9447331688446
894,861.9212740170478
895,861.8986919979008
896,861.8770534552954
897,861.8564244651294
898,861.8368707444988
899,861.8184575571253
900,861.8012496136237
901,861.785310965577
902,861.7707048929676
903,861.7574937852285
904,861.7457390168194
905,861.7355008185831
906,861.7268381461917
907,861.7198085469659
908,861.7144680264016
909,861.7108709158102
910,861.7090697424024
911,861.7091151028712
912,861.7110555411637
913,861.7149374308452
914,861.7208048623437
915,861.7286995353883
916,861.7386606570622
