frame_number,force
0,859.0330673937383
1,859.0149267864011
2,858.9957535169992
3,858.9755630923726
4,858.9543733959523
5,858.9322046972613
6,858.9090796487748
7,858.8850232700987
8,858.8600629198216
9,858.8342282556686
10,858.807551183733
11,858.7800657975472
12,858.7518083076212
13,858.7228169619593
14,858.6931319580473
15,858.662795346937
16,858.6318509303081
17,858.6003441517418
18,858.5683219837954
19,858.5358328126956
20,858.5029263224797
21,858.4696533802158
22,858.436065923583
23,858.4022168517118
24,858.3681599198892
25,858.3339496384785
26,858.2996411761884
27,858.2652902676128
28,858.230953124811
29,858.1966863526063
30,858.1625468673147
31,858.1285918187684
32,858.0948785157125
33,858.0614643547647
34,858.0284067530802
35,857.9957630846925
36,857.9635906203164
37,857.9319464702788
38,857.9008875302047
39,857.870470429072
40,857.8407514792012
41,857.8117866276592
42,857.7836314085428
43,857.756340895689
44,857.7299696554834
45,857.7045716995261
46,857.6802004370129
47,857.6569086268237
48,857.6347483295024
49,857.6137708594289
50,857.5940267374781
51,857.5755656443134
52,857.5584363742611
53,857.5426867894737
54,857.5283637738472
55,857.5155131859864
56,857.5041798104794
57,857.4944073068432
58,857.4862381556443
59,857.4797136013971
60,857.4748735918788
61,857.4717567134895
62,857.4704001222624
63,857.4708394701305
64,857.4731088261162
65,857.4772405922425
66,857.4832654141462
67,857.4912120865735
68,857.5011074541095
69,857.5129763076201
70,857.5268412769931
71,857.5427227209346
72,857.5606386148092
73,857.5806044377415
74,857.6026330603315
75,857.6267346343631
76,857.6529164858907
77,857.6811830130886
78,857.7115355902167
79,857.7439724789864
80,857.7784887484962
81,857.8150762048045
82,857.8537233311024
83,857.8944152393178
84,857.9371336337786
85,857.9818567873339
86,858.0285595301763
87,858.0772132515563
88,858.1277859145715
89,858.180242084128
90,858.2345429679967
91,858.2906464706697
92,858.3485072594768
93,858.4080768422036
94,858.4693036553477
95,858.5321331621824
96,858.5965079598776
97,858.662367894932
98,858.7296501861003
99,858.7982895539619
100,858.8682183563417
101,858.939366728901
102,859.0116627302298
103,859.08503249066
104,859.1594003638611
105,859.2346890801468
106,859.3108199003392
107,859.3877127690515
108,859.4652864664234
109,859.5434587577114
110,859.6221465406195
111,859.7012659906471
112,859.780732704877
113,859.8604618445692
114,859.9403682767992
115,860.0203667152732
116,860.1003718603648
117,860.1802985383318
118,860.260061839653
119,860.3395772564539
120,860.418760818989
121,860.4975292310655
122,860.5758000042334
123,860.6534915905735
124,860.7305235139991
125,860.8068165000656
126,860.8822926043066
127,860.9568753390823
128,861.0304897988982
129,861.1030627841939
130,861.1745229237163
131,861.2448007957275
132,861.3138290484102
133,861.3815425197597
134,861.4478783568858
135,861.5127761340549
136,861.5761779682749
137,861.6380286309693
138,861.698275654311
139,861.7568694309606
140,861.8137633062065
141,861.8689136618516
142,861.9222799915997
143,861.9738249681097
144,862.0235145021472
145,862.0713177942666
146,862.1172073791882
147,862.1611591626579
148,862.2031524503211
149,862.2431699680728
150,862.2811978733714
151,862.317225757043
152,862.3512466351715
153,862.3832569307929
154,862.4132564452802
155,862.4412483194311
156,862.467238984299
157,862.4912381017526
158,862.51325849465
159,862.5333160664716
160,862.5514297103036
161,862.567621207162
162,862.5819151137697
163,862.5943386400654
164,862.6049215168981
165,862.6136958545435
166,862.6206959928966
167,862.6259583445163
168,862.629521232062
169,862.6314247219417
170,862.6317104561091
171,862.6304214838898
172,862.6276020955432
173,862.6232976590214
174,862.6175544611451
175,862.6104195542372
176,862.6019406090838
177,862.5921657749104
178,862.5811435468893
179,862.5689226415892
180,862.5555518806915
181,862.5410800831185
182,862.5255559653896
183,862.5090280495912
184,862.4915445778837
185,862.4731534320413
186,862.4539020562006
187,862.4338373809176
188,862.4130057467863
189,862.3914528261878
190,862.3692235421248
191,862.3463619835404
192,862.3229113169766
193,862.2989136948428
194,862.2744101608707
195,862.2494405536019
196,862.2240434090708
197,862.1982558641981
198,862.1721135626224
199,862.1456505647184
200,862.1188992634296
201,862.0918903074224
202,862.0646525329933
203,862.0372129060893
204,862.0095964756854
205,861.9818263395463
206,861.9539236230895
207,861.9259074717103
208,861.8977950565871
209,861.8696015937088
210,861.8413403756709
211,861.8130228156839
212,861.7846585031944
213,861.7562552705466
214,861.7278192701152
215,861.6993550613055
216,861.6708657067644
217,861.6423528770578
218,861.6138169628771
219,861.5852571935472
220,861.5566717603532
221,861.5280579431667
222,861.4994122390818
223,861.4707304921873
224,861.4420080240808
225,861.4132397651216
226,861.3844203865971
227,861.3555444339439
228,861.3266064609775
229,861.297601164812
230,861.2685235208284
231,861.2393689166572
232,861.2101332837199
233,861.1808132244591
234,861.1514061330911
235,861.1219103076327
236,861.092325051191
237,861.0626507610284
238,861.0328890045787
239,861.0030425821661
240,860.9731155765567
241,860.9431133896762
242,860.9130427669331
243,860.8829118096102
244,860.8527299757698
245,860.8225080700677
246,860.7922582227957
247,860.7619938583482
248,860.7317296531861
249,860.7014814833275
250,860.6712663614422
251,860.6411023637601
252,860.611008547223
253,860.5810048575762
254,860.5511120292936
255,860.5213514783086
256,860.4917451885225
257,860.4623155930741
258,860.433085451381
259,860.4040777229222
260,860.3753154385641
261,860.3468215699785
262,860.3186188974327
263,860.2907298759956
264,860.2631765000489
265,860.2359801659843
266,860.2091615331182
267,860.1827403831102
268,860.1567354783971
269,860.1311644202915
270,860.1060435074872
271,860.0813875958229
272,860.057209960329
273,860.0335221607403
274,860.0103339117003
275,859.9876529588232
276,859.9654849617233
277,859.9438333851949
278,859.9226993999013
279,859.9020817940896
280,859.8819768978697
281,859.862378521446
282,859.8432779084243
283,859.8246637050175
284,859.8065219456787
285,859.7888360554318
286,859.7715868689583
287,859.7547526662868
288,859.7383092246761
289,859.7222298859814
290,859.7064856385801
291,859.6910452128623
292,859.6758751893123
293,859.6609401182312
294,859.6462026501123
295,859.6316236756112
296,859.6171624740298
297,859.6027768692608
298,859.5884233921806
299,859.5740574484854
300,859.55963349095
301,859.545105195074
302,859.530425637069
303,859.5155474731696
304,859.5004231193489
305,859.4850049306656
306,859.4692453796623
307,859.4530972334629
308,859.4365137294517
309,859.4194487495624
310,859.4018569931902
311,859.3836941486262
312,859.3649170628153
313,859.3454839091585
314,859.3253543529573
315,859.3044897139287
316,859.282853125078
317,859.2604096871279
318,859.2371266176211
319,859.2129733937483
320,859.1879218879296
321,859.1619464952366
322,859.1350242518242
323,859.1071349436203
324,859.0782612045845
325,859.048388603968
326,859.0175057221411
327,858.9856042146318
328,858.9526788640014
329,858.9187276191515
330,858.8837516216805
331,858.8477552189648
332,858.8107459636716
333,858.7727345994323
334,858.7337350324447
335,858.6937642888454
336,858.6528424577676
337,858.6109926200816
338,858.5682407629188
339,858.524615680229
340,858.4801488598254
341,858.4348743576661
342,858.3888286604465
343,858.3420505378624
344,858.2945808861015
345,858.2464625642042
346,858.1977402249389
347,858.1484601418216
348,858.0986700339203
349,858.0484188901253
350,857.9977567946083
351,857.9467347551783
352,857.8954045361314
353,857.8438184969308
354,857.7920294376664
355,857.7400904518474
356,857.6880547868175
357,857.6359757120147
358,857.5839063954014
359,857.5318997885413
360,857.4800085208635
361,857.428284803582
362,857.3767803435996
363,857.3255462676457
364,857.2746330568913
365,857.2240904922779
366,857.1739676105954
367,857.124312670971
368,857.0751731310364
369,857.026595631795
370,856.9786259901016
371,856.9313091975513
372,856.8846894244531
373,856.838810027488
374,856.7937135596276
375,856.7494417808551
376,856.7060356681585
377,856.6635354232133
378,856.6219804762179
379,856.581409484511
380,856.5418603248793
381,856.5033700788368
382,856.4659750106003
383,856.4297105379687
384,856.3946111967531
385,856.3607105996412
386,856.328041390385
387,856.2966351940909
388,856.2665225642862
389,856.2377329273518
390,856.2102945247954
391,856.1842343537307
392,856.159578105866
393,856.1363501053515
394,856.1145732459659
395,856.0942689282838
396,856.0754569976893
397,856.0581556843381
398,856.0423815463727
399,856.0281494177532
400,856.0154723619603
401,856.0043616325967
402,855.9948266416759
403,855.9868749362482
404,855.9805121839678
405,855.9757421681865
406,855.9725667931489
407,855.9709860998846
408,855.9709982934053
409,855.9725997817652
410,855.9757852274116
411,855.980547611064
412,855.9868783081195
413,855.9947671772503
414,856.0042026604089
415,856.0151718929268
416,856.0276608218878
417,856.0416543305698
418,856.0571363665534
419,856.0740900710905
420,856.0924979075414
421,856.1123417871013
422,856.1336031905612
423,856.1562632853203
424,856.1803030371351
425,856.2057033161174
426,856.2324449963679
427,856.2605090485301
428,856.2898766245409
429,856.3205291339339
430,856.3524483112081
431,856.3856162740353
432,856.4200155724639
433,856.4556292297343
434,856.4924407757431
435,856.5304342744578
436,856.5695943466015
437,856.609906188722
438,856.6513555894404
439,856.6939289433494
440,856.7376132627207
441,856.7823961869567
442,856.8282659896339
443,856.875211583034
444,856.9232225201492
445,856.97228899417
446,857.0224018353766
447,857.0735525052497
448,857.1257330875776
449,857.1789362763466
450,857.2331553601774
451,857.2883842030324
452,857.3446172209302
453,857.4018493545238
454,857.460076037565
455,857.5192931614371
456,857.5794970360533
457,857.6406843474967
458,857.7028521127377
459,857.7659976315762
460,857.8301184356892
461,857.8952122344429
462,857.9612768569971
463,858.0283101901302
464,858.0963101111125
465,858.1652744149246
466,858.2352007352249
467,858.3060864587317
468,858.3779286330118
469,858.4507238679709
470,858.5244682316261
471,858.5991571410536
472,858.6747852496873
473,858.7513463323091
474,858.8288331690667
475,858.9072374297249
476,858.9865495592334
477,859.066758665575
478,859.1478524107367
479,859.2298169054869
480,859.3126366084944
481,859.3962942302053
482,859.4807706418287
483,859.5660447898359
484,859.652093616573
485,859.7388919878307
486,859.8264126283582
487,859.9146260662927
488,860.0035005874166
489,860.0930022001833
490,860.1830946126147
491,860.2737392223422
492,860.3648951210845
493,860.4565191146645
494,860.5485657593078
495,860.6409874145432
496,860.7337343126245
497,860.8267546440494
498,860.9199946584258
499,861.0133987796061
500,861.1069097337237
501,861.2004686885823
502,861.294015402764
503,861.387488382792
504,861.4808250466599
505,861.5739618919956
506,861.6668346670565
507,861.7593785427238
508,861.8515282837583
509,861.943218417817
510,862.0343834010163
511,862.124957779082
512,862.2148763432991
513,862.3040742806139
514,862.3924873173406
515,862.4800518559756
516,862.5667051046688
517,862.6523851989785
518,862.7370313156642
519,862.8205837784411
520,862.9029841557912
521,862.9841753511131
522,863.0641016857555
523,863.1427089758046
524,863.2199446037138
525,863.2957575857668
526,863.3700986359598
527,863.4429202263872
528,863.5141766438177
529,863.5838240419808
530,863.6518204890849
531,863.7181260101735
532,863.7827026239864
533,863.84551437397
534,863.906527353035
535,863.965709721662
536,864.023031719037
537,864.0784656670594
538,864.1319859672055
539,864.1835690902592
540,864.2331935588368
541,864.2808399225988
542,864.3264907261828
543,864.3701304701823
544,864.4117455657704
545,864.4513242837287
546,864.4888566987871
547,864.5243346303761
548,864.5577515811112
549,864.5891026744466
550,864.6183845928624
551,864.6455955177152
552,864.670735071541
553,864.6938042632048
554,864.7148054359154
555,864.7337422178814
556,864.7506194753262
557,864.7654432676622
558,864.7782208046707
559,864.7889604054361
560,864.7976714586097
561,864.804364383449
562,864.8090505910847
563,864.8117424456062
564,864.8124532247966
565,864.811197080609
566,864.8079889997124
567,864.8028447646444
568,864.7957809162859
569,864.7868147185038
570,864.7759641258233
571,864.763247754881
572,864.7486848601501
573,864.7322953140598
574,864.7140995912853
575,864.6941187567654
576,864.6723744569871
577,864.6488889141585
578,864.6236849229432
579,864.5967858493478
580,864.5682156312968
581,864.5379987805271
582,864.5061603857016
583,864.4727261168601
584,864.4377222313863
585,864.4011755815279
586,864.3631136232469
587,864.323564425887
588,864.2825566819787
589,864.2401197165414
590,864.1962834954877
591,864.1510786330549
592,864.104536398423
593,864.0566887217537
594,864.0075681998635
595,863.9572081017377
596,863.9056423741515
597,863.8529056477129
598,863.7990332436491
599,863.7440611816564
600,863.688026189188
601,863.6309657126471
602,863.572917930976
603,863.513921772041
604,863.4540169319941
605,863.3932438974778
606,863.3316439702166
607,863.2692592933247
608,863.2061328786019
609,863.1423086341247
610,863.0778313914466
611,863.0127469316809
612,862.9471020096433
613,862.8809443751435
614,862.814322790509
615,862.7472870434681
616,862.6798879544829
617,862.612177377485
618,862.5442081928726
619,862.4760342917205
620,862.4077105504545
621,862.3392927956577
622,862.2708377591046
623,862.2024030234958
624,862.1340469596713
625,862.0658286562667
626,861.9978078428302
627,861.9300448073652
628,861.862600309202
629,861.7955354880723
630,861.728911770257
631,861.6627907726554
632,861.5972342055691
633,861.5323037748469
634,861.4680610838224
635,861.4045675352631
636,861.341884233425
637,861.280071886251
638,861.2191907077319
639,861.1593003203953
640,861.1004596578559
641,861.0427268673726
642,860.9861592124083
643,860.9308129751502
644,860.8767433588114
645,860.8240043893438
646,860.7726488160656
647,860.7227280106799
648,860.6742918642278
649,860.6273886817421
650,860.5820650747238
651,860.5383658518807
652,860.4963339086615
653,860.4560101160291
654,860.4174332088547
655,860.3806396744623
656,860.3456636421839
657,860.3125367751666
658,860.28128816595
659,860.2519442374382
660,860.2245286507704
661,860.1990622212937
662,860.1755628434606
663,860.1540454251416
664,860.1345218316916
665,860.1170008401328
666,860.101488103897
667,860.0879861285388
668,860.076494258657
669,860.0670086760344
670,860.0595224088511
671,860.0540253517732
672,860.0505042967106
673,860.0489429739864
674,860.0493221035675
675,860.0516194559505
676,860.0558099223681
677,860.0618655941599
678,860.0697558513051
679,860.0794474601754
680,860.0909046805033
681,860.1040893814148
682,860.1189611662356
683,860.1354775057332
684,860.1535938795267
685,860.1732639255222
686,860.1944395973118
687,860.217071329451
688,860.2411082103619
689,860.2664981623046
690,860.293188127457
691,860.3211242587497
692,860.3502521138528
693,860.3805168505735
694,860.4118634217881
695,860.4442367678292
696,860.4775820041039
697,860.5118446017764
698,860.5469705596063
699,860.5829065653312
700,860.6196001452602
701,860.6569998010386
702,860.6950551328963
703,860.733716948993
704,860.77293736061
705,860.8126698628774
706,860.8528694005971
707,860.8934924186345
708,860.934496896426
709,860.9758423663421
710,861.0174899159122
711,861.059402174197
712,861.1015432828665
713,861.1438788527686
714,861.1863759069331
715,861.2290028110873
716,861.2717291929293
717,861.3145258515959
718,861.3573646588849
719,861.4002184538311
720,861.4430609322083
721,861.4858665324826
722,861.5286103197392
723,861.5712678691733
724,861.6138151508261
725,861.6562284172361
726,861.6984840955869
727,861.7405586858089
728,861.7824286659937
729,861.82407040635
730,861.8654600927139
731,861.9065736603507
732,861.9473867385734
733,861.9878746066499
734,862.0280121614982
735,862.0677738976967
736,862.107133900328
737,862.1460658510772
738,862.1845430477963
739,862.2225384374239
740,862.2600246617999
741,862.2969741156357
742,862.333359015751
743,862.3691514807099
744,862.404323620144
745,862.4388476332759
746,862.4726959163434
747,862.50584117862
748,862.5382565665054
749,862.5699157947984
750,862.6007932839055
751,862.6308643014352
752,862.6601051063916
753,862.6884930940141
754,862.7160069392081
755,862.7426267365802
756,862.7683341353237
757,862.7931124675271
758,862.8169468687585
759,862.8398243899467
760,862.8617340996367
761,862.8826671757519
762,862.9026169861078
763,862.9215791570916
764,862.9395516301253
765,862.9565347057139
766,862.9725310749494
767,862.9875458382335
768,863.0015865107875
769,863.014663014399
770,863.026787654936
771,863.0379750854179
772,863.048242254748
773,863.0576083424809
774,863.0660946801797
775,863.0737246600331
776,863.0805236314975
777,863.0865187867972
778,863.0917390361427
779,863.096214873505
780,863.0999782337343
781,863.1030623418267
782,863.1055015553042
783,863.107331200939
784,863.1085874072879
785,863.1093069346182
786,863.1095270038004
787,863.1092851256029
788,863.1086189315263
789,863.1075660069204
790,863.106163726792
791,863.1044490945545
792,863.1024585839631
793,863.1002279845261
794,863.0977922507559
795,863.0951853557629
796,863.0924401499203
797,863.0895882254987
798,863.0866597881544
799,863.0836835359614
800,863.08068654644
801,863.0776941718922
802,863.0747299432651
803,863.0718154826491
804,863.0689704243694
805,863.066212344496
806,863.0635566985358
807,863.0610167671404
808,863.0586036098514
809,863.0563260271072
810,863.0541905308836
811,863.052201324458
812,863.0503602918791
813,863.0486669977488
814,863.0471186978134
815,863.0457103606734
816,863.0444347007376
817,863.043282222437
818,863.0422412756875
819,863.0412981225685
820,863.0404370150721
821,863.0396402834807
822,863.0388884344773
823,863.0381602576714
824,863.037432939041
825,863.0366821799258
826,863.0358823205208
827,863.0350064670907
828,863.0340266222603
829,863.0329138177669
830,863.0316382491156
831,863.0301694117144
832,863.0284762382491
833,863.0265272372301
834,863.0242906328047
835,863.0217345060918
836,863.0188269384047
837,863.0155361567357
838,863.0118306817423
839,863.0076794782015
840,863.0030521075296
841,862.997918881581
842,862.9922510166797
843,862.9860207867574
844,862.9792016745515
845,862.9717685199571
846,862.9636976647218
847,862.9549670926757
848,862.9455565645975
849,862.9354477466779
850,862.9246243314298
851,862.9130721498954
852,862.900779274128
853,862.8877361091132
854,862.873935473521
855,862.8593726689489
856,862.8440455376398
857,862.8279545089744
858,862.8111026352863
859,862.7934956176535
860,862.775141822271
861,862.7560522877991
862,862.7362407238493
863,862.7157235006437
864,862.6945196299199
865,862.6726507372424
866,862.6501410259023
867,862.6270172325659
868,862.6033085748885
869,862.579046691555
870,862.5542655755785
871,862.5290015019699
872,862.5032929509571
873,862.4771805277875
874,862.4507068799799
875,862.4239166127765
876,862.3968562034455
877,862.3695739148965
878,862.3421197087969
879,862.3145451580956
880,862.2869033586315
881,862.2592488393584
882,862.231637470663
883,862.2041263703405
884,862.1767738069963
885,862.1496391009113
886,862.1227825226756
887,862.0962651901237
888,862.0701489642419
889,862.044496344705
890,862.0193703655626
891,861.9948344914108
892,861.9709525142167
893,861.9477884508194
894,861.9254064409823
895,861.9038706457336
896,861.8832451456137
897,861.8635938383461
898,861.8449803353371
899,861.8274678563565
900,861.8111191218052
901,861.7959962421659
902,861.7821606045284
903,861.7696727564477
904,861.7585922877203
905,861.7489777108473
906,861.7408863409696
907,861.7343741760468
908,861.7294957780725
909,861.7263041561515
910,861.7248506522177
911,861.7251848300269
912,861.7273543678616
913,861.7314049552347
914,861.7373801938072
915,861.7453215027525
916,861.7552680288376
917,861.7672565615351
