frame_number,force
0,641.1607700000299
1,641.4708768350202
2,641.7686247834905
3,642.0426448499223
4,642.2834290829527
5,642.4839890642039
6,642.6402460898479
7,642.7511362007745
8,642.8184462173456
9,642.8464223758108
10,642.8412110003112
11,642.8102025492185
12,642.7613537570742
13,642.7025488218933
14,642.6410290110257
15,642.5828911356894
16,642.5326579682401
17,642.4929601735395
18,642.4644033393537
19,642.4456865257363
20,642.4339861623821
21,642.4255467625238
22,642.4163604879582
23,642.4027942032762
24,642.3820420658442
25,642.3523379097127
26,642.3129369768366
27,642.2639406664682
28,642.2060643895502
29,642.1404336552189
30,642.0684522964452
31,641.9917406455388
32,641.9121129047646
33,641.8315628513936
34,641.7522416624339
35,641.676417045391
36,641.6063930196428
37,641.5443611946911
38,641.4921667383929
39,641.4510086448142
40,641.4211371812801
41,641.4016361442928
42,641.3903687109544
43,641.384126439931
44,641.3789667159308
45,641.3706742607243
46,641.3552556272683
47,641.3293797253995
48,641.2907052222201
49,641.2380737182053
50,641.1715834460573
51,641.0925794561355
52,641.0035935113713
53,640.908240168743
54,640.8110390261679
55,640.7171147603568
56,640.6317487597377
57,640.5598108537132
58,640.5051520298902
59,640.4700599066081
60,640.454868110651
61,640.4577867245697
62,640.4749938545503
63,640.5009958197675
64,640.529224736886
65,640.5528032129249
66,640.5653743709045
67,640.5618816914264
68,640.5391953808712
69,640.4965139682887
70,640.4355039861368
71,640.3601671217118
72,640.2764463038508
73,640.1916043650012
74,640.1134310779197
75,640.0493551294828
76,640.0055578187737
77,639.9862037652078
78,639.992908004544
79,640.0245303477546
80,640.0773261099911
81,640.1454118060948
82,640.2214558212623
83,640.2974911016094
84,640.3657578087857
85,640.4194954549457
86,640.4536081387662
87,640.4651357546553
88,640.4534892542364
89,640.420444756497
90,640.3699290116521
91,640.3076541720935
92,640.2406574640122
93,640.176773618816
94,640.124043173242
95,640.0900598303263
96,640.081279376554
97,640.1023407241156
98,640.1554831797836
99,640.2401682590228
100,640.3530053694847
101,640.4880319350361
102,640.6373267827681
103,640.7918673332565
104,640.9425019421262
105,641.0809107535712
106,641.2004566018364
107,641.2968506739919
108,641.3685646454013
109,641.41693393228
110,641.4459358064454
111,641.4616773828373
112,641.471664844063
113,641.4839435767788
114,641.506212422166
115,641.5450222808154
116,641.6051549146923
117,641.6892395884023
118,641.7976166873702
119,641.9284133529795
120,642.0777702808972
121,642.2401616613625
122,642.4087742647004
123,642.5759349516425
124,642.7335857569246
125,642.8738030439017
126,642.9893440619263
127,643.0741848918523
128,643.1240003248485
129,643.1365389539795
130,643.1118633989813
131,643.0524433254398
132,642.9630940164599
133,642.8507459220713
134,642.7240309921616
135,642.5926947296355
136,642.4668736009263
137,642.3562931958331
138,642.2694484861718
139,642.2128421577312
140,642.1903763575868
141,642.2029947144615
142,642.2486455637279
143,642.3225930779226
144,642.4180461201398
145,642.5270065292722
146,642.6411807123292
147,642.7527878904297
148,642.8551479014051
149,642.9430117456521
150,643.0126634396765
151,643.0618458666613
152,643.0895570979294
153,643.0957611318249
154,643.0810731076411
155,643.0464926679994
156,642.9932453295048
157,642.9227483238564
158,642.8366616186142
159,642.7369477411276
160,642.6258745961608
161,642.5059482730142
162,642.379815664736
163,642.2501927157064
164,642.1198523737856
165,641.9916686522502
166,641.868680659563
167,641.75412506791
168,641.6513879474959
169,641.5638415783842
170,641.4945582102177
171,641.4459316105722
172,641.4192787279004
173,641.4145198441946
174,641.4300291069071
175,641.462702831547
176,641.5082316196678
177,641.5615214700837
178,641.6172023809598
179,641.670168621315
180,641.7160900076468
181,641.7518217932109
182,641.775642537876
183,641.787278095483
184,641.7877182960078
185,641.7788770337614
186,641.76316795825
187,641.7430705165737
188,641.7207588478783
189,641.69786121091
190,641.675397191738
191,641.6538940384421
192,641.6336255444514
193,641.6148795999612
194,641.5981664380282
195,641.5843225978194
196,641.5745193998075
197,641.570216769505
198,641.5730928073714
199,641.5849412035628
200,641.6075044751534
201,641.6422268342669
202,641.6899536721091
203,641.7506450918227
204,641.8231860650002
205,641.9053572033495
206,641.9939841385855
207,642.0852308228949
208,642.1749688960825
209,642.2591552610561
210,642.3341718911505
211,642.3971007790668
212,642.4459104558769
213,642.4795282207796
214,642.4977823408466
215,642.5012297545042
216,642.4909243127662
217,642.4682011768095
218,642.4345409535683
219,642.3915435983718
220,642.3410028022477
221,642.2850337365876
222,642.2261823054179
223,642.167449955899
224,642.1122019008292
225,642.0639608333996
226,642.0261059408225
227,642.0015073329054
228,641.992138477758
229,641.9987220012158
230,642.0204745096634
231,642.0550165797183
232,642.0984914613358
233,642.1458921383548
234,642.1915527722437
235,642.229734977743
236,642.2552330917756
237,642.2639294261393
238,642.253244745275
239,642.2224446565499
240,642.1727723439889
241,642.1073830590661
242,642.0310691670223
243,641.9497938066932
244,641.8700828671984
245,641.7983433905015
246,641.7401845661891
247,641.6998240676128
248,641.6796640216354
249,641.680104272535
250,641.6996174330999
251,641.735052023212
252,641.7820894784477
253,641.835781039721
254,641.8911129626498
255,641.9435556828032
256,641.9895387746319
257,642.0267849880513
258,642.0544520528126
259,642.0730680511956
260,642.0842926427302
261,642.0905736001926
262,642.0947781466116
263,642.0998603220171
264,642.1085939693365
265,642.1233701122309
266,642.1460362972593
267,642.1777529752214
268,642.2188600587463
269,642.2687701755718
270,642.3259164580204
271,642.3877837295271
272,642.45105227684
273,642.5118755166001
274,642.5662830299041
275,642.6106590057601
276,642.6422207773826
277,642.6594231830524
278,642.6622283274263
279,642.6521943600317
280,642.6323540276594
281,642.606881462518
282,642.5805806067436
283,642.558259344131
284,642.5440747625576
285,642.5409487293218
286,642.5501552423437
287,642.571161726457
288,642.6017616249063
289,642.6384768368652
290,642.677156060831
291,642.7136597696797
292,642.7445056283289
293,642.7673586233076
294,642.7812968466673
295,642.786848074058
296,642.7858356917601
297,642.7810787575022
298,642.7759799146343
299,642.7740333168283
300,642.778299555363
301,642.7909156762701
302,642.8127207144661
303,642.8430667177877
304,642.8798480422145
305,642.9197349449831
306,642.958567313245
307,642.9918547969195
308,643.0153226128466
309,643.0254312392
310,643.0197964181476
311,642.9974536678916
312,642.9589440778915
313,642.9062298461557
314,642.842464216613
315,642.7716434474685
316,642.6981735626182
317,642.6263967573033
318,642.5601308506192
319,642.5022723559168
320,642.4545022886683
321,642.4171192988734
322,642.3890106381983
323,642.367758953262
324,642.3498699639583
325,642.3310898244625
326,642.3067652278032
327,642.2721968447801
328,642.2229551411887
329,642.1551573861176
330,642.0657257688907
331,641.9526442246748
332,641.815208621994
333,641.6542410347017
334,641.4722307576765
335,641.2733695705626
336,641.0634532962506
337,640.8496247130256
338,640.639948034224
339,640.4428399998027
340,640.2664226942632
341,640.1178844269384
342,640.0029278017745
343,639.9253583895054
344,639.8868381303555
345,639.8868036689436
346,639.9225348279673
347,639.9893534565937
348,640.0809354247898
349,640.1897216665418
350,640.3074116755158
351,640.4255141990793
352,640.5359177990815
353,640.6314324402438
354,640.7062498303527
355,640.7562803807809
356,640.7793439273232
357,640.7752122280639
358,640.7455204906032
359,640.6935761509533
360,640.6240874905783
361,640.5428188402749
362,640.4561700146667
363,640.3706816692596
364,640.2924830709447
365,640.2267260980856
366,640.1770852359382
367,640.145426065379
368,640.1317295917675
369,640.1343016947684
370,640.150215062468
371,640.1758595577479
372,640.2074508531111
373,640.2413823455881
374,640.2743859546266
375,640.3035515954666
376,640.3263005700011
377,640.3404000321325
378,640.3440623403008
379,640.336124499939
380,640.3162681243115
381,640.2852237849277
382,640.2449015174781
383,640.198395155455
384,640.1498204190372
385,640.1039730245446
386,640.065837864175
387,640.0400277585
388,640.0302548721556
389,640.0389302783179
390,640.0669541547371
391,640.1137048461421
392,640.1771693002253
393,640.2541179659268
394,640.3402545929353
395,640.4303518512656
396,640.5184513714244
397,640.598210111893
398,640.663419839451
399,640.7086574507407
400,640.7299790369962
401,640.7255532995205
402,640.6961230554016
403,640.645187997151
404,640.578837305795
405,640.505227540222
406,640.433771323631
407,640.3741501104022
408,640.3352824762061
409,640.3243687241784
410,640.3461004096802
411,640.4020913973402
412,640.4905782115081
413,640.6064467266647
414,640.7416367165707
415,640.8859302899706
416,641.028053224337
417,641.1569420080139
418,641.2629846281096
419,641.3390446776527
420,641.3811263407023
421,641.3886176181261
422,641.3641320350844
423,641.3130271197073
424,641.2427002186214
425,641.1617545192777
426,641.0791063061571
427,641.0030908578051
428,640.9406369631125
429,640.8966109263823
430,640.873443258589
431,640.8711142448626
432,640.887498172374
433,640.9189897053111
434,640.9612909533627
435,641.0102259839224
436,641.0624530695097
437,641.1159550896751
438,641.1702180938761
439,641.2260685919575
440,641.2852184452063
441,641.3496351620023
442,641.4208964142655
443,641.4996907371167
444,641.5855829073838
445,641.6770800664159
446,641.7719484094224
447,641.8676735186116
448,641.9619358681825
449,642.0529835002221
450,642.1398258608059
451,642.2222293986687
452,642.3005397680555
453,642.3753802380451
454,642.4472914591212
455,642.5163873265702
456,642.5820999124659
457,642.643073074418
458,642.6972439192542
459,642.7421224931475
460,642.7752383681267
461,642.7946757251273
462,642.7995880898796
463,642.7905868499328
464,642.7699292068069
465,642.7414733192115
466,642.7104072813709
467,642.6827888392269
468,642.6649531385102
469,642.662855033891
470,642.6814088166138
471,642.7238770187097
472,642.7913553917023
473,642.8824119548754
474,642.9929566984451
475,643.116423916349
476,643.2443160536205
477,643.3670791597114
478,643.4751851884698
479,643.5602353057536
480,643.6159010243039
481,643.638576315927
482,643.6276866102046
483,643.5856551214355
484,643.517555102495
485,643.4304942731961
486,643.3328004897695
487,643.2331050213598
488,643.1394380894744
489,643.0584449168852
490,642.9947955534175
491,642.9508173739847
492,642.926353464483
493,642.9188492479135
494,642.9236731638781
495,642.9346647158319
496,642.9448743521112
497,642.9474281645232
498,642.9364270818801
499,642.9077740005333
500,642.8598102354239
501,642.7936460318368
502,642.7131078533254
503,642.6242983133598
504,642.5348430742415
505,642.4529482416928
506,642.3864059833677
507,642.3416811746586
508,642.3231938855714
509,642.3328775485692
510,642.3700485003185
511,642.4315850061686
512,642.5123861798747
513,642.6060535429358
514,642.7057042231917
515,642.8047953390818
516,642.8978345307414
517,642.9808805242485
518,643.0517865511325
519,643.1101882603789
520,643.1572768676989
521,643.1954274922668
522,643.227768668225
523,643.2577710675124
524,643.2888986190454
525,643.3243227921212
526,643.3666770454099
527,643.4178309288461
528,643.47868128207
529,643.5489795570345
530,643.627233021771
531,643.7107263636686
532,643.7956997768065
533,643.877686318092
534,643.9519630468179
535,644.0140281561315
536,644.0600076798971
537,644.0869307857542
538,644.0928684670847
539,644.0769714581209
540,644.0394539526937
541,643.9815562723628
542,643.9054953393384
543,643.8143889104547
544,643.712128490337
545,643.6031818785458
546,643.4923228020573
547,643.384301587463
548,643.2834871141005
549,643.1935283483551
550,643.1170929731712
551,643.0557269372223
552,643.0098431935764
553,642.9788083996021
554,642.9610759932524
555,642.9543262911249
556,642.9556111390957
557,642.9615349317348
558,642.9685079958053
559,642.973077219368
560,642.9722945812264
561,642.9640563522125
562,642.9473479508864
563,642.9223563991685
564,642.8904472793012
565,642.8540264957536
566,642.8163089514819
567,642.7810030187379
568,642.7519091297719
569,642.7324404759129
570,642.7251064962447
571,642.7310363418217
572,642.7496351871769
573,642.7784545878644
574,642.8133298204592
575,642.8488000963634
576,642.8787774104211
577,642.8973681741335
578,642.899704407893
579,642.8826357681802
580,642.8451644145578
581,642.7885480495821
582,642.7160489124993
583,642.6323740454836
584,642.5429187175359
585,642.4529624910472
586,642.3669644181267
587,642.2880694212121
588,642.2178895768095
589,642.1565726706816
590,642.1031146823183
591,642.055815320293
592,642.0127386703309
593,641.9720526955012
594,641.9321878365203
595,641.8918476922686
596,641.8499723772843
597,641.8057583340764
598,641.7587815916947
599,641.7091949520122
600,641.6579148220393
601,641.6067030043481
602,641.5580819670897
603,641.5150741066811
604,641.4807949607565
605,641.4579504097193
606,641.4483074775087
607,641.4522368994986
608,641.4684444684932
609,641.4939903297995
610,641.5246315983512
611,641.5554327196201
612,641.5815109451399
613,641.5987594872671
614,641.6044228560971
615,641.5974536808646
616,641.5786211277526
617,641.5503649715221
618,641.5164169552519
619,641.4812470751293
620,641.4494193454208
621,641.4249476531901
622,641.4107339331713
623,641.4081567027162
624,641.4168576718187
625,641.4347469369638
626,641.4582201704985
627,641.4825633477425
628,641.5025124174783
629,641.5129266502951
630,641.5095158258883
631,641.4895352916149
632,641.452339070071
633,641.399671988845
634,641.3356033454438
635,641.266067020906
636,641.198065415248
637,641.138685105992
638,641.0941220011052
639,641.0689017834284
640,641.0654214538491
641,641.083862408746
642,641.122454668238
643,641.1780095370794
644,641.2465901092829
645,641.3241693261178
646,641.4071433780243
647,641.4926167615579
648,641.5784336441425
649,641.6629836929793
650,641.7448586631191
651,641.8224771104177
652,641.8938124545774
653,641.9563344137837
654,642.0072058021857
655,642.0436956835961
656,642.0637119681771
657,642.0663318143537
658,642.0522057563103
659,642.023729054309
660,641.9849206756685
661,641.9410214750699
662,641.8978885459969
663,641.8612946533343
664,641.8362428039623
665,641.8263957479356
666,641.8337051262442
667,641.8582990561188
668,641.8986468816406
669,641.9519685847346
670,642.0148050108718
671,642.0836336774514
672,642.1554174636134
673,642.2280033850489
674,642.3003268975036
675,642.372408782094
676,642.4451545834469
677,642.5199895722881
678,642.598389360945
679,642.681387148515
680,642.7691418868707
681,642.8606366644685
682,642.9535483494283
683,643.0443008133358
684,643.1283007911643
685,643.200352875565
686,643.2552338636451
687,643.2883673567571
688,643.2964977360218
689,643.2782455301891
690,643.2344417709568
691,643.1681770269382
692,643.0845496118654
693,642.9901478424276
694,642.8923419364867
695,642.7984835483501
696,642.7151161692015
697,642.6472945974684
698,642.5980977160624
699,642.5683889698888
700,642.5568329407441
701,642.560131025275
702,642.5734140499166
703,642.5907311101047
704,642.6055945212225
705,642.6115603298388
706,642.6028197738764
707,642.5747512294259
708,642.5243642117129
709,642.4505779216203
710,642.354306249056
711,642.2383485031212
712,642.1071028599309
713,641.9661286785548
714,641.8215884488944
715,641.6796117850874
716,641.5456503794456
717,641.423919275268
718,641.3170197890007
719,641.2258021484716
720,641.1494648302752
721,641.085833122103
722,641.0317396535668
723,640.9834446300728
724,640.9370559016166
725,640.8889160663712
726,640.8359209534973
727,640.7757409586285
728,640.7069389035242
729,640.6290007994214
730,640.5423046807082
731,640.448046481688
732,640.348130251151
733,640.2450226613726
734,640.1415699415872
735,640.0407770409369
736,639.9455616673442
737,639.8585271784433
738,639.7818280123743
739,639.7171881196878
740,639.6660642560012
741,639.6298657382162
742,639.6101089796578
743,639.6084177313413
744,639.6263548348838
745,639.6651491208823
746,639.7254232619948
747,639.8070138208441
748,639.9089185786819
749,640.0293482301515
750,640.1658292338019
751,640.3153073228343
752,640.4742270402733
753,640.6385939506282
754,640.8040437945234
755,640.9659377799682
756,641.1194840998276
757,641.2598738908057
758,641.3824295142025
759,641.4827849356209
760,641.5571278002561
761,641.602514778255
762,641.6172312755898
763,641.601125725692
764,641.5558335828737
765,641.4848321695082
766,641.3933230213737
767,641.2879844433402
768,641.1766397032535
769,641.067852157508
770,640.9704283044109
771,640.8928154428593
772,640.8424153114778
773,640.8248691036556
774,640.8433907881279
775,640.8982458017683
776,640.9864890707855
777,641.1020637876965
778,641.2363036856302
779,641.3787943617729
780,641.5184720629088
781,641.6448012027116
782,641.7488772212707
783,641.8243280318864
784,641.8679125513651
785,641.8797366360276
786,641.8630450075451
787,641.8236184162915
788,641.7688921057694
789,641.7069720461591
790,641.6457284107972
791,641.592097363076
792,641.5516506594512
793,641.5284189958711
794,641.5248929319818
795,641.5420986156639
796,641.5796726335853
797,641.635920452857
798,641.7078949133029
799,641.7915551519591
800,641.8820585542604
801,641.9741949874116
802,642.0629099448611
803,642.143824035264
804,642.2136675946567
805,642.2705915580468
806,642.3143477366109
807,642.3463359426443
808,642.3695109849144
809,642.3881521676446
810,642.4075145895614
811,642.433383512813
812,642.4715445950568
813,642.5271913121586
814,642.6043215463571
815,642.705198625522
816,642.8299462498993
817,642.9763248710369
818,643.1397222587278
819,643.3133874390701
820,643.4889333930581
821,643.6571118391125
822,643.8088063846217
823,643.9361078920067
824,644.033274672542
825,644.0973851766706
826,644.1285633950577
827,644.1297617120539
828,644.1061833699904
829,644.0644913041143
830,644.0119708585153
831,643.9557928995338
832,643.9024724426617
833,643.8575533476654
834,643.825493096386
835,643.8096894668596
836,643.8125830121958
837,643.8357719438014
838,643.8800806009305
839,643.945536356184
840,644.0312409964257
841,644.1351636040839
842,644.2539170192474
843,644.3826012243788
844,644.5148010708751
845,644.6428064707674
846,644.758079664938
847,644.8519379602553
848,644.9163684961037
849,644.9448588568301
850,644.9331225850374
851,644.8796211673935
852,644.7858206150296
853,644.6561538091856
854,644.497687173441
855,644.3195253978644
856,644.1320300583743
857,643.945953450733
858,643.7715840131618
859,643.6179758008077
860,643.4923066620312
861,643.3993864604972
862,643.3413275057701
863,643.3173974900999
864,643.3240862317012
865,643.3554116600853
866,643.4034619055484
867,643.4591302478268
868,643.5129657380343
869,643.5560451469225
870,643.5807718741205
871,643.5815226890793
872,643.5550901784763
873,643.5008974029706
874,643.4209818515938
875,643.3197591598068
876,643.2035905218579
877,643.0801940897018
878,642.9579538076315
879,642.8451826294482
880,642.749395574888
881,642.6766494189956
882,642.6310068476921
883,642.6141780759483
884,642.6253827977524
885,642.6614560641136
886,642.7171871600392
887,642.7858406059967
888,642.8597846418885
889,642.93115525699
890,642.9925044100856
891,643.037402092428
892,643.0609697875437
893,643.0603175033415
894,643.0348489155435
895,642.9863981047496
896,642.9191664150521
897,642.839435183525
898,642.7550397449596
899,642.6746083613784
900,642.6066051431509
901,642.5582724145524
902,642.5346340807934
903,642.5377645941106
904,642.5665082837285
905,642.6167392626223
906,642.6821163239317
907,642.7551652940765
908,642.8284545051932
909,642.8956307561012
910,642.9521443647362
911,642.9955894184615
912,643.0256856146156
913,643.0439968877238
914,643.0535020552875
915,643.058111368052
916,643.0621813228091
917,643.0700429734611
