frame_number,force
0,607.7075800000642
1,608.0515258101412
2,608.3872746807012
3,608.7070276130056
4,609.0037021558225
5,609.2711201864481
6,609.5040622781553
7,609.6982384736326
8,609.850252651135
9,609.9576253439094
10,610.0189065434129
11,610.033880545164
12,610.0038398543616
13,609.9318737861546
14,609.8230823321861
15,609.6846064242628
16,609.5253848843543
17,609.3556100870387
18,609.1859308632625
19,609.0265070369084
20,608.8860453449114
21,608.7709503355237
22,608.6847098889654
23,608.627604194427
24,608.596786462888
25,608.5867369741931
26,608.5900357371522
27,608.598337776018
28,608.6033914293466
29,608.5979418457752
30,608.5764151063009
31,608.5353517036501
32,608.4736034543705
33,608.3923061655788
34,608.294620838448
35,608.1852416321478
36,608.0697094110848
37,607.9536234870432
38,607.8418854320385
39,607.7381176696496
40,607.6443650101927
41,607.5611202744224
42,607.4876413106208
43,607.4224641772818
44,607.3639781708237
45,607.3109270863717
46,607.2627399451496
47,607.2196546879059
48,607.1826548695642
49,607.1532752805493
50,607.1333422264984
51,607.124702398717
52,607.1289714502452
53,607.1473115556003
54,607.1802351964819
55,607.227433640478
56,607.28764232031
57,607.3585750512674
58,607.4369701549831
59,607.5187795471837
60,607.5994970186025
61,607.674582819269
62,607.7399189156671
63,607.792227559852
64,607.8293963392803
65,607.8506688036774
66,607.8566795364204
67,607.8493334467012
68,607.8315455131662
69,607.8068665047888
70,607.7790294827658
71,607.751470613889
72,607.7269001432726
73,607.7070062829888
74,607.6923528295808
75,607.682482217047
76,607.6761773496744
77,607.6717958427744
78,607.667589223302
79,607.6619537670914
80,607.6536029962565
81,607.6416743000675
82,607.6257751628021
83,607.605960057817
84,607.5826355000686
85,607.5564180697935
86,607.5279915045363
87,607.4980085161337
88,607.4670703111257
89,607.4357976607316
90,607.4049738134389
91,607.3756973611447
92,607.3494590614254
93,607.328070246946
94,607.3134186703119
95,607.3070935672731
96,607.3099813832168
97,607.3219584062527
98,607.3417789197124
99,607.367188987474
100,607.3952227357526
101,607.4225959535742
102,607.4461147064635
103,607.4630488571802
104,607.471449544157
105,607.4703954179291
106,607.460142313057
107,607.4421422835909
108,607.4188980030365
109,607.3936332532223
110,607.3697984936998
111,607.3504862064045
112,607.337876389918
113,607.3328408202723
114,607.3347995856307
115,607.3418603077421
116,607.3512020348344
117,607.3596120561444
118,607.3640574787444
119,607.3621742683241
120,607.3525756798476
121,607.3349162073207
122,607.3097009531675
123,607.2778978554715
124,607.2404640356797
125,607.19790997144
126,607.1499984128408
127,607.0956345942142
128,607.0329663697955
129,606.9596760081309
130,606.8734124301991
131,606.7722938062481
132,606.655403223791
133,606.5231944236787
134,606.3777255913144
135,606.2226589855348
136,606.0629976659387
137,605.9045673312786
138,605.7532980460269
139,605.6144202667014
140,605.4917330827807
141,605.3870964459702
142,605.3002473396015
143,605.228971311183
144,605.1695929136561
145,605.1176874368832
146,605.0688770615839
147,605.0195742919135
148,604.9675678174235
149,604.9123847639204
150,604.8553944979019
151,604.7996481241838
152,604.749477399527
153,604.7099044378144
154,604.6859431825295
155,604.6818998966362
156,604.7007790360414
157,604.7438658832986
158,604.810514972443
159,604.8981446556464
160,605.0024167115288
161,605.1175613455034
162,605.2368070907705
163,605.3528992043866
164,605.458714266493
165,605.5479663225905
166,605.6159479078309
167,605.6601965937339
168,605.6809634113024
169,605.6813875364458
170,605.6673308049433
171,605.6468766754537
172,605.6295430675218
173,605.6252945566556
174,605.6434641940759
175,605.6917061668855
176,605.7750989960135
177,605.8955100445305
178,606.0513143943585
179,606.237522575327
180,606.4463075330934
181,606.6678491883811
182,606.8913591604556
183,607.1061244150266
184,607.3024297056187
185,607.4722853941482
186,607.6099674859814
187,607.7124214421599
188,607.7795654272187
189,607.8144706127756
190,607.8233433243231
191,607.8152269839792
192,607.8013870947052
193,607.7944136929468
194,607.8071381064814
195,607.8514912096269
196,607.9374230023735
197,608.0719726117621
198,608.258553626336
199,608.4965202873227
200,608.7810868937644
201,609.1036508520662
202,609.4525112329629
203,609.8139073262735
204,610.1732580163334
205,610.5164689492939
206,610.8311725240193
207,611.1077645123673
208,611.3401116738307
209,611.5258430367521
210,611.6662051764479
211,611.7655417019487
212,611.8305189837228
213,611.8692411461337
214,611.890381506314
215,611.9024224644546
216,611.913050141345
217,611.9287027817827
218,611.9542441281651
219,611.9927383322193
220,612.045329957229
221,612.1112567449508
222,612.1880259750524
223,612.2717635844775
224,612.3577099964755
225,612.4408047806994
226,612.5162826574151
227,612.5801981288739
228,612.6298082678679
229,612.663771776462
230,612.6821588417155
231,612.6863017679875
232,612.6785405811033
233,612.661917811049
234,612.6398538667418
235,612.6158127255084
236,612.5929684781572
237,612.5739012180704
238,612.5603647787714
239,612.5531660721143
240,612.5521749001234
241,612.5564493665695
242,612.5644315189237
243,612.574160150827
244,612.5834639820864
245,612.5901220280629
246,612.5919960902202
247,612.5871481123747
248,612.573948932864
249,612.55117145904
250,612.5180574687978
251,612.4743557610738
252,612.4203360454401
253,612.3567832020324
254,612.2849773601981
255,612.206663990853
256,612.1240075377661
257,612.0395103485963
258,611.9558808924256
259,611.8758510223777
260,611.8019595399712
261,611.7363312610757
262,611.6804838480642
263,611.6351858477706
264,611.6003722631577
265,611.5751104597385
266,611.557611174825
267,611.5452975000999
268,611.5349599682494
269,611.5230139296011
270,611.5058390550581
271,611.4801495290513
272,611.4433347713446
273,611.3937161398474
274,611.3306764484012
275,611.2546404940806
276,611.16691755215
277,611.0694483868864
278,610.9645157498593
279,610.8544787158305
280,610.7415838867606
281,610.6278871521342
282,610.5152842114962
283,610.40560972777
284,610.3007445049753
285,610.202670616532
286,610.1134237694006
287,610.0349111412461
288,609.9686087826874
289,609.915219492082
290,609.8744122811801
291,609.8447380800168
292,609.8237408664482
293,609.808215059412
294,609.7945367769385
295,609.7790116020439
296,609.7582039920879
297,609.7292237762317
298,609.6899446068398
299,609.6391272579049
300,609.5764253599408
301,609.502266886345
302,609.417631413604
303,609.323772112578
304,609.2219431875819
305,609.1131770747259
306,608.9981291639359
307,608.8769990785989
308,608.7495477930288
309,608.6152334305268
310,608.4734657286814
311,608.323937203242
312,608.1669536415956
313,608.0036801333337
314,607.8362467223241
315,607.6677044524147
316,607.501858614149
317,607.3430126990288
318,607.1956479774635
319,607.0640681621612
320,606.9520572817538
321,606.8626009635427
322,606.7976889534575
323,606.7581769859196
324,606.7436832973368
325,606.7525354629147
326,606.7818230749242
327,606.8276057177216
328,606.8852754258336
329,606.9500167205292
330,607.0172759949762
331,607.083151424341
332,607.1446400130969
333,607.199721436052
334,607.2473010429355
335,607.2870561472208
336,607.3192281369084
337,607.3443962025104
338,607.3632687698574
339,607.3765255566037
340,607.3847237772669
341,607.3882569196926
342,607.3873466270538
343,607.3820616031979
344,607.3723710039825
345,607.358232953745
346,607.3396964828758
347,607.3169812714873
348,607.2905088731105
349,607.2608835064112
350,607.228840533039
351,607.195184525942
352,607.1607336065267
353,607.1262864723908
354,607.0926298445734
355,607.0605924506148
356,607.031128729289
357,607.0053978577179
358,606.9848014900855
359,606.9709564071287
360,606.9656033306251
361,606.9704818015889
362,606.9872140800161
363,607.017222442447
364,607.0616622808611
365,607.121321121365
366,607.1964430856866
367,607.286490606972
368,607.3899142016468
369,607.5040236480764
370,607.6250309673642
371,607.7482911240093
372,607.86872059008
373,607.9813297488373
374,608.0817665633599
375,608.1667525740778
376,608.2343158638371
377,608.2837877579761
378,608.3156040971608
379,608.3310039173052
380,608.3317290129655
381,608.3197993383591
382,608.2973897649698
383,608.2667871921024
384,608.230381729505
385,608.1906489477454
386,608.1501065468593
387,608.1112596635137
388,608.076561723497
389,608.0484034334073
390,608.0291144075376
391,608.0209416534251
392,608.0259687206728
393,608.0459592757244
394,608.08214282514
395,608.1349938880273
396,608.2040699525717
397,608.2879557403211
398,608.3843172370405
399,608.4900240998804
400,608.6012836964176
401,608.7137543085726
402,608.8226486141178
403,608.9228691450232
404,609.009219450799
405,609.0767128243058
406,609.1209628288121
407,609.1385979166839
408,609.1276188140524
409,609.0876311745832
410,609.01993060354
411,608.9274612896905
412,608.8146827130332
413,608.6873598703309
414,608.5522721499291
415,608.4168446477881
416,608.28873662643
417,608.1754388654506
418,608.0839126378532
419,608.0202638258272
420,607.989422177384
421,607.9948100345416
422,608.038028538174
423,608.1186328668346
424,608.2340808666929
425,608.3799067679272
426,608.5501061293497
427,608.7376518474318
428,608.9350249525305
429,609.1346577883477
430,609.3292491145718
431,609.5119819929437
432,609.6767040139096
433,609.8181054611268
434,609.9318945877567
435,610.0149570660136
436,610.0654950545767
437,610.0831453926511
438,610.0690645961496
439,610.0259497990249
440,609.9579551050351
441,609.8704709962708
442,609.7697599881044
443,609.6624760167612
444,609.5551254333764
445,609.4535426357004
446,609.3624485309554
447,609.285142775938
448,609.223365224625
449,609.1773485775822
450,609.1460569173407
451,609.1275592147491
452,609.1194451054952
453,609.1191791689587
454,609.1243190711598
455,609.1325821031764
456,609.1418053054496
457,609.1498727609867
458,609.1546720651919
459,609.1541156823547
460,609.1462457191207
461,609.12942910102
462,609.1026306055943
463,609.0657258861302
464,609.0197942399395
465,608.9673088768626
466,608.9121259055814
467,608.8591909283406
468,608.8139527054306
469,608.7815730244996
470,608.766103340226
471,608.7698248035812
472,608.7929041959143
473,608.8334188129519
474,608.8876974412902
475,608.9508655462292
476,609.0174804392748
477,609.0821622183884
478,609.140138169406
479,609.1876243638774
480,609.2219894402532
481,609.2416929461588
482,609.2460467801197
483,609.2348830954182
484,609.2082199849416
485,609.1660156384941
486,609.1080941685992
487,609.034290123731
488,608.9447874139188
489,608.8405517806129
490,608.7237176583168
491,608.5978114285854
492,608.4677528344644
493,608.3396312553182
494,608.2202815794157
495,608.1166972330149
496,608.0353318769494
497,607.9813593352876
498,607.9579805954115
499,607.9658820686946
500,608.0029508333685
501,608.0643286972902
502,608.1428295917173
503,608.2296628194867
504,608.3153356500885
505,608.390591609918
506,608.4472699591008
507,608.4790080560804
508,608.4817310664554
509,608.4538920188539
510,608.3964507968777
511,608.3126129921665
512,608.2073792566358
513,608.0869726861551
514,607.9582177456729
515,607.8279471847172
516,607.7025073031132
517,607.5874056722461
518,607.487107684215
519,607.4049612114159
520,607.3432200441147
521,607.3031342443434
522,607.2850694052444
523,607.2886173235248
524,607.3126801011366
525,607.3555372900499
526,607.414918991762
527,607.4881006652578
528,607.5720200898614
529,607.6634078645968
530,607.7589235575144
531,607.8552924492828
532,607.9494361065019
533,608.0385886110333
534,608.1203993941965
535,608.1930402369115
536,608.2553347303211
537,608.3068957585211
538,608.3482098446602
539,608.3805890130242
540,608.405942000796
541,608.4263807736462
542,608.4437425651231
543,608.4591425653156
544,608.4726646879002
545,608.4832619668766
546,608.4888984660207
547,608.4869217102429
548,608.4745983501555
549,608.4496979962091
550,608.411012459056
551,608.3587503031983
552,608.2947965320881
553,608.2228292241956
554,608.1482535037582
555,608.0778995128331
556,608.0194615318072
557,607.9807107013846
558,607.9685650295298
559,607.9881413193734
560,608.0419430492692
561,608.129336335102
562,608.2464194251427
563,608.3863218970503
564,608.5399087547886
565,608.6968113728163
566,608.8466469209405
567,608.980234172855
568,609.0906002035946
569,609.1736113714525
570,609.2281383387508
571,609.2557605135523
572,609.2601101173525
573,609.2460200106511
574,609.2186476712812
575,609.1827057040222
576,609.141873841712
577,609.0984354488347
578,609.0531733096699
579,609.0055407365616
580,608.9540716649019
581,608.8969310061681
582,608.8324787330502
583,608.7597383619185
584,608.6786958325653
585,608.5903907684173
586,608.4968051012964
587,608.4006046010572
588,608.3048269504803
589,608.212611224264
590,608.1270207044541
591,608.0509461882526
592,607.9870325403264
593,607.9375760295662
594,607.9043844019661
595,607.8886377016929
596,607.8908017282711
597,607.910625100853
598,607.947220656644
599,607.9992123477691
600,608.0649151323793
601,608.1425002745675
602,608.2300945516056
603,608.3257853741309
604,608.427546447127
605,608.5331321944371
606,608.6399964287764
607,608.7452762300438
608,608.8458574514234
609,608.9385132520476
610,609.0200898141201
611,609.0877095424114
612,609.1389692718637
613,609.1721178036407
614,609.1861933197563
615,609.1810917162767
616,609.1575400001375
617,609.1169764312779
618,609.061376305518
619,608.993078099071
620,608.9146472352406
621,608.8287837738711
622,608.7382602428202
623,608.6458716261683
624,608.5543849412046
625,608.4664855198538
626,608.384721888727
627,608.3114434093991
628,608.248716345024
629,608.1982142739869
630,608.1611029185483
631,608.1379516554123
632,608.1286912778061
633,608.1326120214411
634,608.148379662654
635,608.1740563429632
636,608.2071404915517
637,608.2446571332517
638,608.2833150542994
639,608.3197189260896
640,608.3506169669757
641,608.3731822269842
642,608.3853359140564
643,608.3860920374123
644,608.3758418120399
645,608.3564573368268
646,608.331126489205
647,608.303922394004
648,608.2791994599396
649,608.2609484571103
650,608.2522370258403
651,608.254830456703
652,608.2690425880113
653,608.2938152773801
654,608.3269812424512
655,608.3656460202493
656,608.4066319487537
657,608.4469360516939
658,608.4841413349013
659,608.5167063718993
660,608.544082143512
661,608.5666640780673
662,608.5856283866183
663,608.6026948771157
664,608.6198316455699
665,608.6389112863855
666,608.6613490770435
667,608.6877780356907
668,608.7178235718824
669,608.7500303499903
670,608.7819748830982
671,608.8105684968752
672,608.832508530373
673,608.8447814635557
674,608.8450946452824
675,608.8321384282877
676,608.8056412956734
677,608.7662365981645
678,608.7151938097479
679,608.654092939156
680,608.5845400175639
681,608.5080104548117
682,608.4258563759356
683,608.339454558356
684,608.2504359748141
685,608.1609243378412
686,608.0737040766069
687,607.9922413367697
688,607.9205093694875
689,607.8626214866832
690,607.8223302292988
691,607.8024867155807
692,607.8045577780201
693,607.8282791423605
694,607.8715034522156
695,607.9302915948397
696,607.9992741768214
697,608.0722587459691
698,608.1429944281647
699,608.2059625914898
700,608.2570557539567
701,608.2940341696113
702,608.3166986615159
703,608.3267700150898
704,608.3275046077952
705,608.3231057722201
706,608.3180186546773
707,608.3162171578949
708,608.3205920951215
709,608.3325293499704
710,608.3517360541416
711,608.376335193198
712,608.4032015714122
713,608.4284635862091
714,608.4480671983104
715,608.4583032197642
716,608.4562295063702
717,608.4399608132763
718,608.408837907765
719,608.363508061354
720,608.3059349164638
721,608.2393157513831
722,608.1678620139836
723,608.0964303158173
724,608.0300561639543
725,607.9734849786137
726,607.9307832079824
727,607.905067717291
728,607.8983562021532
729,607.9115342253226
730,607.9444392199413
731,607.9960499283102
732,608.064736405529
733,608.1485020440572
734,608.2451671833904
735,608.352493326001
736,608.4682849845556
737,608.5905038842831
738,608.7173942468485
739,608.8475778047928
740,608.9800617204055
741,609.1141202573365
742,609.2490503533214
743,609.3838465576662
744,609.5168799451152
745,609.6456847390698
746,609.7669435265059
747,609.8767174590029
748,609.9709027580545
749,610.0458265653333
750,610.098848907318
751,610.1288352092649
752,610.1364032511709
753,610.1239056596555
754,610.0951632229562
755,610.0550088425507
756,610.0087327663081
757,609.9615292516469
758,609.9180279420464
759,609.8819557601964
760,609.855937433241
761,609.8414250958223
762,609.8387443744818
763,609.8472323966535
764,609.8654197221393
765,609.891200222867
766,609.9219577213564
767,609.9546591770036
768,609.9859559320677
769,610.0123454400501
770,610.0304281424156
771,610.0372456165165
772,610.030632026105
773,610.0094898573517
774,609.9739243533305
775,609.9252178352635
776,609.8656670016709
777,609.7983258794836
778,609.7266946791877
779,609.6543830424657
780,609.5847638212232
781,609.5206255689047
782,609.4638397965036
783,609.4150848813453
784,609.3736873714499
785,609.3376283575196
786,609.3037283692317
787,609.2679974396877
788,609.2261221657219
789,609.1740432436491
790,609.1085530791561
791,609.0278265564633
792,608.9317955322925
793,608.8222919202631
794,608.7029223980352
795,608.5786941461377
796,608.4554607106994
797,608.3392823259065
798,608.2357992875773
799,608.1497077809688
800,608.0844059173971
801,608.0418430402386
802,608.0225588741082
803,608.0258519880869
804,608.0499950784642
805,608.092434705395
806,608.1499581607701
807,608.2188443128381
808,608.2950209384063
809,608.3742399683296
810,608.4522741088525
811,608.5251363017902
812,608.5893152444065
813,608.6420038580513
814,608.6812886693111
815,608.7062759126678
816,608.7171445746473
817,608.7151237875518
818,608.7023927749124
819,608.6819077972551
820,608.6571762728959
821,608.6320115139899
822,608.6102967948412
823,608.5957619472658
824,608.591749004929
825,608.6009485639098
826,608.6251324271492
827,608.6649494808829
828,608.7198447448724
829,608.7881098176932
830,608.8670212308829
831,608.9530095636344
832,609.0418285534415
833,609.1287318915648
834,609.2086864520695
835,609.2766471734526
836,609.3279029260312
837,609.3584853464475
838,609.3656138043722
839,609.3481298726236
840,609.3068621524515
841,609.2448616002297
842,609.1674530193488
843,609.0820569975125
844,608.9977557711894
845,608.9246128868098
846,608.8728034264601
847,608.8516524816756
848,608.8686992882028
849,608.9288973572066
850,609.0340344601434
851,609.1824245020047
852,609.3688938880109
853,609.5850574347631
854,609.8198549020514
855,610.0603045616456
856,610.2924249974251
857,610.5022742592582
858,610.6770512667897
859,610.806192401164
860,610.8823719604518
861,610.9022900828362
862,610.8671313779611
863,610.7826118812104
864,610.6585866274211
865,610.5082507900677
866,610.3470278447645
867,610.1912840319357
868,610.0570190932186
869,609.9586557162148
870,609.9080039656296
871,609.9134375536983
872,609.9793003795077
873,610.1055601840117
874,610.2877243574169
875,610.517022700533
876,610.780857272469
877,611.0635312508208
878,611.347274211532
879,611.6135461128259
880,611.8445289075129
881,612.0246429799922
882,612.1418912183294
883,612.1888461427236
884,612.1631502858711
885,612.0674871475937
886,611.9090773698216
887,611.698825691281
888,611.4502603920395
889,611.1783770250682
890,610.8984618120376
891,610.6249572363595
892,610.3704420581807
893,610.1448138375658
894,609.9547657915637
895,609.8036220109153
896,609.6915303261964
897,609.6159346081
898,609.5721985836062
899,609.5542597944639
900,609.5552475427301
901,609.5680563580543
902,609.5858811226601
903,609.6026920209663
904,609.6135959210227
905,609.6150306646584
906,609.6047746875474
907,609.5818025217942
908,609.5460469508488
909,609.4981263405649
910,609.4390679268906
911,609.3700307687863
912,609.2920332703969
913,609.2057170994589
914,609.1111998905487
915,609.0080615396712
916,608.8954813847296
917,608.7725140358558
