frame_number,force
0,743.2528942599715
1,743.2663691674043
2,743.2783532218192
3,743.2888079781218
4,743.2976957721291
5,743.304980045752
6,743.3106256839801
7,743.3145993615302
8,743.3168698959834
9,743.3174086030472
10,743.3161896482919
11,743.3131903885519
12,743.3083916956218
13,743.3017782552377
14,743.2933388355627
15,743.2830665212756
16,743.2709589114805
17,743.2570182812293
18,743.2412517066597
19,743.2236711528528
20,743.204293522826
21,743.1831406667043
22,743.1602393518347
23,743.1356211964077
24,743.1093225702488
25,743.0813844667663
26,743.0518523500879
27,743.0207759815734
28,742.9882092298777
29,742.9542098678339
30,742.918839357419
31,742.8821626217872
32,742.8442478019301
33,742.8051659953685
34,742.7649909750252
35,742.7237988877342
36,742.6816679337907
37,742.6386780313863
38,742.5949104717621
39,742.5504475715557
40,742.5053723283233
41,742.4597680843123
42,742.413718202476
43,742.3673057573693
44,742.3206132422265
45,742.2737222927501
46,742.2267134279776
47,742.1796658087553
48,742.1326570144432
49,742.0857628383892
50,742.0390571025315
51,741.9926114913192
52,741.9464954048415
53,741.9007758304991
54,741.8555172317369
55,741.8107814514036
56,741.7666276266391
57,741.72311211248
58,741.6802884127636
59,741.6382071186432
60,741.5969158562528
61,741.5564592456395
62,741.5168788731523
63,741.478213279055
64,741.4404979614582
65,741.4037653972711
66,741.3680450808762
67,741.3333635813082
68,741.2997446186346
69,741.2672091597829
70,741.23577553303
71,741.2054595589685
72,741.1762746946725
73,741.1482321874281
74,741.1213412344268
75,741.0956091446355
76,741.0710414984509
77,741.0476423000625
78,741.0254141170003
79,741.004358201181
80,740.9844745860571
81,740.9657621555098
82,740.9482186819034
83,740.9318408327255
84,740.9166241470589
85,740.9025629845975
86,740.8896504509605
87,740.8778783036571
88,740.867236843191
89,740.8577147938005
90,740.8492991787547
91,740.8419751961944
92,740.835726102509
93,740.8305331102889
94,740.8263753070261
95,740.8232295995932
96,740.8210706883385
97,740.8198710731695
98,740.8196010921604
99,740.8202289912808
100,740.8217210223266
101,740.8240415655646
102,740.8271532740342
103,740.8310172374742
104,740.8355931649804
105,740.8408395864552
106,740.846714073269
107,740.8531734777883
108,740.8601741894307
109,740.8676724023876
110,740.875624388134
111,740.8839867651482
112,740.8927167592063
113,740.901772449755
114,740.9111130001451
115,740.9206988712742
116,740.9304920194522
117,740.9404560802351
118,740.9505565404316
119,740.9607609004636
120,740.971038828774
121,740.9813623088911
122,740.9917057779784
123,741.0020462535904
124,741.0123634434954
125,741.0226398323027
126,741.0328607385308
127,741.043014336625
128,741.05309163989
129,741.0630864415782
130,741.0729952119931
131,741.082816949893
132,741.0925529879238
133,741.102206754715
134,741.1117834995476
135,741.1212899876683
136,741.1307341750221
137,741.14012487111
138,741.1494713984212
139,741.1587832563393
140,741.1680697962943
141,741.1773399133939
142,741.186601758246
143,741.1958624712325
144,741.2051279400844
145,741.2144025804398
146,741.223689138406
147,741.2329885138579
148,741.2422996031365
149,741.2516191599841
150,741.2609416739738
151,741.2702592662099
152,741.279561602579
153,741.2888358253765
154,741.2980665045837
155,741.3072356100088
156,741.3163225048283
157,741.3253039602931
158,741.3341541911876
159,741.3428449122871
160,741.3513454171408
161,741.359622681391
162,741.3676414929904
163,741.3753646111717
164,741.3827529553323
165,741.3897658244779
166,741.3963611474506
167,741.4024957635845
168,741.4081257325909
169,741.4132066715808
170,741.417694116365
171,741.4215439034701
172,741.4247125685963
173,741.4271577567132
174,741.4288386391169
175,741.4297163336653
176,741.429754325344
177,741.4289188842963
178,741.4271794773118
179,741.4245091673154
180,741.420884994576
181,741.4162883334227
182,741.4107052188816
183,741.4041266384073
184,741.3965487846599
185,741.3879732662427
186,741.3784072744852
187,741.3678637054826
188,741.3563612374842
189,741.3439243642916
190,741.3305833855503
191,741.3163743546468
192,741.3013389846387
193,741.2855245126153
194,741.2689835231328
195,741.2517737315226
196,741.2339577276418
197,741.215602680195
198,741.1967800015691
199,741.1775649734386
200,741.1580363341303
201,741.1382758297124
202,741.1183677318633
203,741.0983983267816
204,741.0784553809676
205,741.0586275916914
206,741.0390040319478
207,741.019673600943
208,741.0007244912117
209,740.9822436823449
210,740.9643164694581
211,740.9470260323473
212,740.9304530489466
213,740.9146753544583
214,740.8997676456746
215,740.8858012286477
216,740.8728438070161
217,740.8609593080824
218,740.8502077438674
219,740.840645104157
220,740.832323277511
221,740.8252899946697
222,740.819588787601
223,740.8152589570078
224,740.8123355414008
225,740.8108492816986
226,740.8108265767589
227,740.8122894271281
228,740.8152553662616
229,740.819737380171
230,740.8257438176764
231,740.8332782942434
232,740.8423395929882
233,740.8529215669918
234,740.865013047364
235,740.8785977611077
236,740.8936542615327
237,740.9101558721048
238,740.9280706430218
239,740.9473613192876
240,740.9679853197109
241,740.9898947273392
242,741.0130362924832
243,741.0373514495594
244,741.062776349071
245,741.0892419067152
246,741.1166738730337
247,741.1449929289878
248,741.1741148147426
249,741.2039505000662
250,741.2344064045986
251,741.2653846748841
252,741.2967835229882
253,741.3284976293194
254,741.3604186101794
255,741.3924355484053
256,741.4244355831134
257,741.456304552385
258,741.4879276812845
259,741.5191903068503
260,741.5499786311374
261,741.5801804929494
262,741.6096861487937
263,741.6383890537389
264,741.6661866328484
265,741.6929810335955
266,741.7186798492002
267,741.7431968021989
268,741.7664523767979
269,741.7883743878925
270,741.8088984745725
271,741.8279685068514
272,741.8455368962309
273,741.8615648032078
274,741.8760222375897
275,741.888888050197
276,741.9001498170659
277,741.9098036196211
278,741.9178537264384
279,741.9243121839655
280,741.929198324684
281,741.9325382018245
282,741.9343639606346
283,741.9347131576627
284,741.9336280407832
285,741.9311548026084
286,741.9273428185974
287,741.9222438797837
288,741.915911429611
289,741.9083998148027
290,741.8997635605903
291,741.8900566804103
292,741.8793320294302
293,741.8676407100609
294,741.8550315356384
295,741.8415505559271
296,741.8272406460115
297,741.812141159249
298,741.7962876450389
299,741.7797116325036
300,741.762440481258
301,741.7444973000518
302,741.725900933175
303,741.7066660135862
304,741.6868030815428
305,741.6663187681761
306,741.6452160439649
307,741.6234945316313
308,741.6011508819334
309,741.5781792099478
310,741.5545715887317
311,741.5303185962745
312,741.5054099102889
313,741.4798349441808
314,741.4535835169918
315,741.426646550178
316,741.3990167840609
317,741.3706895059075
318,741.3416632796235
319,741.311940664581
320,741.2815289093403
321,741.2504406059451
322,741.218694292154
323,741.1863149915873
324,741.1533346844326
325,741.1197927037275
326,741.0857360541844
327,741.051219651791
328,741.0163064826435
329,740.9810676786877
330,740.9455825070193
331,740.9099382692048
332,740.8742301082536
333,740.8385607228629
334,740.8030399904386
335,740.7677845017209
336,740.7329170108994
337,740.6985658062182
338,740.664864007057
339,740.6319487940574
340,740.5999605791552
341,740.5690421227554
342,740.5393376059733
343,740.5109916667741
344,740.484148409807
345,740.4589504008095
346,740.4355376577331
347,740.4140466517352
348,740.3946093310047
349,740.3773521788977
350,740.3623953159915
351,740.3498516542351
352,740.3398261103699
353,740.3324148849374
354,740.3277048122336
355,740.3257727852746
356,740.3266852581706
357,740.3304978269955
358,740.3372548900709
359,740.3469893893878
360,740.3597226354582
361,740.3754642172017
362,740.3942119965436
363,740.4159521849823
364,740.4406594972315
365,740.4682973754451
366,740.4988182765011
367,740.5321640145781
368,740.5682661521007
369,740.6070464336864
370,740.6484172589727
371,740.6922821904952
372,740.738536492311
373,740.7870676941268
374,740.8377561746015
375,740.8904757568959
376,740.9450943101874
377,741.0014743528476
378,741.0594736555774
379,741.1189458451256
380,741.1797410105914
381,741.2417063145446
382,741.304686610568
383,741.3685250678991
384,741.4330638030024
385,741.4981445171882
386,741.5636091386039
387,741.6293004658396
388,741.6950628088891
389,741.7607426213011
390,741.8261891156344
391,741.8912548538184
392,741.9557963051936
393,742.0196743671544
394,742.082754845389
395,742.1449088922811
396,742.2060134032987
397,742.2659513723496
398,742.3246122080737
399,742.3818920138534
400,742.4376938350113
401,742.4919278771112
402,742.5445116990554
403,742.5953703834471
404,742.6444366847693
405,742.6916511541066
406,742.7369622379074
407,742.7803263476112
408,742.8217078966533
409,742.8610793014217
410,742.8984209431641
411,742.9337210884942
412,742.9669757669419
413,742.9981886048341
414,743.0273706155779
415,743.0545399469711
416,743.0797215863756
417,743.1029470246978
418,743.1242538806551
419,743.1436854880134
420,743.1612904498879
421,743.1771221650979
422,743.1912383315921
423,743.2037004313382
424,743.2145732003005
425,743.2239240867044
426,743.2318227008872
427,743.2383402604651
428,743.2435490349277
429,743.2475217939519
430,743.2503312640229
431,743.2520495987524
432,743.252747869368
433,743.2524955822789
434,743.2513602297713
435,743.2494068782805
436,743.2466977976405
437,743.2432921349741
438,743.2392456378427
439,743.2346104316817
440,743.2294348559469
441,743.2237633623446
442,743.2176364774074
443,743.2110908301612
444,743.20415924344
445,743.1968708848235
446,743.1892514707035
447,743.1813235150055
448,743.1731066128483
449,743.1646177489234
450,743.1558716204956
451,743.1468809655577
452,743.1376568875847
453,743.1282091692195
454,743.118546568071
455,743.108677089015
456,743.0986082290624
457,743.0883471927044
458,743.0779010773472
459,743.0672770298485
460,743.0564823760208
461,743.0455247251818
462,743.0344120516975
463,743.0231527551123
464,743.0117556998661
465,743.0002302350653
466,742.9885861949159
467,742.9768338810676
468,742.9649840284455
469,742.9530477557134
470,742.9410365007459
471,742.9289619410856
472,742.9168358995992
473,742.9046702361628
474,742.8924767269143
475,742.8802669334692
476,742.8680520656937
477,742.855842842904
478,742.8436493591958
479,742.8314809585671
480,742.8193461246285
481,742.8072523886428
482,742.7952062592251
483,742.7832131773206
484,742.7712775003403
485,742.7594025188041
486,742.7475905075638
487,742.7358428122108
488,742.7241599701434
489,742.7125418652083
490,742.7009879147761
491,742.6894972881702
492,742.6780691548909
493,742.6667029596235
494,742.6553987188162
495,742.6441573315902
496,742.6329808968519
497,742.6218730287576
498,742.6108391632843
499,742.599886848683
500,742.5890260118155
501,742.5782691910548
502,742.5676317250778
503,742.5571318862735
504,742.5467909484772
505,742.5366331815366
506,742.526685769137
507,742.5169786503119
508,742.5075442883377
509,742.4984173726054
510,742.4896344592219
511,742.4812335550695
512,742.4732536493161
513,742.4657341972539
514,742.458714563925
515,742.4522334381005
516,742.4463282293508
517,742.4410344615094
518,742.4363851750836
519,742.4324103495628
520,742.4291363543828
521,742.4265854348986
522,742.4247752378096
523,742.4237183795763
524,742.4234220613488
525,742.4238877340983
526,742.4251108172108
527,742.4270804724913
528,742.4297794337689
529,742.4331838908057
530,742.4372634252924
531,742.441980996164
532,742.4472929711098
533,742.4531492012088
534,742.459493136376
535,742.4662619806535
536,742.4733868877809
537,742.4807931983079
538,742.4884007195712
539,742.4961240495071
540,742.5038729451043
541,742.51155273656
542,742.5190647885821
543,742.526307010248
544,742.5331744141394
545,742.5395597242984
546,742.5453540313216
547,742.5504474917774
548,742.5547300679273
549,742.5580923022146
550,742.560426119312
551,742.5616256469704
552,742.5615880456719
553,742.5602143364074
554,742.5574102159984
555,742.5530868501876
556,742.5471616357995
557,742.5395589239556
558,742.5302106961636
559,742.5190571843315
560,742.506047425016
561,742.491139737929
562,742.4743021189088
563,742.4555125380971
564,742.4347591349892
565,742.4120403034834
566,742.3873646618514
567,742.3607509045565
568,742.3322275353654
569,742.3018324845648
570,742.2696126169692
571,742.235623141041
572,742.1999269323255
573,742.1625937862979
574,742.1236996164663
575,742.0833256133182
576,742.0415573790387
577,741.9984840526661
578,741.9541974405533
579,741.9087911669567
580,741.8623598584469
581,741.814998373572
582,741.7668010862488
583,741.7178612283923
584,741.6682702949203
585,741.6181175126717
586,741.567489373686
587,741.5164692324348
588,741.4651369659915
589,741.4135686958689
590,741.3618365703652
591,741.3100086067129
592,741.2581485928358
593,741.2063160485106
594,741.1545662448193
595,741.1029502790523
596,741.0515152001407
597,741.0003041777412
598,740.9493567066061
599,740.8987088368388
600,740.8483934200225
601,740.7984403612884
602,740.7488768684252
603,740.6997276908025
604,740.6510153424327
605,740.6027603045987
606,740.5549812045431
607,740.5076949681312
608,740.4609169458644
609,740.414661012638
610,740.3689396419502
611,740.3237639549385
612,740.2791437440941
613,740.2350874715481
614,740.1916022428736
615,740.1486937589135
616,740.1063662493376
617,740.0646223920162
618,740.0234632221093
619,739.9828880343772
620,739.9428942818071
621,739.9034774733681
622,739.8646310738076
623,739.8263464089538
624,739.7886125807319
625,739.7514163967879
626,739.7147423201401
627,739.6785724443682
628,739.6428864989806
629,739.6076618874487
630,739.5728737576864
631,739.5384951027928
632,739.5044968893421
633,739.470848210619
634,739.4375164618885
635,739.4044675340645
636,739.3716660218242
637,739.3390754425393
638,739.3066584625994
639,739.2743771272028
640,739.2421930887979
641,739.2100678289054
642,739.1779628682488
643,739.1458399608043
644,739.1136612684651
645,739.0813895145089
646,739.0489881156211
647,739.0164212933804
648,738.9836541667183
649,738.9506528269895
650,738.9173843970807
651,738.883817075668
652,738.8499201677572
653,738.815664103392
654,738.7810204478242
655,738.7459619078714
656,738.7104623399327
657,738.6744967647867
658,738.6380413929805
659,738.6010736626876
660,738.5635722899095
661,738.5255173294843
662,738.4868902450255
663,738.4476739864826
664,738.4078530746326
665,738.3674136917995
666,738.3263437775591
667,738.2846331278386
668,738.2422734962323
669,738.1992586974255
670,738.1555847138617
671,738.1112498078948
672,738.066254642562
673,738.0206024145494
674,737.9742990023275
675,737.9273531305153
676,737.879776548701
677,737.8315842200528
678,737.7827945130509
679,737.7334293891704
680,737.6835145802236
681,737.6330797504612
682,737.5821586396254
683,737.5307891838025
684,737.4790136113597
685,737.4268785113719
686,737.374434871407
687,737.3217380804016
688,737.2688478913842
689,737.2158283387647
690,737.1627476060396
691,737.109677841702
692,737.0566949233812
693,737.0038781724626
694,736.9513100235139
695,736.8990756544417
696,736.8472625840924
697,736.7959602441067
698,736.7452595318023
699,736.6952523509733
700,736.6460311475685
701,736.5976884471996
702,736.5503164017067
703,736.5040063525809
704,736.4588484193401
705,736.4149311202523
706,736.3723410309117
707,736.3311624835856
708,736.2914773077603
709,736.2533646103861
710,736.216900592773
711,736.1821583996366
712,736.1492079944384
713,736.118116054095
714,736.0889458756889
715,736.0617572881782
716,736.0366065631407
717,736.0135463199038
718,735.9926254218202
719,735.9738888616821
720,735.957377634922
721,735.9431285992529
722,735.9311743193798
723,735.9215428960857
724,735.9142577802656
725,735.9093375735828
726,735.9067958178625
727,735.9066407754558
728,735.9088752033956
729,735.9134961257646
730,735.9204946111167
731,735.9298555642791
732,735.9415575434202
733,735.955572613248
734,735.9718662435392
735,735.9903972593833
736,736.0111178462897
737,736.0339736103688
738,736.0589036917676
739,736.0858409286574
740,736.1147120689022
741,736.1454380264232
742,736.1779341790352
743,736.2121107045333
744,736.2478729522377
745,736.2851218478143
746,736.32375432962
747,736.3636638150116
748,736.4047406949902
749,736.4468728550586
750,736.4899462192175
751,736.5338453131826
752,736.5784538427805
753,736.6236552839807
754,736.6693334814175
755,736.7153732519993
756,736.7616609893738
757,736.8080852641648
758,736.8545374144072
759,736.9009121202483
760,736.9471079563654
761,736.9930279151528
762,737.0385798944308
763,737.0836771452226
764,737.1282386771047
765,737.1721896200326
766,737.2154615424938
767,737.2579927266411
768,737.2997284015977
769,737.3406209361375
770,737.3806299915741
771,737.419722635431
772,737.457873416566
773,737.4950644027575
774,737.5312851821167
775,737.56653282981
776,737.6008118411182
777,737.6341340308559
778,737.6665183983818
779,737.6979909577022
780,737.7285845333746
781,737.7583385241218
782,737.7872986365508
783,737.8155165910267
784,737.8430498006883
785,737.869961022909
786,737.896317980764
787,737.9221929511124
788,737.9476623161823
789,737.9728060767619
790,737.9977073265967
791,738.0224516889386
792,738.0471267173864
793,738.0718212644097
794,738.0966248221621
795,738.1216268408461
796,738.1469160297295
797,738.1725796453385
798,738.1987027711482
799,738.225367593486
800,738.2526526788224
801,738.2806322574775
802,738.3093755180525
803,738.3389459164549
804,738.3694005041008
805,738.4007892819055
806,738.4331545891795
807,738.4665305383406
808,738.5009425066171
809,738.5364066944948
810,738.5729297581794
811,738.6105085209772
812,738.6491297670813
813,738.6887701205687
814,738.7293960118155
815,738.7709637330638
816,738.8134195848914
817,738.8567001154992
818,738.9007324542566
819,738.9454347397617
820,738.990716641423
821,739.0364799726206
822,739.0826193923912
823,739.1290231906911
824,739.1755741495174
825,739.2221504689857
826,739.2686267445325
827,739.3148749794003
828,739.3607656159301
829,739.4061685700547
830,739.450954255398
831,739.494994585708
832,739.5381639459293
833,739.5803401226095
834,739.6214051842232
835,739.6612463024273
836,739.6997565065421
837,739.7368353652272
838,739.7723895908026
839,739.8063335627484
840,739.8385897677399
841,739.8690891542694
842,739.8977714005485
843,739.92458509523
844,739.9494878318479
845,739.9724462196685
846,739.9934358151536
847,740.0124409788264
848,740.0294546621674
849,740.044478129014
850,740.057520616211
851,740.0685989386511
852,740.0777370438467
853,740.0849655208636
854,740.0903210683608
855,740.0938459268266
856,740.0955872806103
857,740.0955966358305
858,740.0939291809702
859,740.0906431381358
860,740.0857991141089
861,740.0794594606361
862,740.0716876522908
863,740.0625476879408
864,740.0521035194258
865,740.040418509809
866,740.0275549238403
867,740.013573454156
868,739.998532787071
869,739.982489211167
870,739.9654962705496
871,739.9476044631122
872,739.9288609827721
873,739.9093095036746
874,739.8889900040923
875,739.8679386281506
876,739.8461875840198
877,739.8237650772118
878,739.8006952771882
879,739.7769983152222
880,739.7526903118073
881,739.7277834326735
882,739.7022859728945
883,739.6762024681859
884,739.6495338316705
885,739.6222775140026
886,739.5944276852648
887,739.5659754380791
888,739.5369090120478
889,739.5072140394612
890,739.4768738113105
891,739.4458695615645
892,739.4141807670161
893,739.3817854600259
894,739.3486605518021
895,739.3147821638489
896,739.2801259647407
897,739.2446675087297
898,739.2083825720039
899,739.1712474816035
900,739.1332394310667
901,739.0943367760965
902,739.0545193034761
903,739.013768467469
904,738.9720675895869
905,738.9294020188571
906,738.8857592502193
907,738.8411289992326
908,738.7955032327279
909,738.7488761571735
910,738.7012441686234
911,738.6526057698819
912,738.6029614619291
913,738.5523136173948
914,738.5006663434873
915,738.4480253402371
916,738.3943977579033
917,738.3397920560278
