frame_number,force
0,743.2528942566593
1,743.2663691641256
2,743.2783532185715
3,743.2888079749025
4,743.2976957689368
5,743.3049800425863
6,743.3106256808419
7,743.3145993584214
8,743.3168698929068
9,743.3174086000058
10,743.3161896452893
11,743.3131903855916
12,743.308391692707
13,743.3017782523715
14,743.2933388327485
15,743.2830665185165
16,743.2709589087794
17,743.2570182785888
18,743.2412517040826
19,743.2236711503423
20,743.2042935203854
21,743.183140664337
22,743.160239349544
23,743.1356211941966
24,743.1093225681195
25,743.0813844647213
26,743.0518523481296
27,743.0207759797039
28,742.9882092280983
29,742.9542098661447
30,742.9188393558188
31,742.8821626202739
32,742.8442478005003
33,742.8051659940177
34,742.7649909737487
35,742.7237988865269
36,742.6816679326466
37,742.6386780302998
38,742.594910470728
39,742.5504475705686
40,742.5053723273777
41,742.4597680834022
42,742.4137182015966
43,742.3673057565161
44,742.3206132413956
45,742.2737222919376
46,742.2267134271797
47,742.1796658079669
48,742.1326570136584
49,742.0857628376018
50,742.0390571017349
51,741.9926114905063
52,741.9464954040047
53,741.9007758296303
54,741.8555172308272
55,741.810781450444
56,741.7666276256208
57,741.7231121113947
58,741.6802884116039
59,741.6382071174025
60,741.5969158549258
61,741.5564592442215
62,741.5168788716393
63,741.4782132774437
64,741.4404979597464
65,741.4037653954574
66,741.3680450789602
67,741.3333635792903
68,741.299744616516
69,741.2672091575655
70,741.2357755307162
71,741.205459556561
72,741.1762746921746
73,741.1482321848432
74,741.1213412317585
75,741.0956091418874
76,741.0710414956264
77,741.0476422971652
78,741.0254141140335
79,741.0043581981481
80,740.9844745829614
81,740.9657621523552
82,740.9482186786937
83,740.931840829464
84,740.9166241437488
85,740.9025629812415
86,740.8896504475616
87,740.8778783002177
88,740.8672368397137
89,740.8577147902876
90,740.8492991752086
91,740.8419751926173
92,740.8357260989026
93,740.8305331066549
94,740.8263753033666
95,740.82322959591
96,740.8210706846336
97,740.819871069445
98,740.8196010884183
99,740.8202289875228
100,740.8217210185543
101,740.824041561779
102,740.8271532702361
103,740.8310172336637
104,740.8355931611576
105,740.8408395826199
106,740.8467140694211
107,740.8531734739279
108,740.8601741855581
109,740.8676723985033
110,740.8756243842391
111,740.8839867612447
112,740.8927167552966
113,740.9017724458412
114,740.9111129962292
115,740.9206988673578
116,740.9304920155361
117,740.9404560763196
118,740.9505565365175
119,740.9607608965516
120,740.9710388248653
121,740.9813623049874
122,740.9917057740811
123,741.0020462497004
124,741.0123634396126
125,741.0226398284267
126,741.0328607346601
127,741.0430143327574
128,741.0530916360228
129,741.0630864377083
130,741.0729952081167
131,741.0828169460057
132,741.0925529840206
133,741.1022067507903
134,741.111783495596
135,741.1212899836848
136,741.1307341710024
137,741.1401248670498
138,741.1494713943165
139,741.1587832521864
140,741.1680697920895
141,741.1773399091343
142,741.1866017539293
143,741.1958624668572
144,741.2051279356498
145,741.2144025759468
146,741.2236891338566
147,741.2329885092546
148,741.2422995984825
149,741.2516191552833
150,741.2609416692308
151,741.2702592614297
152,741.2795615977668
153,741.2888358205381
154,741.298066499725
155,741.3072356051352
156,741.3163224999448
157,741.3253039554032
158,741.3341541862944
159,741.3428449073932
160,741.3513454122486
161,741.3596226765029
162,741.3676414881081
163,741.3753646062961
164,741.382752950464
165,741.3897658196172
166,741.3963611425975
167,741.4024957587384
168,741.4081257277511
169,741.413206666747
170,741.4176941115365
171,741.4215438986463
172,741.4247125637771
173,741.4271577518984
174,741.4288386343055
175,741.4297163288559
176,741.4297543205347
177,741.4289188794853
178,741.4271794724972
179,741.424509162495
180,741.4208849897476
181,741.4162883285833
182,741.4107052140276
183,741.4041266335346
184,741.3965487797633
185,741.3879732613166
186,741.3784072695231
187,741.3678637004776
188,741.356361232429
189,741.3439243591787
190,741.3305833803724
191,741.3163743493972
192,741.301338979311
193,741.2855245072033
194,741.2689835176297
195,741.2517737259224
196,741.2339577219392
197,741.2156026743851
198,741.1967799956475
199,741.1775649674018
200,741.1580363279752
201,741.1382758234362
202,741.1183677254638
203,741.098398320258
204,741.0784553743199
205,741.0586275849214
206,741.0390040250581
207,741.0196735939373
208,741.0007244840953
209,740.9822436751241
210,740.9643164621401
211,740.9470260249406
212,740.9304530414609
213,740.9146753469042
214,740.8997676380641
215,740.8858012209929
216,740.8728437993301
217,740.8609593003789
218,740.8502077361607
219,740.8406450964616
220,740.8323232698411
221,740.8252899870397
222,740.8195887800249
223,740.8152589494994
224,740.812335533973
225,740.8108492743636
226,740.8108265695274
227,740.812289420009
228,740.815255359262
229,740.8197373732955
230,740.8257438109283
231,740.8332782876249
232,740.8423395865002
233,740.8529215606338
234,740.865013041135
235,740.8785977550059
236,740.8936542555557
237,740.9101558662493
238,740.9280706372847
239,740.9473613136668
240,740.9679853142047
241,740.9898947219468
242,741.0130362872043
243,741.0373514443945
244,741.0627763440223
245,741.0892419017864
246,741.11667386823
247,741.144992924315
248,741.1741148102075
249,741.2039504956759
250,741.2344064003602
251,741.2653846708038
252,741.2967835190714
253,741.3284976255702
254,741.3604186066011
255,741.392435545
256,741.4244355798828
257,741.4563045493304
258,741.4879276784076
259,741.5191903041523
260,741.5499786286196
261,741.5801804906126
262,741.6096861466384
263,741.6383890517642
264,741.6661866310516
265,741.6929810319721
266,741.7186798477439
267,741.7431968009024
268,741.7664523756521
269,741.7883743868867
270,741.8088984736952
271,741.8279685060904
272,741.8455368955737
273,741.8615648026417
274,741.876022237102
275,741.888888049775
276,741.9001498166971
277,741.9098036192928
278,741.9178537261377
279,741.9243121836791
280,741.9291983243984
281,741.9325382015271
282,741.9343639603143
283,741.9347131573101
284,741.9336280403907
285,741.93115480217
286,741.9273428181084
287,741.9222438792403
288,741.9159114290105
289,741.9083998141426
290,741.8997635598685
291,741.8900566796243
292,741.8793320285776
293,741.8676407091394
294,741.8550315346458
295,741.8415505548608
296,741.8272406448688
297,741.812141158027
298,741.7962876437342
299,741.7797116311123
300,741.7624404797758
301,741.7444972984748
302,741.7259009314997
303,741.706666011809
304,741.6868030796608
305,741.6663187661867
306,741.6452160418668
307,741.6234945294239
308,741.6011508796172
309,741.578179207524
310,741.5545715862027
311,741.5303185936438
312,741.5054099075613
313,741.4798349413617
314,741.4535835140869
315,741.4266465471931
316,741.3990167810014
317,741.3706895027783
318,741.341663276429
319,741.3119406613255
320,741.2815289060278
321,741.2504406025796
322,741.2186942887398
323,741.1863149881285
324,741.1533346809338
325,741.1197927001937
326,741.0857360506204
327,741.051219648201
328,741.016306479031
329,740.9810676750558
330,740.9455825033705
331,740.9099382655413
332,740.8742301045775
333,740.8385607191761
334,740.8030399867441
335,740.7677844980212
336,740.7329170071965
337,740.6985658025137
338,740.664864003352
339,740.6319487903526
340,740.5999605754505
341,740.5690421190507
342,740.5393376022687
343,740.5109916630697
344,740.4841484061033
345,740.4589503971075
346,740.4355376540344
347,740.4140466480422
348,740.3946093273205
349,740.3773521752253
350,740.3623953123335
351,740.3498516505935
352,740.3398261067458
353,740.332414881331
354,740.3277048086444
355,740.325772781701
356,740.3266852546101
357,740.3304978234454
358,740.337254886529
359,740.3469893858528
360,740.3597226319298
361,740.3754642136806
362,740.3942119930311
363,740.4159521814807
364,740.4406594937446
365,740.4682973719777
366,740.4988182730584
367,740.5321640111656
368,740.568266148723
369,740.6070464303479
370,740.6484172556773
371,740.6922821872463
372,740.7385364891118
373,740.7870676909802
374,740.8377561715104
375,740.8904757538628
376,740.945094307215
377,741.0014743499376
378,741.0594736527306
379,741.1189458423419
380,741.17974100787
381,741.2417063118838
382,741.3046866079659
383,741.3685250653539
384,741.4330638005121
385,741.4981445147512
386,741.5636091362195
387,741.6293004635074
388,741.6950628066086
389,741.7607426190713
390,741.8261891134536
391,741.8912548516847
392,741.9557963031049
393,742.0196743651073
394,742.0827548433793
395,742.1449088903037
396,742.2060134013481
397,742.2659513704206
398,742.324612206161
399,742.3818920119517
400,742.4376938331153
401,742.4919278752164
402,742.5445116971576
403,742.595370381542
404,742.6444366828533
405,742.6916511521764
406,742.7369622359593
407,742.7803263456408
408,742.8217078946557
409,742.861079299392
410,742.8984209410978
411,742.9337210863874
412,742.9669757647911
413,742.9981886026359
414,743.0273706133289
415,743.0545399446682
416,743.0797215840164
417,743.1029470222803
418,743.1242538781779
419,743.143685485475
420,743.1612904472872
421,743.1771221624343
422,743.1912383288656
423,743.2037004285488
424,743.2145731974485
425,743.2239240837904
426,743.2318226979125
427,743.238340257432
428,743.2435490318389
429,743.2475217908112
430,743.2503312608342
431,743.2520495955196
432,743.2527478660948
433,743.2524955789684
434,743.2513602264264
435,743.2494068749044
436,743.2466977942363
437,743.2432921315444
438,743.239245634389
439,743.2346104282044
440,743.2294348524451
441,743.2237633588162
442,743.2176364738488
443,743.2110908265679
444,743.204159239807
445,743.1968708811455
446,743.1892514669753
447,743.1813235112229
448,743.1731066090075
449,743.1646177450203
450,743.1558716165265
451,743.1468809615194
452,743.137656883475
453,743.1282091650363
454,743.1185465638129
455,743.1086770846806
456,743.0986082246511
457,743.0883471882165
458,743.0779010727833
459,743.0672770252095
460,743.0564823713074
461,743.0455247203953
462,743.0344120468391
463,743.0231527501841
464,743.0117556948707
465,743.0002302300065
466,742.9885861897989
467,742.9768338758981
468,742.96498402323
469,742.9530477504586
470,742.9410364954583
471,742.9289619357719
472,742.9168358942662
473,742.9046702308185
474,742.8924767215672
475,742.8802669281284
476,742.868052060369
477,742.8558428376051
478,742.8436493539319
479,742.8314809533474
480,742.8193461194613
481,742.807252383536
482,742.7952062541859
483,742.7832131723563
484,742.7712774954579
485,742.7594025140099
486,742.747590502864
487,742.7358428076107
488,742.724159965647
489,742.7125418608182
490,742.700987910494
491,742.6894972839976
492,742.6780691508296
493,742.6667029556751
494,742.6553987149816
495,742.6441573278705
496,742.6329808932481
497,742.6218730252708
498,742.610839159915
499,742.5998868454319
500,742.589026008683
501,742.5782691880406
502,742.5676317221807
503,742.5571318834917
504,742.5467909458073
505,742.5366331789742
506,742.5266857666769
507,742.5169786479485
508,742.5075442860652
509,742.498417370418
510,742.4896344571131
511,742.4812335530321
512,742.4732536473424
513,742.4657341953359
514,742.4587145620552
515,742.4522334362726
516,742.4463282275595
517,742.4410344597497
518,742.4363851733506
519,742.432410347852
520,742.4291363526903
521,742.4265854332206
522,742.4247752361425
523,742.4237183779168
524,742.4234220596938
525,742.4238877324451
526,742.4251108155562
527,742.4270804708319
528,742.4297794321014
529,742.4331838891264
530,742.4372634235972
531,742.441980994448
532,742.4472929693674
533,742.4531491994336
534,742.4594931345614
535,742.4662619787923
536,742.473386885865
537,742.4807931963292
538,742.4884007175215
539,742.496124047378
540,742.5038729428868
541,742.5115527342451
542,742.519064786161
543,742.5263070077127
544,742.5331744114831
545,742.5395597215161
546,742.5453540284094
547,742.5504474887324
548,742.5547300647474
549,742.5580922988987
550,742.5604261158596
551,742.561625643382
552,742.5615880419485
553,742.5602143325515
554,742.5574102120136
555,742.5530868460785
556,742.5471616315718
557,742.5395589196158
558,742.5302106917189
559,742.5190571797897
560,742.506047420385
561,742.4911397332165
562,742.4743021141228
563,742.4555125332452
564,742.4347591300791
565,742.412040298523
566,742.3873646568488
567,742.36075089952
568,742.3322275303028
569,742.3018324794836
570,742.2696126118759
571,742.2356231359412
572,742.1999269272242
573,742.1625937811993
574,742.1236996113744
575,742.0833256082354
576,742.0415573739671
577,741.9984840476063
578,741.9541974355058
579,741.9087911619212
580,741.8623598534234
581,741.8149983685607
582,741.7668010812497
583,741.7178612234057
584,741.6682702899466
585,741.6181175077105
586,741.567489368737
587,741.5164692274979
588,741.465136961067
589,741.4135686909578
590,741.3618365654695
591,741.3100086018347
592,741.2581485879767
593,741.2063160436717
594,741.1545662400009
595,741.1029502742542
596,741.0515151953621
597,741.0003041729808
598,740.9493567018629
599,740.8987088321123
600,740.8483934153128
601,740.7984403565958
602,740.7488768637511
603,740.6997276861495
604,740.6510153378048
605,740.6027603000005
606,740.5549811999791
607,740.5076949636058
608,740.4609169413815
609,740.4146610082013
610,740.3689396375631
611,740.3237639506049
612,740.2791437398171
613,740.2350874673301
614,740.1916022387167
615,740.148693754819
616,740.1063662453062
617,740.0646223880484
618,740.0234632182053
619,739.9828880305362
620,739.9428942780277
621,739.9034774696484
622,739.8646310701456
623,739.8263464053482
624,739.7886125771817
625,739.7514163932922
626,739.7147423166983
627,739.6785724409812
628,739.6428864956491
629,739.6076618841738
630,739.5728737544691
631,739.538495099634
632,739.5044968862427
633,739.4708482075797
634,739.4375164589096
635,739.4044675311453
636,739.3716660189637
637,739.3390754397351
638,739.3066584598489
639,739.2743771245033
640,739.2421930861473
641,739.2100678263016
642,739.17796286569
643,739.145839958288
644,739.1136612659874
645,739.0813895120655
646,739.0489881132066
647,739.0164212909883
648,738.9836541643407
649,738.9506528246171
650,738.9173843947028
651,738.883817073273
652,738.8499201653327
653,738.8156641009263
654,738.7810204453059
655,738.7459619052904
656,738.7104623372799
657,738.6744967620536
658,738.6380413901597
659,738.6010736597722
660,738.5635722868932
661,738.5255173263613
662,738.4868902417913
663,738.4476739831338
664,738.4078530711661
665,738.3674136882129
666,738.3263437738507
667,738.2846331240078
668,738.2422734922798
669,738.1992586933526
670,738.1555847096708
671,738.11124980359
672,738.0662546381487
673,738.020602410034
674,737.9742989977162
675,737.9273531258151
676,737.8797765439193
677,737.8315842151972
678,737.7827945081285
679,737.7334293841882
680,737.6835145751887
681,737.6330797453812
682,737.5821586345078
683,737.530789178655
684,737.4790136061902
685,737.4268785061884
686,737.3744348662173
687,737.3217380752134
688,737.2688478862048
689,737.2158283336008
690,737.1627476008975
691,737.1096778365877
692,737.0566949183002
693,737.0038781674205
694,736.9513100185162
695,736.899075649494
696,736.8472625791997
697,736.7959602392735
698,736.7452595270325
699,736.6952523462705
700,736.6460311429358
701,736.5976884426404
702,736.5503163972242
703,736.5040063481781
704,736.45884841502
705,736.4149311160171
706,736.3723410267633
707,736.3311624795256
708,736.2914773037903
709,736.2533646065074
710,736.2169005889857
711,736.1821583959405
712,736.1492079908327
713,736.1181160505789
714,736.0889458722619
715,736.06175728484
716,736.0366065598904
717,736.01354631674
718,735.9926254187408
719,735.9738888586835
720,735.9573776319993
721,735.9431285964004
722,735.9311743165906
723,735.9215428933522
724,735.9142577775797
725,735.9093375709356
726,735.9067958152445
727,735.9066407728569
728,735.9088752008056
729,735.9134961231731
730,735.9204946085134
731,735.9298555616541
732,735.9415575407639
733,735.9555726105517
734,735.9718662407946
735,735.9903972565822
736,736.0111178434244
737,736.0339736074314
738,736.0589036887508
739,736.0858409255542
740,736.1147120657064
741,736.1454380231288
742,736.1779341756368
743,736.2121107010263
744,736.2478729486191
745,736.2851218440833
746,736.3237543257776
747,736.3636638110602
748,736.4047406909332
749,736.4468728508999
750,736.4899462149615
751,736.5338453088337
752,736.5784538383434
753,736.6236552794606
754,736.6693334768198
755,736.7153732473288
756,736.7616609846352
757,736.8080852593623
758,736.8545374095447
759,736.9009121153291
760,736.9471079513924
761,736.9930279101288
762,737.0385798893584
763,737.0836771401035
764,737.1282386719398
765,737.1721896148222
766,737.2154615372378
767,737.2579927213385
768,737.2997283962466
769,737.3406209307357
770,737.3806299861183
771,737.419722629917
772,737.4578734109899
773,737.4950643971152
774,737.531285176404
775,737.5665328240232
776,737.6008118352538
777,737.6341340249105
778,737.6665183923521
779,737.6979909515853
780,737.7285845271678
781,737.7583385178232
782,737.7872986301593
783,737.8155165845419
784,737.8430497941109
785,737.8699610162412
786,737.896317974009
787,737.9221929442745
788,737.947662309267
789,737.9728060697757
790,737.9977073195477
791,738.022451681836
792,738.0471267102403
793,738.0718212572318
794,738.0966248149653
795,738.1216268336439
796,738.1469160225355
797,738.172579638166
798,738.1987027640102
799,738.2253675863957
800,738.252652671793
801,738.2806322505224
802,738.3093755111859
803,738.3389459096912
804,738.369400497455
805,738.400789275393
806,738.4331545828154
807,738.4665305321392
808,738.5009425005917
809,738.5364066886574
810,738.5729297525411
811,738.6105085155473
812,738.6491297618668
813,738.6887701155747
814,738.7293960070457
815,738.7709637285205
816,738.8134195805764
817,738.8567001114133
818,738.9007324503997
819,738.9454347361317
820,738.9907166380156
821,739.0364799694294
822,739.0826193894085
823,739.1290231879084
824,739.1755741469253
825,739.222150466574
826,739.2686267422905
827,739.3148749773168
828,739.3607656139932
829,739.4061685682519
830,739.4509542537163
831,739.4949945841337
832,739.5381639444482
833,739.5803401212073
834,739.6214051828856
835,739.6612463011403
836,739.6997565052919
837,739.7368353640003
838,739.7723895895857
839,739.8063335615286
840,739.838589766505
841,739.8690891530081
842,739.8977713992504
843,739.9245850938854
844,739.9494878304479
845,739.9724462182039
846,739.9934358136154
847,740.0124409772061
848,740.0294546604571
849,740.0444781272065
850,740.0575206143002
851,740.0685989366317
852,740.0777370417144
853,740.0849655186158
854,740.0903210659964
855,740.0938459243455
856,740.0955872780138
857,740.0955966331206
858,740.0939291781502
859,740.0906431352099
860,740.0857991110826
861,740.0794594575157
862,740.0716876490834
863,740.0625476846541
864,740.0521035160679
865,740.0404185063882
866,740.0275549203649
867,740.0135734506347
868,739.9985327835122
869,739.982489207579
870,739.9654962669397
871,739.9476044594875
872,739.9288609791395
873,739.9093095000408
874,739.8889900004638
875,739.867938624534
876,739.8461875804214
877,739.8237650736373
878,739.8006952736429
879,739.7769983117105
880,739.7526903083328
881,739.7277834292386
882,739.7022859695005
883,739.676202464834
884,739.6495338283611
885,739.6222775107352
886,739.594427682038
887,739.5659754348902
888,739.536909008893
889,739.5072140363355
890,739.4768738082081
891,739.4458695584786
892,739.414180763939
893,739.3817854569488
894,739.348660548716
895,739.3147821607446
896,739.2801259616093
897,739.2446675055633
898,739.208382568795
899,739.1712474783453
900,739.133239427753
901,739.0943367727211
902,739.054519300033
903,739.0137684639525
904,738.9720675859905
905,738.929402015174
906,738.8857592464424
907,738.8411289953552
908,738.7955032287437
909,738.7488761530764
910,738.7012441644084
911,738.6526057655454
912,738.602961457469
913,738.5523136128103
914,738.5006663387792
915,738.4480253354079
916,738.3943977529567
917,738.3397920509685
