frame_number,force
0,743.1238047883388
1,743.1567300582889
2,743.189666966744
3,743.2221873301071
4,743.2538526709293
5,743.2842207950873
6,743.3128525928561
7,743.3393192847575
8,743.3632101892074
9,743.3841409116667
10,743.4017616544871
11,743.4157651573964
12,743.4258936746786
13,743.4319444263232
14,743.4337731198
15,743.4312953932977
16,743.4244863181423
17,743.4133782933432
18,743.3980576469618
19,743.3786600637119
20,743.3553647949265
21,743.3283876460835
22,743.2979729463999
23,743.2643849274275
24,743.2278990519457
25,743.1887938308139
26,743.1473436207513
27,743.1038128726535
28,743.0584522536459
29,743.011496884771
30,742.9631665891259
31,742.913667659376
32,742.8631954059273
33,742.8119367016903
34,742.7600718379724
35,742.7077751968817
36,742.6552145420163
37,742.6025491053495
38,742.5499269584113
39,742.4974822626148
40,742.4453329257191
41,742.3935790641768
42,742.342302519416
43,742.2915674843867
44,742.2414221128818
45,742.1919008869141
46,742.1430275202356
47,742.0948182283271
48,742.0472852405827
49,742.0004404466199
50,741.9542990726135
51,741.9088832888
52,741.8642256349987
53,741.8203720959677
54,741.7773845638256
55,741.7353423080639
56,741.6943420007584
57,741.6544959199665
58,741.6159281999007
59,741.5787692935767
60,741.5431490315243
61,741.5091887754994
62,741.4769932016359
63,741.4466422036945
64,741.418183322686
65,741.3916250652338
66,741.3669314880946
67,741.3440184502472
68,741.3227519284003
69,741.302948726202
70,741.2843797475148
71,741.2667757818646
72,741.249835571955
73,741.2332358635633
74,741.2166431257581
75,741.1997265770502
76,741.1821720318826
77,741.1636959440135
78,741.1440589180935
79,741.1230778973536
80,741.1006362386869
81,741.0766910057954
82,741.0512770421553
83,741.0245076547826
84,740.9965719798865
85,740.9677292878847
86,740.9383006107498
87,740.9086581320023
88,740.8792127728958
89,740.8504003845751
90,740.8226670046851
91,740.7964537913996
92,740.7721823995108
93,740.7502415736146
94,740.7309756081119
95,740.7146751633038
96,740.7015707651826
97,740.691829117827
98,740.6855521075088
99,740.6827781161192
100,740.6834850702015
101,740.6875946102872
102,740.6949768823572
103,740.7054556629008
104,740.7188137574171
105,740.7347988108055
106,740.7531297731787
107,740.7735041918127
108,740.7956062335853
109,740.8191149896031
110,740.8437123344796
111,740.8690895335332
112,740.8949519623174
113,740.9210216527173
114,740.9470377469245
115,740.9727552191215
116,740.9979424221483
117,741.0223781531886
118,741.0458489909898
119,741.0681476335551
120,741.0890728654819
121,741.1084315838639
122,741.1260430003116
123,741.1417447689348
124,741.1554004568089
125,741.1669075521745
126,741.1762051392154
127,741.1832804529687
128,741.1881737001085
129,741.190980677133
130,741.1918527596874
131,741.1909938512212
132,741.1886540532453
133,741.1851202237215
134,741.1807040549838
135,741.1757285985652
136,741.170514237502
137,741.1653650652561
138,741.1605565647925
139,741.1563253753894
140,741.1528617441616
141,741.1503050112365
142,741.1487422354236
143,741.1482098434707
144,741.1486979711789
145,741.1501569937508
146,741.15250565282
147,741.1556401614698
148,741.1594436782939
149,741.1637955919589
150,741.1685801503369
151,741.173694077279
152,741.179052929807
153,741.184596066053
154,741.1902901983499
155,741.1961315334634
156,741.2021464340623
157,741.208390454457
158,741.2149456177796
159,741.2219159439899
160,741.2294214508514
161,741.2375910301736
162,741.2465546704345
163,741.256435462927
164,741.2673417668063
165,741.2793598731664
166,741.2925474886796
167,741.3069283129312
168,741.3224878960525
169,741.3391708648392
170,741.3568795247273
171,741.3754737721076
172,741.3947721712141
173,741.4145539952901
174,741.4345620742101
175,741.4545064460196
176,741.4740689660002
177,741.4929090288425
178,741.5106703792567
179,741.5269887518216
180,741.5414999358852
181,741.5538478478611
182,741.5636922595348
183,741.5707159104489
184,741.5746308087787
185,741.575183623399
186,741.5721601944666
187,741.5653893036591
188,741.5547459150841
189,741.5401541176054
190,741.5215899610798
191,741.4990842796869
192,741.4727254772616
193,741.442662172225
194,741.4091055675074
195,741.3723313668822
196,741.332680959571
197,741.2905614689427
198,741.2464441804079
199,741.2008608673069
200,741.1543976111982
201,741.1076858375824
202,741.0613904381742
203,741.016195030497
204,740.9727846503428
205,740.9318264932978
206,740.893949649964
207,740.8597250043966
208,740.829646511849
209,740.8041149449676
210,740.7834249634668
211,740.7677560818674
212,740.7571678100085
213,740.7515989579591
214,740.7508708758518
215,740.7546942527384
216,740.7626790313964
217,740.7743470214537
218,740.7891468695118
219,740.8064710599122
220,740.8256744977592
221,740.8460940197635
222,740.8670680145897
223,740.8879552822626
224,740.9081523084537
225,740.9271082554332
226,740.944337178208
227,740.9594272401488
228,740.9720469734585
229,740.9819488513215
230,740.9889705802062
231,740.9930345907767
232,740.9941462427008
233,740.9923912859397
234,740.987933107534
235,740.9810101735418
236,740.9719338185281
237,740.9610861940798
238,740.9489178951409
239,740.9359446647453
240,740.9227426514101
241,740.9099418441874
242,740.8982174028566
243,740.8882786173383
244,740.8808552618314
245,740.8766812433389
246,740.8764757094733
247,740.88092214137
248,740.8906463212115
249,740.9061943165516
250,740.9280116900758
251,740.9564250291328
252,740.9916266722336
253,741.0336632778224
254,741.0824286677203
255,741.1376611558787
256,741.1989453201754
257,741.265717945755
258,741.3372777461157
259,741.4127984444397
260,741.4913447943713
261,741.5718911196378
262,741.6533419918819
263,741.7345547266863
264,741.8143633987194
265,741.8916040372604
266,741.9651405744711
267,742.0338909852178
268,742.0968528833782
269,742.1531276625543
270,742.2019421668748
271,742.2426669131244
272,742.274830053965
273,742.2981265247969
274,742.3124220999517
275,742.3177523522382
276,742.3143167443693
277,742.302468285598
278,742.2826993595156
279,742.2556244419509
280,742.2219604469759
281,742.1825053923736
282,742.1381160769781
283,742.0896855685351
284,742.0381213869724
285,741.9843251632058
286,741.9291742701878
287,741.8735056491162
288,741.8181019478211
289,741.7636801355637
290,741.7108828204659
291,741.6602724790852
292,741.6123287282256
293,741.5674486347698
294,741.5259498226075
295,741.4880758280898
296,741.4540029297693
297,741.4238476506379
298,741.3976742667835
299,741.3755018403492
300,741.3573104461149
301,741.3430463446606
302,741.3326258646282
303,741.3259377623084
304,741.3228439501397
305,741.323178737452
306,741.3267469537781
307,741.3333213991824
308,741.342640039598
309,741.354403355028
310,741.3682722586509
311,741.3838669597122
312,741.4007670286461
313,741.418512817613
314,741.4366083746972
315,741.4545260543956
316,741.4717130624047
317,741.4876000584163
318,741.5016116402651
319,741.5131781396059
320,741.5217478577356
321,741.5267988149851
322,741.5278492885321
323,741.5244667450261
324,741.5162751001911
325,741.5029605023805
326,741.4842760256811
327,741.4600457291531
328,741.4301684384385
329,741.3946213420436
330,741.3534631867209
331,741.3068366756168
332,741.2549696996584
333,741.1981751892268
334,741.1368495133947
335,741.0714694122595
336,741.0025874713618
337,740.93082618599
338,740.8568706924342
339,740.7814602210059
340,740.7053782705926
341,740.6294414766629
342,740.5544871794699
343,740.4813597849336
344,740.4108961215626
345,740.3439101411448
346,740.281177503776
347,740.2234207531361
348,740.1712957866273
349,740.1253801363257
350,740.0861633431706
351,740.0540395544549
352,740.0293024021548
353,740.0121421785731
354,740.0026452806012
355,740.0007958010128
356,740.0064790022958
357,740.0194863227732
358,740.039521659867
359,740.0662089206512
360,740.09910103761
361,740.137690656429
362,740.1814225132649
363,740.2297072481362
364,740.2819361632183
365,740.337496275345
366,740.3957849316489
367,740.45622328883
368,740.5182681476142
369,740.5814219253086
370,740.6452407811367
371,740.709340984777
372,740.7734035632108
373,740.8371771261066
374,740.9004786026125
375,740.9631915240088
376,741.0252615752199
377,741.08668942726
378,741.1475212447394
379,741.2078375974448
380,741.2677416901173
381,741.3273478288728
382,741.3867709132958
383,741.446117565284
384,741.5054793422489
385,741.5649283395371
386,741.6245153326074
387,741.6842704128956
388,741.7442058105543
389,741.8043202758726
390,741.8646041005554
391,741.9250437603196
392,741.9856253230071
393,742.0463360844707
394,742.1071642018945
395,742.1680963247668
396,742.2291134086661
397,742.2901850655506
398,742.3512629491883
399,742.4122737910018
400,742.4731127993477
401,742.5336381950327
402,742.5936676107067
403,742.6529768799084
404,742.7113014293343
405,742.7683401876166
406,742.8237617151656
407,742.877212132095
408,742.9283243475326
409,742.9767280745032
410,743.0220601471455
411,743.0639747226796
412,743.1021530335329
413,743.1363124432103
414,743.1662146353448
415,743.1916728027468
416,743.2125576860255
417,743.2288022766987
418,743.2404050319271
419,743.2474315843082
420,743.2500151003547
421,743.2483555337698
422,743.2427179817099
423,743.2334302167604
424,743.2208793154531
425,743.2055072120055
426,743.1878050028326
427,743.1683058837693
428,743.1475766594729
429,743.126207799744
430,743.1048020799984
431,743.0839619948032
432,743.0642763370515
433,743.0463064481205
434,743.0305725661184
435,743.0175405119462
436,743.0076088604591
437,743.0010968613597
438,742.9982336049341
439,742.9991490768191
440,743.0038677410505
441,743.0123052169515
442,743.0242685317558
443,743.0394602824911
444,743.0574867832518
445,743.0778699516583
446,743.1000623754771
447,743.12346475625
448,743.1474447876988
449,743.1713564931046
450,743.1945590973829
451,743.2164346287403
452,743.236403596893
453,743.2539382296713
454,743.2685728684771
455,743.2799112843753
456,743.2876309013994
457,743.2914841534533
458,743.2912974107516
459,743.2869680663111
460,743.2784604351899
461,743.2658010781196
462,743.2490740605584
463,743.2284165233813
464,743.2040147655679
465,743.1761008762958
466,743.1449498949197
467,743.1108775019958
468,743.0742382239089
469,743.0354240010884
470,742.9948627930543
471,742.9530167815935
472,742.9103797297219
473,742.867473119814
474,742.8248407836685
475,742.7830418632566
476,742.742642128336
477,742.7042038897658
478,742.6682749023136
479,742.6353766805682
480,742.6059925623728
481,742.5805557480611
482,742.5594375434237
483,742.5429361527326
484,742.5312664868385
485,742.524551453616
486,742.522815085983
487,742.5259777236514
488,742.5338533777141
489,742.5461494066495
490,742.5624687070215
491,742.582314707997
492,742.6050994552627
493,742.6301549053171
494,742.6567472592785
495,742.6840938905534
496,742.7113823079535
497,742.737790653332
498,742.7625093254863
499,742.7847633109461
500,742.8038346517837
501,742.8190842332127
502,742.8299718069694
503,742.8360730037638
504,742.8370921623971
505,742.8328701487712
506,742.8233868497217
507,742.8087585459976
508,742.7892307695879
509,742.7651674352967
510,742.7370369519186
511,742.7053957508805
512,742.6708694517021
513,742.63413192202
514,742.595882799647
515,742.5568244438848
516,742.5176395471229
517,742.4789706634539
518,742.4414027428642
519,742.4054494715527
520,742.3715438509679
521,742.3400330604974
522,742.311177349024
523,742.2851525698468
524,742.2620559919369
525,742.2419150784546
526,742.2246988987499
527,742.2103316875755
528,742.1987078518976
529,742.1897075621006
530,742.1832119966165
531,742.1791173038711
532,742.1773463764168
533,742.1778576318605
534,742.1806502073226
535,742.1857652824676
536,742.193283564803
537,742.2033192027924
538,742.2160105054571
539,742.2315078982141
540,742.2499596232151
541,742.2714958361105
542,742.2962119117116
543,742.3241518650618
544,742.3552927809131
545,742.3895310520946
546,742.4266711177047
547,742.4664172927124
548,742.5083691575475
549,742.5520207960815
550,742.5967639543511
551,742.641894981725
552,742.6866252401398
553,742.7300945626591
554,742.7713873434913
555,742.8095509362481
556,742.8436161576071
557,742.8726197356881
558,742.8956284373141
559,742.9117643926198
560,742.9202309100838
561,742.9203379067019
562,742.9115259706845
563,742.8933880108875
564,742.8656874386993
565,742.8283718942421
566,742.7815816469168
567,742.7256519494961
568,742.6611088570443
569,742.5886583910426
570,742.5091693853655
571,742.4236507810606
572,742.333224463213
573,742.239094920817
574,742.1425170389089
575,742.0447632218812
576,741.9470908961176
577,741.8507113690678
578,741.7567610478924
579,741.6662760262367
580,741.5801709082272
581,741.4992224399767
582,741.4240581333032
583,741.3551496944907
584,741.2928108054662
585,741.2371986737166
586,741.1883187238384
587,741.1460318040604
588,741.1100633263735
589,741.0800138596148
590,741.0553708524245
591,741.0355213705946
592,741.0197659441765
593,741.0073337424168
594,740.9973992656514
595,740.9891005780394
596,740.981558869338
597,740.9738989043401
598,740.9652697454633
599,740.9548650161776
600,740.9419419042222
601,740.9258381263885
602,740.9059862321536
603,740.8819248629926
604,740.8533067917331
605,740.8199036911435
606,740.7816076897769
607,740.738429925975
608,740.690496464957
609,740.6380420216157
610,740.5814018972928
611,740.5210024024195
612,740.4573498700981
613,740.3910182909493
614,740.3226356834689
615,740.2528694850255
616,740.1824113682087
617,740.1119618892068
618,740.0422152965709
619,739.9738447295131
620,739.9074879420548
621,739.8437336275233
622,739.7831084265579
623,739.726064790045
624,739.6729699966297
625,739.624096752928
626,739.5796159153366
627,739.5395919236802
628,739.5039814427353
629,739.4726354215052
630,739.4453044063932
631,739.4216466918166
632,739.4012388593237
633,739.3835883236151
634,739.3681475024833
635,739.3543291583559
636,739.3415224477582
637,739.3291092966845
638,739.316480779042
639,739.3030531141756
640,739.288282773773
641,739.2716801205474
642,739.2528210298386
643,739.2313560399857
644,739.2070167299058
645,739.1796192320555
646,739.1490650040704
647,739.1153391318704
648,739.0785064958466
649,739.0387061158528
650,738.9961439215608
651,738.9510841093376
652,738.9038392153893
653,738.8547591198756
654,738.8042193861983
655,738.7526095385562
656,738.7003219757387
657,738.6477421521334
658,738.5952404429559
659,738.5431658085483
660,738.4918410652439
661,738.4415593601829
662,738.3925814110585
663,738.3451331806516
664,738.2994037793893
665,738.2555434175121
666,738.2136611793344
667,738.1738223763123
668,738.1360453387936
669,738.1002977143951
670,738.0664925761047
671,738.0344848548677
672,738.0040687901769
673,737.9749771961417
674,737.9468832805878
675,737.919405485076
676,737.8921153954849
677,737.8645483403311
678,737.8362159922248
679,737.8066202128994
680,737.7752675135958
681,737.7416837066764
682,737.705428474617
683,737.6661096571369
684,737.6233970908147
685,737.5770358149301
686,737.5268583275681
687,737.4727953500776
688,737.4148843527656
689,737.3532750340404
690,737.2882310644436
691,737.2201276529942
692,737.1494447872291
693,737.076756294038
694,737.0027151440172
695,736.9280356307861
696,736.8534731449718
697,736.7798022503881
698,736.7077937454602
699,736.6381914004385
700,736.5716890690375
701,736.5089088780264
702,736.4503812538522
703,736.396527655863
704,736.3476469578173
705,736.3039063431755
706,736.2653373224025
707,736.231837116598
708,736.2031753061284
709,736.1790053830038
710,736.1588806443749
711,736.1422736751723
712,736.1285984884024
713,736.1172342539278
714,736.1075494976708
715,736.0989257256341
716,736.0907795951059
717,736.082582961539
718,736.0738803405515
719,736.064303503554
720,736.053583007921
721,736.0415564374582
722,736.0281730967178
723,736.0134949745062
724,735.9976939540602
725,735.9810453827693
726,735.9639181478734
727,735.9467613892612
728,735.9300880421379
729,735.9144556241391
730,735.9004450381841
731,735.8886385334614
732,735.879598202176
733,735.8738463861982
734,735.8718491166215
735,735.8740032870934
736,735.8806277816527
737,735.8919583512129
738,735.908145754697
739,735.9292565860982
740,735.9552762311223
741,735.9861134315238
742,736.0216059542628
743,736.061526920214
744,736.1055914735476
745,736.153463626052
746,736.2047632361174
747,736.2590731669744
748,736.3159467115855
749,736.3749153430435
750,736.4354967460754
751,736.4972029925194
752,736.5595487378439
753,736.622059419915
754,736.6842795233619
755,736.7457809471472
756,736.8061713911386
757,736.8651025454509
758,736.9222777859788
759,736.977459011819
760,737.0304721488316
761,737.0812107607167
762,737.1296372927025
763,737.1757817242943
764,737.2197376806477
765,737.2616562374143
766,737.3017377672799
767,737.3402222670458
768,737.3773786545603
769,737.4134934922985
770,737.4488595051417
771,737.4837641891808
772,737.5184787937562
773,737.5532479837917
774,737.588280519646
775,737.6237412851766
776,737.6597449006609
777,737.6963509789957
778,737.733560938478
779,737.7713163049067
780,737.8094986009645
781,737.8479310837938
782,737.8863826403575
783,737.9245740698194
784,737.9621867848804
785,737.9988736687899
786,738.034271516332
787,738.0680142979556
788,738.0997464848699
789,738.1291358132374
790,738.1558850472245
791,738.1797424550332
792,738.200510841287
793,738.2180551161927
794,738.2323085109384
795,738.2432775938681
796,738.2510461593603
797,738.2557779187528
798,738.2577178404861
799,738.25719200374
800,738.2546058632998
801,738.2504407703188
802,738.2452484611457
803,738.2396431461661
804,738.234290942875
805,738.2298967236694
806,738.2271888632539
807,738.2269026876494
808,738.2297635178969
809,738.2364700450007
810,738.2476784639758
811,738.2639875160672
812,738.2859244697937
813,738.3139320766321
814,738.3483565653521
815,738.3894367944231
816,738.4372948194297
817,738.4919282969652
818,738.5532052147779
819,738.6208613947131
820,738.6945011608659
821,738.773601552617
822,738.8575204183047
823,738.9455085511746
824,739.0367257086494
825,739.1302599581633
826,739.2251494210842
827,739.3204052412829
828,739.4150345586006
829,739.5080624360135
830,739.5985520183675
831,739.6856225598176
832,739.7684651819744
833,739.846356247663
834,739.9186681635045
835,739.9848774204174
836,740.0445697953542
837,740.0974427992259
838,740.1433055758141
839,740.1820765050737
840,740.213778764118
841,740.2385340732268
842,740.2565548168798
843,740.2681347209435
844,740.2736383396291
845,740.2734897469617
846,740.2681609289315
847,740.258160335683
848,740.2440219072948
849,740.2262947505176
850,740.2055335839938
851,740.1822900383788
852,740.157104818099
853,740.1305006149324
854,740.102975594347
855,740.0749972873255
856,740.0469967684844
857,740.0193630591476
858,739.9924378023013
859,739.9665104434565
860,739.9418143488335
861,739.9185243684856
862,739.8967562175287
863,739.8765677356938
864,739.8579617619101
865,739.8408902266174
866,739.8252591723827
867,739.8109346200537
868,739.7977493211355
869,739.7855104103783
870,739.7740078404448
871,739.7630233180051
872,739.7523393214851
873,739.7417477043472
874,739.7310574170201
875,739.7201010129875
876,739.7087397493005
877,739.6968671549253
878,739.6844109323563
879,739.6713330721541
880,739.6576281668858
881,739.6433200774194
882,739.6284572146931
883,739.6131066796363
884,739.5973474120403
885,739.5812624712522
886,739.5649306804766
887,739.548418049718
888,739.531769517068
889,739.5150015353207
890,739.4980959022726
891,739.4809950718579
892,739.4635990831857
893,739.4457642450379
894,739.4273037537508
895,739.4079904074357
896,739.3875614877173
897,739.3657257543956
898,739.3421723617718
899,739.3165813447715
900,739.2886351367268
901,739.2580304145422
902,739.2244895070128
903,739.187770704687
904,739.1476770072959
905,739.1040629788357
906,739.0568393937949
907,739.0059753793022
908,738.9514979188045
909,738.8934888498917
910,738.8320797513854
911,738.7674453284927
912,738.699796066144
913,738.6293709824776
914,738.5564312066306
915,738.4812548224813
916,738.4041330707756
917,738.325367762602
