frame_number,force
0,743.1238047887132
1,743.1567300586581
2,743.1896669671065
3,743.2221873304612
4,743.2538526712732
5,743.2842207954187
6,743.3128525931725
7,743.3393192850565
8,743.3632101894871
9,743.3841409119254
10,743.4017616547234
11,743.4157651576095
12,743.4258936748691
13,743.4319444264926
14,743.4337731199502
15,743.4312953934308
16,743.4244863182606
17,743.4133782934492
18,743.3980576470587
19,743.3786600638031
20,743.3553647950155
21,743.3283876461741
22,743.2979729464964
23,743.2643849275345
24,743.2278990520673
25,743.1887938309542
26,743.1473436209134
27,743.1038128728399
28,743.0584522538583
29,743.0114968850107
30,742.9631665893936
31,742.913667659672
32,742.8631954062515
33,742.8119367020421
34,742.76007183835
35,742.707775197283
36,742.6552145424396
37,742.6025491057933
38,742.5499269588746
39,742.4974822630966
40,742.4453329262184
41,742.3935790646924
42,742.3423025199463
43,742.2915674849304
44,742.2414221134371
45,742.1919008874797
46,742.1430275208094
47,742.0948182289064
48,742.0472852411647
49,742.0004404472018
50,741.9542990731926
51,741.9088832893734
52,741.8642256355636
53,741.8203720965215
54,741.7773845643658
55,741.7353423085877
56,741.6943420012636
57,741.6544959204507
58,741.6159282003616
59,741.5787692940122
60,741.5431490319328
61,741.5091887758798
62,741.4769932019884
63,741.4466422040203
64,741.418183322987
65,741.3916250655125
66,741.3669314883534
67,741.344018450489
68,741.3227519286278
69,741.3029487264181
70,741.2843797477229
71,741.2667757820685
72,741.2498355721585
73,741.2332358637703
74,741.216643125972
75,741.1997265772741
76,741.1821720321183
77,741.1636959442621
78,741.1440589183558
79,741.1230778976299
80,741.1006362389769
81,741.0766910060987
82,741.0512770424712
83,741.0245076551099
84,740.9965719802243
85,740.967729288232
86,740.9383006111058
87,740.908658132366
88,740.8792127732663
89,740.8504003849515
90,740.8226670050666
91,740.7964537917857
92,740.7721823999008
93,740.7502415740075
94,740.7309756085059
95,740.7146751636963
96,740.7015707655704
97,740.6918291182072
98,740.6855521078786
99,740.6827781164758
100,740.6834850705428
101,740.6875946106114
102,740.6949768826637
103,740.7054556631892
104,740.7188137576876
105,740.7347988110588
106,740.753129773416
107,740.7735041920363
108,740.7956062337977
109,740.8191149898067
110,740.8437123346772
111,740.869089533727
112,740.8949519625093
113,740.9210216529087
114,740.9470377471163
115,740.972755219314
116,740.9979424223417
117,741.0223781533832
118,741.0458489911863
119,741.0681476337542
120,741.0890728656842
121,741.1084315840698
122,741.1260430005209
123,741.1417447691468
124,741.1554004570226
125,741.1669075523884
126,741.1762051394284
127,741.1832804531797
128,741.1881737003166
129,741.1909806773372
130,741.1918527598863
131,741.1909938514135
132,741.1886540534305
133,741.1851202238994
134,741.1807040551549
135,741.1757285987304
136,741.1705142376622
137,741.1653650654127
138,741.1605565649468
139,741.1563253755428
140,741.1528617443156
141,741.1503050113929
142,741.1487422355839
143,741.1482098436361
144,741.1486979713505
145,741.1501569939295
146,741.1525056530062
147,741.1556401616642
148,741.1594436784976
149,741.1637955921733
150,741.168580150563
151,741.1736940775178
152,741.1790529300589
153,741.1845960663176
154,741.1902901986259
155,741.1961315337495
156,741.2021464343576
157,741.2083904547608
158,741.2149456180916
159,741.2219159443105
160,741.2294214511816
161,741.2375910305145
162,741.2465546707876
163,741.2564354632937
164,741.2673417671876
165,741.2793598735636
166,741.292547489094
167,741.3069283133638
168,741.322487896504
169,741.33917086531
170,741.3568795252177
171,741.375473772616
172,741.3947721717382
173,741.4145539958267
174,741.4345620747558
175,741.4545064465711
176,741.4740689665538
177,741.4929090293944
178,741.5106703798035
179,741.5269887523605
180,741.5414999364133
181,741.5538478483761
182,741.5636922600344
183,741.5707159109311
184,741.5746308092416
185,741.5751836238411
186,741.5721601948868
187,741.5653893040567
188,741.5547459154589
189,741.5401541179579
190,741.5215899614116
191,741.4990842800003
192,741.4727254775596
193,741.4426621725112
194,741.4091055677852
195,741.3723313671553
196,741.3326809598426
197,741.2905614692157
198,741.2464441806848
199,741.2008608675895
200,741.1543976114878
201,741.1076858378796
202,741.0613904384792
203,741.0161950308099
204,740.9727846506634
205,740.9318264936262
206,740.8939496503004
207,740.8597250047409
208,740.8296465122007
209,740.8041149453259
210,740.7834249638306
211,740.7677560822361
212,740.7571678103812
213,740.7515989583354
214,740.750870876231
215,740.7546942531202
216,740.76267903178
217,740.7743470218381
218,740.7891468698965
219,740.8064710602963
220,740.8256744981425
221,740.8460940201451
222,740.8670680149684
223,740.8879552826371
224,740.9081523088227
225,740.927108255795
226,740.9443371785612
227,740.9594272404918
228,740.9720469737894
229,740.9819488516381
230,740.9889705805068
231,740.9930345910598
232,740.9941462429649
233,740.9923912861833
234,740.9879331077561
235,740.9810101737421
236,740.971933818707
237,740.9610861942383
238,740.9489178952803
239,740.935944664867
240,740.9227426515158
241,740.9099418442792
242,740.8982174029363
243,740.8882786174082
244,740.8808552618939
245,740.8766812433967
246,740.8764757095295
247,740.880922141428
248,740.8906463212742
249,740.9061943166208
250,740.9280116901527
251,740.956425029218
252,740.9916266723271
253,741.0336632779239
254,741.082428667829
255,741.1376611559944
256,741.1989453202973
257,741.265717945883
258,741.3372777462504
259,741.4127984445821
260,741.4913447945229
261,741.5718911197996
262,741.653341992055
263,741.734554726871
264,741.8143633989158
265,741.8916040374685
266,741.9651405746904
267,742.0338909854482
268,742.0968528836198
269,742.153127662807
270,742.2019421671389
271,742.2426669134003
272,742.274830054254
273,742.2981265251004
274,742.3124221002712
275,742.3177523525753
276,742.3143167447258
277,742.3024682859757
278,742.2826993599159
279,742.2556244423752
280,742.2219604474253
281,742.1825053928486
282,742.1381160774783
283,742.0896855690596
284,742.0381213875196
285,741.9843251637731
286,741.9291742707719
287,741.8735056497133
288,741.8181019484268
289,741.7636801361737
290,741.7108828210755
291,741.6602724796901
292,741.6123287288219
293,741.5674486353538
294,741.525949823176
295,741.4880758286401
296,741.4540029302988
297,741.4238476511439
298,741.3976742672642
299,741.3755018408028
300,741.3573104465407
301,741.3430463450592
302,741.332625865001
303,741.3259377626576
304,741.3228439504682
305,741.323178737763
306,741.3267469540747
307,741.3333213994678
308,741.3426400398755
309,741.3544033553007
310,741.3682722589223
311,741.3838669599858
312,741.4007670289253
313,741.4185128179015
314,741.436608374998
315,741.4545260547109
316,741.4717130627367
317,741.4876000587675
318,741.5016116406373
319,741.5131781400008
320,741.5217478581551
321,741.5267988154308
322,741.5278492890051
323,741.5244667455272
324,741.5162751007209
325,741.5029605029384
326,741.484276026266
327,741.4600457297636
328,741.4301684390729
329,741.3946213426997
330,741.3534631873963
331,741.3068366763089
332,741.2549697003641
333,741.1981751899424
334,741.1368495141163
335,741.0714694129833
336,741.002587472084
337,740.9308261867066
338,740.8568706931418
339,740.7814602217018
340,740.7053782712744
341,740.6294414773287
342,740.5544871801184
343,740.4813597855638
344,740.410896122174
345,740.3439101417376
346,740.2811775043508
347,740.2234207536936
348,740.1712957871687
349,740.1253801368526
350,740.0861633436853
351,740.0540395549599
352,740.0293024026532
353,740.012142179068
354,740.0026452810953
355,740.0007958015078
356,740.0064790027931
357,740.0194863232738
358,740.0395216603717
359,740.0662089211606
360,740.099101038124
361,740.1376906569469
362,740.1814225137857
363,740.2297072486579
364,740.2819361637382
365,740.3374962758597
366,740.3957849321554
367,740.4562232893251
368,740.5182681480956
369,740.581421925774
370,740.645240781584
371,740.709340985204
372,740.7734035636156
373,740.8371771264875
374,740.9004786029677
375,740.9631915243366
376,741.0252615755187
377,741.0866894275285
378,741.1475212449767
379,741.2078375976505
380,741.2677416902912
381,741.3273478290155
382,741.3867709134082
383,741.4461175653679
384,741.5054793423063
385,741.5649283395702
386,741.6245153326187
387,741.6842704128875
388,741.7442058105291
389,741.8043202758328
390,741.8646041005038
391,741.9250437602593
392,741.9856253229423
393,742.0463360844062
394,742.1071642018353
395,742.1680963247177
396,742.2291134086317
397,742.2901850655348
398,742.3512629491938
399,742.412273791031
400,742.4731127994023
401,742.5336381951138
402,742.593667610815
403,742.6529768800443
404,742.7113014294977
405,742.768340187806
406,742.8237617153785
407,742.8772121323285
408,742.9283243477836
409,742.9767280747691
410,743.0220601474238
411,743.0639747229676
412,743.1021530338272
413,743.1363124435077
414,743.166214635642
415,743.1916728030412
416,743.2125576863156
417,743.2288022769833
418,743.2404050322054
419,743.2474315845797
420,743.2500151006185
421,743.2483555340249
422,743.2427179819558
423,743.2334302169967
424,743.2208793156797
425,743.2055072122228
426,743.1878050030414
427,743.1683058839706
428,743.1475766596676
429,743.126207799933
430,743.1048020801826
431,743.0839619949832
432,743.0642763372283
433,743.0463064482955
434,743.0305725662932
435,743.0175405121225
436,743.0076088606388
437,743.0010968615451
438,742.9982336051274
439,742.9991490770225
440,743.0038677412655
441,743.0123052171792
442,743.0242685319971
443,743.0394602827466
444,743.057486783522
445,743.0778699519433
446,743.1000623757768
447,743.123464756564
448,743.147444788027
449,743.1713564934471
450,743.1945590977405
451,743.2164346291137
452,743.2364035972827
453,743.2539382300776
454,743.2685728688994
455,743.2799112848131
456,743.2876309018525
457,743.2914841539211
458,743.2912974112332
459,743.2869680668058
460,743.2784604356965
461,743.2658010786369
462,743.2490740610853
463,743.2284165239165
464,743.20401476611
465,743.1761008768433
466,743.144949895471
467,743.1108775025498
468,743.0742382244647
469,743.0354240016451
470,742.9948627936111
471,742.9530167821496
472,742.9103797302761
473,742.8674731203653
474,742.8248407842153
475,742.7830418637976
476,742.7426421288706
477,742.7042038902932
478,742.6682749028333
479,742.6353766810793
480,742.6059925628739
481,742.5805557485512
482,742.5594375439018
483,742.5429361531985
484,742.5312664872927
485,742.5245514540596
486,742.5228150864174
487,742.5259777240783
488,742.5338533781354
489,742.546149407067
490,742.5624687074367
491,742.5823147084113
492,742.6050994556767
493,742.6301549057305
494,742.6567472596902
495,742.6840938909622
496,742.7113823083583
497,742.737790653732
498,742.7625093258806
499,742.784763311334
500,742.8038346521653
501,742.8190842335887
502,742.829971807341
503,742.8360730041319
504,742.8370921627624
505,742.8328701491338
506,742.8233868500813
507,742.8087585463538
508,742.7892307699399
509,742.7651674356431
510,742.7370369522579
511,742.7053957512111
512,742.6708694520231
513,742.6341319223311
514,742.5958827999484
515,742.5568244441776
516,742.5176395474089
517,742.4789706637349
518,742.4414027431422
519,742.4054494718293
520,742.3715438512434
521,742.3400330607715
522,742.3111773492964
523,742.2851525701162
524,742.2620559922018
525,742.2419150787132
526,742.2246988990009
527,742.2103316878181
528,742.1987078521315
529,742.1897075623259
530,742.1832119968334
531,742.1791173040804
532,742.1773463766204
533,742.1778576320614
534,742.1806502075243
535,742.1857652826736
536,742.1932835650168
537,742.2033192030169
538,742.2160105056943
539,742.231507898465
540,742.2499596234799
541,742.2714958363887
542,742.296211912002
543,742.3241518653628
544,742.355292781222
545,742.3895310524082
546,742.4266711180194
547,742.4664172930251
548,742.5083691578554
549,742.5520207963829
550,742.5967639546444
551,742.6418949820089
552,742.6866252404133
553,742.7300945629217
554,742.7713873437432
555,742.8095509364897
556,742.8436161578387
557,742.8726197359105
558,742.8956284375287
559,742.9117643928282
560,742.9202309102881
561,742.9203379069043
562,742.911525970887
563,742.8933880110926
564,742.8656874389092
565,742.8283718944589
566,742.7815816471426
567,742.7256519497327
568,742.6611088572932
569,742.588658391305
570,742.5091693856419
571,742.4236507813516
572,742.3332244635187
573,742.2390949211375
574,742.1425170392442
575,742.0447632222318
576,741.947090896484
577,741.8507113694502
578,741.7567610482912
579,741.6662760266523
580,741.5801709086606
581,741.4992224404295
582,741.4240581337768
583,741.3551496949858
584,741.2928108059828
585,741.2371986742542
586,741.1883187243956
587,741.1460318046351
588,741.1100633269633
589,741.0800138602172
590,741.0553708530364
591,741.0355213712124
592,741.0197659447962
593,741.0073337430337
594,740.9973992662606
595,740.989100578636
596,740.9815588699178
597,740.9738989048986
598,740.9652697459959
599,740.9548650166798
600,740.9419419046902
601,740.925838126819
602,740.9059862325436
603,740.8819248633396
604,740.8533067920353
605,740.8199036913999
606,740.7816076899871
607,740.7384299261392
608,740.6904964650764
609,740.6380420216924
610,740.5814018973305
611,740.5210024024225
612,740.4573498700715
613,740.3910182908986
614,740.3226356833998
615,740.2528694849437
616,740.1824113681205
617,740.1119618891187
618,740.0422152964899
619,739.9738447294457
620,739.9074879420068
621,739.8437336275001
622,739.7831084265644
623,739.7260647900852
624,739.6729699967061
625,739.6240967530423
626,739.5796159154891
627,739.5395919238705
628,739.5039814429624
629,739.4726354217674
630,739.4453044066881
631,739.4216466921409
632,739.4012388596742
633,739.3835883239881
634,739.3681475028754
635,739.3543291587638
636,739.341522448179
637,739.3291092971159
638,739.3164807794822
639,739.303053114623
640,739.2882827742263
641,739.2716801210056
642,739.2528210303007
643,739.2313560404499
644,739.2070167303701
645,739.1796192325177
646,739.1490650045283
647,739.115339132322
648,739.0785064962901
649,739.0387061162867
650,738.9961439219836
651,738.9510841097482
652,738.9038392157867
653,738.8547591202586
654,738.8042193865658
655,738.7526095389068
656,738.7003219760703
657,738.647742152444
658,738.5952404432437
659,738.5431658088123
660,738.4918410654838
661,738.4415593603998
662,738.3925814112547
663,738.3451331808304
664,738.2994037795545
665,738.2555434176674
666,738.2136611794834
667,738.1738223764585
668,738.13604533894
669,738.1002977145445
670,738.0664925762591
671,738.0344848550287
672,738.0040687903457
673,737.974977196319
674,737.9468832807736
675,737.91940548527
676,737.8921153956861
677,737.8645483405379
678,737.8362159924352
679,737.8066202131113
680,737.7752675138072
681,737.7416837068852
682,737.7054284748211
683,737.6661096573346
684,737.6233970910046
685,737.5770358151113
686,737.5268583277407
687,737.472795350242
688,737.4148843529227
689,737.3532750341914
690,737.2882310645894
691,737.2201276531358
692,737.1494447873681
693,737.0767562941761
694,737.0027151441561
695,736.9280356309281
696,736.8534731451196
697,736.7798022505441
698,736.7077937456265
699,736.6381914006172
700,736.5716890692302
701,736.508908878234
702,736.4503812540748
703,736.3965276560995
704,736.347646958066
705,736.3039063434343
706,736.2653373226693
707,736.2318371168711
708,736.2031753064068
709,736.1790053832867
710,736.1588806446622
711,736.1422736754638
712,736.1285984886982
713,736.1172342542282
714,736.107549497975
715,736.098925725941
716,736.0907795954134
717,736.0825829618452
718,736.0738803408543
719,736.0643035038514
720,736.0535830082111
721,736.0415564377396
722,736.0281730969892
723,736.0134949747671
724,735.9976939543103
725,735.9810453830089
726,735.9639181481035
727,735.9467613894835
728,735.930088042355
729,735.9144556243543
730,735.9004450384006
731,735.8886385336818
732,735.8795982024026
733,735.8738463864324
734,735.8718491168646
735,735.874003287346
736,735.8806277819149
737,735.8919583514839
738,735.9081457549755
739,735.9292565863826
740,735.9552762314112
741,735.9861134318154
742,736.0216059545555
743,736.0615269205069
744,736.1055914738406
745,736.1534636263451
746,736.2047632364108
747,736.2590731672688
748,736.3159467118817
749,736.3749153433428
750,736.4354967463787
751,736.4972029928275
752,736.5595487381572
753,736.6220594202338
754,736.6842795236862
755,736.7457809474774
756,736.8061713914755
757,736.865102545795
758,736.9222777863307
759,736.9774590121789
760,737.0304721491997
761,737.0812107610926
762,737.1296372930856
763,737.1757817246835
764,737.2197376810414
765,737.261656237811
766,737.3017377676781
767,737.3402222674443
768,737.3773786549583
769,737.4134934926952
770,737.4488595055373
771,737.4837641895756
772,737.5184787941516
773,737.5532479841894
774,737.5882805200476
775,737.6237412855842
776,737.6597449010761
777,737.69635097942
778,737.7335609389129
779,737.7713163053534
780,737.8094986014241
781,737.8479310842675
782,737.8863826408465
783,737.924574070324
784,737.9621867853998
785,737.9988736693227
786,738.0342715168762
787,738.0680142985087
788,738.0997464854291
789,738.1291358138001
790,738.1558850477877
791,738.1797424555936
792,738.2005108418413
793,738.2180551167374
794,738.2323085114707
795,738.2432775943851
796,738.2510461598596
797,738.2557779192327
798,738.2577178409455
799,738.2571920041783
800,738.2546058637173
801,738.2504407707168
802,738.245248461526
803,738.2396431465316
804,738.2342909432291
805,738.2298967240159
806,738.2271888635968
807,738.2269026879931
808,738.2297635182464
809,738.236470045361
810,738.2476784643518
811,738.2639875164639
812,738.2859244702151
813,738.3139320770811
814,738.3483565658297
815,738.3894367949288
816,738.4372948199618
817,738.4919282975214
818,738.5532052153554
819,738.6208613953088
820,738.6945011614766
821,738.7736015532395
822,738.8575204189349
823,738.9455085518085
824,739.0367257092831
825,739.1302599587927
826,739.2251494217054
827,739.3204052418918
828,739.4150345591935
829,739.5080624365867
830,739.5985520189176
831,739.6856225603414
832,739.7684651824687
833,739.846356248125
834,739.9186681639314
835,739.9848774208076
836,740.0445697957072
837,740.0974427995426
838,740.1433055760966
839,740.182076505325
840,740.2137787643414
841,740.2385340734259
842,740.2565548170577
843,740.2681347211027
844,740.2736383397719
845,740.2734897470907
846,740.2681609290497
847,740.2581603357935
848,740.2440219074009
849,740.2262947506232
850,740.2055335841029
851,740.1822900384958
852,740.1571048182287
853,740.1305006150806
854,740.1029755945193
855,740.0749972875273
856,740.04699676872
857,740.0193630594204
858,739.9924378026136
859,739.9665104438097
860,739.9418143492279
861,739.9185243689201
862,739.896756218001
863,739.8765677362004
864,739.8579617624468
865,739.8408902271792
866,739.8252591729641
867,739.8109346206489
868,739.797749321739
869,739.785510410985
870,739.7740078410501
871,739.763023318605
872,739.7523393220761
873,739.7417477049258
874,739.7310574175829
875,739.7201010135308
876,739.7087397498212
877,739.6968671554204
878,739.6844109328234
879,739.6713330725916
880,739.6576281672924
881,739.6433200777954
882,739.6284572150404
883,739.6131066799583
884,739.5973474123406
885,739.5812624715346
886,739.5649306807452
887,739.5484180499773
888,739.5317695173229
889,739.5150015355764
890,739.4980959025346
891,739.4809950721315
892,739.4635990834751
893,739.4457642453463
894,739.427303754081
895,739.4079904077898
896,739.3875614880967
897,739.3657257548007
898,739.342172362202
899,739.3165813452255
900,739.2886351372025
901,739.2580304150371
902,739.2244895075233
903,739.187770705209
904,739.1476770078249
905,739.1040629793673
906,739.056839394325
907,739.0059753798266
908,738.951497919319
909,738.8934888503919
910,738.832079751867
911,738.767445328951
912,738.6997960665747
913,738.6293709828773
914,738.5564312069966
915,738.4812548228111
916,738.404133071067
917,738.3253677628538
