frame_number,force
0,743.2386686324984
1,743.2497967133625
2,743.2593404705733
3,743.2672832432384
4,743.2736105239268
5,743.2783100211791
6,743.2813717195405
7,743.2827879367861
8,743.2825533779016
9,743.2806651852591
10,743.2771229842954
11,743.2719289238844
12,743.26508771054
13,743.2566066356383
14,743.2464955949889
15,743.2347671003023
16,743.2214362823403
17,743.2065208857234
18,743.1900412553998
19,743.1720203146976
20,743.152483534822
21,743.1314588957357
22,743.1089768385676
23,743.0850702098979
24,743.0597741984055
25,743.0331262644115
26,743.0051660628692
27,742.9759353603828
28,742.9454779468477
29,742.9138395422214
30,742.8810676987234
31,742.8472116985333
32,742.8123224469043
33,742.7764523606114
34,742.739655251738
35,742.7019862069577
36,742.6635014626905
37,742.6242582767845
38,742.5843147975951
39,742.5437299314128
40,742.5025632091395
41,742.460874653018
42,742.4187246441081
43,742.3761737910497
44,742.3332828005175
45,742.2901123496807
46,742.2467229609663
47,742.2031748794373
48,742.1595279531059
49,742.1158415164875
50,742.0721742776749
51,742.0285842091905
52,741.9851284428341
53,741.9418631686723
54,741.8988435382222
55,741.8561235717675
56,741.8137560696614
57,741.771792527492
58,741.730283055128
59,741.6892762998353
60,741.6488193737802
61,741.6089577862803
62,741.5697353811639
63,741.5311942795356
64,741.4933748281607
65,741.4563155536246
66,741.4200531224093
67,741.3846223070232
68,741.3500559582985
69,741.316384983906
70,741.283638333012
71,741.2518429868385
72,741.2210239547503
73,741.1912042754475
74,741.1624050228273
75,741.1346453160511
76,741.1079423332707
77,741.0823113283868
78,741.0577656501499
79,741.0343167628854
80,741.0119742681494
81,740.9907459267237
82,740.9706376805436
83,740.9516536743621
84,740.9337962771443
85,740.9170661033426
86,740.9014620343052
87,740.886981240135
88,740.8736192023241
89,740.8613697374847
90,740.8502250225439
91,740.8401756218813
92,740.8312105169945
93,740.8233171392866
94,740.8164814064695
95,740.8106877629574
96,740.8059192244928
97,740.8021574270934
98,740.7993826802094
99,740.7975740237699
100,740.7967092886429
101,740.7967651599697
102,740.797717242891
103,740.7995401302973
104,740.8022074723664
105,740.8056920477643
106,740.8099658364288
107,740.8150000937846
108,740.8207654260267
109,740.8272318658446
110,740.8343689477529
111,740.842145782122
112,740.8505311271232
113,740.8594934580376
114,740.8690010336436
115,740.8790219595976
116,740.8895242488711
117,740.9004758794214
118,740.9118448493331
119,740.923599229676
120,740.9357072152839
121,740.9481371735477
122,740.9608576911396
123,740.9738376183566
124,740.9870461105854
125,741.0004526662743
126,741.0140271607949
127,741.0277398756805
128,741.0415615228904
129,741.0554632638957
130,741.0694167234527
131,741.0833939979841
132,741.0973676586436
133,741.1113107494614
134,741.1251967813218
135,741.1389997227637
136,741.1526939886634
137,741.1662544278568
138,741.1796563107217
139,741.1928753176774
140,741.2058875294302
141,741.2186694196217
142,741.2311978503589
143,741.2434500709425
144,741.2554037199435
145,741.2670368306412
146,741.2783278397521
147,741.2892555993366
148,741.2997993917471
149,741.3099389474891
150,741.319654465895
151,741.328926638557
152,741.3377366754984
153,741.3460663341124
154,741.3538979509294
155,741.3612144762504
156,741.3679995115968
157,741.374237349828
158,741.3799130177425
159,741.3850123210366
160,741.3895218916009
161,741.393429237216
162,741.3967227937123
163,741.3993919795962
164,741.4014272530558
165,741.4028201711974
166,741.4035634513084
167,741.4036510338727
168,741.4030781469712
169,741.4018413715958
170,741.3999387073217
171,741.3973696377061
172,741.3941351947053
173,741.3902380213461
174,741.3856824319092
175,741.380474468982
176,741.3746219568505
177,741.3681345507077
178,741.3610237810417
179,741.3533030924224
180,741.3449878758316
181,741.3360954937043
182,741.3266452969327
183,741.3166586331889
184,741.3061588460228
185,741.2951712643213
186,741.2837231818634
187,741.271843826849
188,741.2595643214023
189,741.246917631133
190,741.2339385048913
191,741.2206634048567
192,741.2071304270964
193,741.1933792127497
194,741.1794508500496
195,741.1653877674321
196,741.1512336179835
197,741.1370331554558
198,741.1228321020784
199,741.1086770084544
200,741.0946151059302
201,741.0806941519555
202,741.0669622690853
203,741.0534677784275
204,741.0402590285281
205,741.0273842209117
206,741.0148912337319
207,741.0028274451273
208,740.9912395578979
209,740.9801734270018
210,740.9696738911776
211,740.9597846097658
212,740.950547905549
213,740.9420046141884
214,740.9341939406311
215,740.9271533227121
216,740.9209183020756
217,740.9155224025105
218,740.9109970158017
219,740.9073712951616
220,740.9046720561831
221,740.9029236850731
222,740.9021480537783
223,740.9023644415541
224,740.9035894625383
225,740.905836998963
226,740.9091181397756
227,740.9134411246208
228,740.9188112933232
229,740.9252310411749
230,740.9326997804359
231,740.9412139085165
232,740.9507667833523
233,740.9613487065101
234,740.9729469145734
235,740.9855455792798
236,740.999125816717
237,741.0136657056507
238,741.0291403148569
239,741.0455217392444
240,741.0627791445996
241,741.0808788208763
242,741.0997842439921
243,741.1194561460833
244,741.139852594147
245,741.1609290770542
246,741.1826386010467
247,741.2049317940241
248,741.2277570191147
249,741.2510604981261
250,741.2747864454366
251,741.2988772127285
252,741.323273444721
253,741.3479142458096
254,741.372737357281
255,741.397679344528
256,741.4226757934259
257,741.4476615147922
258,741.4725707556862
259,741.497337416228
260,741.5218952705507
261,741.5461781904565
262,741.5701203703404
263,741.5936565519634
264,741.6167222476691
265,741.6392539606119
266,741.661189400527
267,741.6824676935187
268,741.7030295842675
269,741.7228176290032
270,741.7417763775964
271,741.7598525432373
272,741.7769951583929
273,741.7931557160176
274,741.8082882953179
275,741.8223496716753
276,741.835299410633
277,741.8470999461214
278,741.8577166433523
279,741.867117847017
280,741.8752749155625
281,741.8821622424073
282,741.8877572650645
283,741.8920404633217
284,741.8949953477731
285,741.8966084400071
286,741.8968692456158
287,741.8957702210579
288,741.8933067353653
289,741.889477027744
290,741.8842821621676
291,741.8777259800482
292,741.8698150519929
293,741.8605586295268
294,741.8499685974585
295,741.8380594272829
296,741.8248481318001
297,741.8103542210287
298,741.794599659506
299,741.7776088251026
300,741.7594084694887
301,741.7400276803514
302,741.7194978453596
303,741.6978526177764
304,741.6751278836003
305,741.6513617301864
306,741.6265944163616
307,741.6008683439985
308,741.5742280309053
309,741.5467200847946
310,741.518393178025
311,741.4892980227053
312,741.459487345615
313,741.4290158622675
314,741.3979402493933
315,741.3663191151406
316,741.3342129662991
317,741.3016841717686
318,741.2687969212966
319,741.2356171782577
320,741.202212625068
321,741.1686525998426
322,741.1350080231043
323,741.1013513136551
324,741.0677562930355
325,741.0342980782738
326,741.0010529628615
327,740.9680982860546
328,740.9355122906421
329,740.903373969266
330,740.8717628992805
331,740.8407590661483
332,740.8104426755106
333,740.7808939543123
334,740.7521929415836
335,740.7244192696427
336,740.6976519366146
337,740.6719690713003
338,740.6474476915471
339,740.6241634573508
340,740.602190419955
341,740.5816007682652
342,740.5624645739732
343,740.5448495368886
344,740.5288207320764
345,740.5144403605168
346,740.5017675051329
347,740.4908578941348
348,740.4817636735942
349,740.4745331909872
350,740.4692107912248
351,740.4658366265108
352,740.46444648124
353,740.4650716130242
354,740.4677386108086
355,740.4724692708627
356,740.4792804912206
357,740.4881841849678
358,740.4991872127138
359,740.51229133464
360,740.5274931825375
361,740.5447842521273
362,740.5641509157092
363,740.5855744548736
364,740.6090311127381
365,740.6344921649464
366,740.6619240085157
367,740.6912882675431
368,740.7225419148332
369,740.7556374086324
370,740.7905228437479
371,740.8271421163214
372,740.865435101434
373,740.9053378425778
374,740.9467827518743
375,740.9896988198185
376,741.0340118333675
377,741.0796446013719
378,741.1265171866081
379,741.174547143891
380,741.2236497638772
381,741.2737383221729
382,741.3247243332731
383,741.3765178087449
384,741.429027518962
385,741.4821612576152
386,741.5358261081273
387,741.5899287109851
388,741.644375530837
389,741.6990731220008
390,741.7539283908471
391,741.808848853481
392,741.8637428872788
393,741.9185199750954
394,741.9730909411938
395,742.0273681781471
396,742.0812658641195
397,742.13470017009
398,742.1875894567131
399,742.2398544606367
400,742.2914184701995
401,742.3422074905155
402,742.3921503979652
403,742.4411790840155
404,742.4892285881218
405,742.5362372193053
406,742.5821466659062
407,742.6269020929784
408,742.6704522268014
409,742.712749426029
410,742.7537497390828
411,742.7934129475115
412,742.8317025951593
413,742.8685860031203
414,742.9040342705774
415,742.9380222617234
416,742.970528579017
417,743.0015355230757
418,743.0310290395964
419,743.058998653857
420,743.0854373935335
421,743.1103417006923
422,743.1337113338413
423,743.155549260885
424,743.1758615437568
425,743.19465721548
426,743.2119481504295
427,743.2277489286303
428,743.2420766949772
429,743.2549510142894
430,743.2663937231503
431,743.2764287795728
432,743.2850821116509
433,743.292381466399
434,743.2983562598888
435,743.3030374296085
436,743.3064572898483
437,743.3086493909343
438,743.3096483832254
439,743.3094898868159
440,743.3082103678082
441,743.3058470218864
442,743.3024376657823
443,743.2980206370436
444,743.2926347022498
445,743.2863189735256
446,743.2791128329056
447,743.2710558638676
448,743.262187789193
449,743.2525484142392
450,743.2421775746892
451,743.2311150878983
452,743.2194007070261
453,743.2070740772211
454,743.1941746931911
455,743.1807418576046
456,743.1668146399273
457,743.1524318354798
458,743.1376319246656
459,743.1224530324539
460,743.1069328882749
461,743.0911087864927
462,743.0750175475927
463,743.0586954801627
464,743.0421783436735
465,743.0255013119929
466,743.0086989375704
467,742.9918051162947
468,742.9748530530479
469,742.9578752279313
470,742.9409033630457
471,742.9239683896649
472,742.9071004156605
473,742.8903286931046
474,742.8736815860534
475,742.8571865386082
476,742.8408700434852
477,742.8247576114666
478,742.8088737421992
479,742.7932418968148
480,742.7778844727515
481,742.7628227810537
482,742.748077026392
483,742.733666290083
484,742.7196085164329
485,742.7059205026783
486,742.6926178926728
487,742.6797151743234
488,742.6672256806667
489,742.6551615944328
490,742.64353395595
491,742.632352674265
492,742.6216265413177
493,742.6113632488657
494,742.601569407629
495,742.5922505679207
496,742.5834112409461
497,742.5750549199979
498,742.5671841008561
499,742.5598003007171
500,742.5529040749032
501,742.546495030474
502,742.5405718357259
503,742.5351322245069
504,742.5301729943967
505,742.5256899981097
506,742.5216781279141
507,742.5181312933018
508,742.5150423925
509,742.5124032786313
510,742.5102047213412
511,742.5084363646058
512,742.5070866813439
513,742.5061429255562
514,742.5055910829865
515,742.5054158216313
516,742.5056004436532
517,742.5061268403006
518,742.5069754513478
519,742.5081252303747
520,742.5095536169571
521,742.511236516556
522,742.513148288671
523,742.5152617437009
524,742.5175481489346
525,742.5199772440919
526,742.5225172667613
527,742.5251349879156
528,742.5277957574752
529,742.5304635596925
530,742.5331010780139
531,742.5356697689868
532,742.5381299447135
533,742.5404408633368
534,742.5425608270974
535,742.5444472876263
536,742.5460569582625
537,742.5473459332568
538,742.5482698137035
539,742.5487838399862
540,742.5488430304833
541,742.548402326295
542,742.5474167417717
543,742.5458415206142
544,742.543632297223
545,742.540745262841
546,742.5371373358902
547,742.5327663357756
548,742.5275911592968
549,742.5215719586399
550,742.5146703197453
551,742.5068494396811
552,742.4980743015261
553,742.4883118451988
554,742.4775311326949
555,742.4657035062952
556,742.4528027384405
557,742.4388051720647
558,742.4236898501783
559,742.4074386334338
560,742.39003630435
561,742.371470656867
562,742.3517325699503
563,742.3308160640512
564,742.3087183393627
565,742.2854397949968
566,742.2609840284395
567,742.2353578148904
568,742.2085710664009
569,742.1806367711209
570,742.1515709134264
571,742.1213923761183
572,742.0901228262385
573,742.0577865862822
574,742.0244104926956
575,741.9900237435563
576,741.9546577372868
577,741.9183459042493
578,741.8811235331227
579,741.8430275939756
580,741.8040965598578
581,741.7643702284989
582,741.7238895454054
583,741.682696429342
584,741.6408336009381
585,741.5983444150019
586,741.5552726970133
587,741.5116625841896
588,741.4675583714534
589,741.4230043626109
590,741.3780447270667
591,741.332723362449
592,741.2870837635737
593,741.2411688981772
594,741.1950210897379
595,741.1486819075183
596,741.1021920637207
597,741.0555913174335
598,741.0089183848653
599,740.9622108552462
600,740.9155051116923
601,740.868836256323
602,740.8222380390212
603,740.775742789386
604,740.729381351586
605,740.683183021916
606,740.6371754889603
607,740.5913847764002
608,740.5458351886397
609,740.500549259516
610,740.455547704372
611,740.410849375709
612,740.3664712225617
613,740.3224282537163
614,740.2787335049845
615,740.2353980108967
616,740.1924307812803
617,740.1498387832116
618,740.1076269287829
619,740.0657980690638
620,740.0243529945675
621,739.9832904424769
622,739.9426071108794
623,739.9022976802928
624,739.8623548428266
625,739.8227693393754
626,739.7835300052801
627,739.7446238248782
628,739.7060359952563
629,739.6677499992586
630,739.6297476874967
631,739.5920093688749
632,739.5545139090682
633,739.5172388363887
634,739.4801604544269
635,739.4432539607618
636,739.4064935709856
637,739.3698526473122
638,739.3333038310491
639,739.2968191781493
640,739.2603702969514
641,739.2239284871594
642,739.1874648791305
643,739.1509505726035
644,739.1143567741166
645,739.0776549325219
646,739.0408168721702
647,739.003814923465
648,738.9666220505502
649,738.9292119759112
650,738.8915593016462
651,738.8536396271352
652,738.8154296628419
653,738.7769073400693
654,738.7380519166505
655,738.6988440787201
656,738.6592660388019
657,738.6193016304219
658,738.5789363993204
659,738.5381576911434
660,738.496954735288
661,738.4553187244345
662,738.4132428892816
663,738.3707225680749
664,738.3277552706061
665,738.2843407363755
666,738.2404809865751
667,738.1961803695272
668,738.1514455992807
669,738.1062857872091
670,738.0607124666067
671,738.0147396104262
672,737.9683836424222
673,737.9216634420359
674,737.874600343318
675,737.8272181280017
676,737.7795430125561
677,737.7316036287618
678,737.6834309971593
679,737.6350584926903
680,737.5865218019768
681,737.5378588718594
682,737.4891098489596
683,737.440317010131
684,737.3915246837348
685,737.3427791617145
686,737.2941286024103
687,737.2456229239548
688,737.1973136880063
689,737.149253973595
690,737.1014982410036
691,737.05410218583
692,737.0071225836476
693,736.9606171259338
694,736.9146442481801
695,736.8692629512888
696,736.8245326174552
697,736.78051282176
698,736.7372631406987
699,736.6948429589011
700,736.6533112752999
701,736.6127265100179
702,736.5731463132686
703,736.5346273776337
704,736.4972252551058
705,736.4609941802087
706,736.4259869002927
707,736.3922545138157
708,736.359846317136
709,736.328809660126
710,736.299189810729
711,736.2710298284082
712,736.2443704462745
713,736.2192499615393
714,736.1957041338717
715,736.1737660912548
716,736.1534662430229
717,736.1348321998794
718,736.1178887008209
719,736.1026575469947
720,736.0891575425608
721,736.077404442596
722,736.067410908044
723,736.0591864677533
724,736.0527374877489
725,736.0480671479688
726,736.0451754267079
727,736.0440590929879
728,736.0447117071005
729,736.0471236297086
730,736.051282040118
731,736.0571709645641
732,736.0647713154929
733,736.074060942781
734,736.0850146976205
735,736.0976045094553
736,736.1117994759737
737,736.1275659658074
738,736.1448677333399
739,736.1636660449008
740,736.1839198155799
741,736.2055857558552
742,736.228618527183
743,736.2529709056773
744,736.2785939530344
745,736.3054371939073
746,736.3334487989721
747,736.3625757729338
748,736.3927641467092
749,736.4239591729587
750,736.4561055240398
751,736.4891474913571
752,736.5230291850794
753,736.5576947332486
754,736.5930884793635
755,736.6291551775007
756,736.6658401839612
757,736.7030896443549
758,736.7408506750035
759,736.7790715375248
760,736.8177018054192
761,736.8566925214636
762,736.895996344825
763,736.9355676870324
764,736.9753628361923
765,737.0153400690207
766,737.0554597504072
767,737.0956844203498
768,737.1359788682004
769,737.1763101942023
770,737.2166478583028
771,737.2569637162383
772,737.2972320429424
773,737.3374295434089
774,737.37753535122
775,737.4175310150093
776,737.4574004731219
777,737.4971300166608
778,737.5367082410703
779,737.5761259864687
780,737.6153762671163
781,737.6544541905683
782,737.6933568671523
783,737.7320833104006
784,737.7706343289859
785,737.809012410547
786,737.8472215976336
787,737.885267355912
788,737.923156434824
789,737.960896721043
790,737.9984970852404
791,738.0359672228383
792,738.0733174895562
793,738.1105587327011
794,738.1477021192808
795,738.1847589620897
796,738.2217405448897
797,738.2586579477382
798,738.2955218734792
799,738.3323424764378
800,738.3691291943929
801,738.4058905848585
802,738.4426341666064
803,738.479366267283
804,738.5160918780227
805,738.5528145161454
806,738.5895360972676
807,738.6262568183097
808,738.6629750528767
809,738.699687260293
810,738.7363879092605
811,738.7730694168121
812,738.8097221030323
813,738.8463341619046
814,738.8828916485324
815,738.9193784828909
816,738.9557764702218
817,738.9920653381649
818,739.0282227906242
819,739.0642245782012
820,739.100044584854
821,739.1356549303023
822,739.1710260875434
823,739.206127014608
824,739.2409252993526
825,739.2753873157156
826,739.30947838952
827,739.3431629716687
828,739.3764048164916
829,739.4091671630824
830,739.4414129176741
831,739.4731048353456
832,739.5042056995193
833,739.5346784977536
834,739.56448659232
835,739.5935938841106
836,739.6219649685694
837,739.6495652825345
838,739.6763612410545
839,739.7023203633771
840,739.7274113874197
841,739.7516043721278
842,739.7748707872241
843,739.797183589969
844,739.8185172887304
845,739.8388479933893
846,739.8581534527989
847,739.8764130796155
848,739.893607962838
849,739.9097208684061
850,739.9247362282766
851,739.9386401184739
852,739.9514202266467
853,739.9630658096648
854,739.9735676418137
855,739.9829179542191
856,739.9911103662206
857,739.9981398094956
858,740.0040024458513
859,740.00869557975
860,740.0122175667926
861,740.0145677194415
862,740.0157462111683
863,740.0157539799822
864,740.0145926320504
865,740.0122643460045
866,740.0087717785685
867,740.0041179722575
868,739.998306265938
869,739.9913402089808
870,739.9832234795923
871,739.9739598077527
872,739.9635529030325
873,739.9520063874572
874,739.9393237335554
875,739.9255082077576
876,739.9105628193659
877,739.8944902752984
878,739.8772929407556
879,739.8589728059095
880,739.8395314587394
881,739.8189700642029
882,739.7972893499536
883,739.7744895987607
884,739.7505706476647
885,739.7255318938448
886,739.6993723072017
887,739.6720904497452
888,739.6436845019268
889,739.6141522960057
890,739.5834913564152
891,739.5516989469498
892,739.5187721244937
893,739.4847077989864
894,739.4495027993278
895,739.413153944894
896,739.3756581222596
897,739.3370123666202
898,739.2972139473127
899,739.2562604567095
900,739.2141499016446
901,739.1708807964138
902,739.1264522563628
903,739.0808640911657
904,739.0341168970535
905,738.9862121473659
906,738.9371522808393
907,738.8869407870822
908,738.8355822888327
909,738.7830826208111
910,738.7294489051925
911,738.6746896239084
912,738.618814688126
913,738.5618355053265
914,738.5037650443556
915,738.4446178986448
916,738.3844103475785
917,738.3231604158339
