frame_number,force
0,743.2466336770616
1,743.2580465059877
2,743.2678597019175
3,743.2760550433063
4,743.2826164516136
5,743.2875300682942
6,743.2907843298854
7,743.2923700407582
8,743.2922804429526
9,743.2905112823435
10,743.2870608702069
11,743.2819301390831
12,743.2751226917665
13,743.2666448423117
14,743.2565056481379
15,743.2447169326036
16,743.2312932977546
17,743.2162521271885
18,743.1996135790271
19,743.1814005688683
20,743.1616387424989
21,743.1403564382595
22,743.1175846392226
23,743.0933569156276
24,743.0677093581935
25,743.0406805029955
26,743.0123112486124
27,742.9826447662891
28,742.9517264038745
29,742.9196035841708
30,742.8863256980507
31,742.8519439923733
32,742.8165114525273
33,742.7800826794244
34,742.7427137608871
35,742.7044621375758
36,742.6653864639039
37,742.6255464647602
38,742.5850027891576
39,742.5438168620351
40,742.5020507353681
41,742.4597669396131
42,742.4170283363567
43,742.3738979728394
44,742.3304389388283
45,742.2867142261952
46,742.2427865915355
47,742.1987184221833
48,742.1545716059869
49,742.1104074051941
50,742.0662863347628
51,742.0222680453802
52,741.9784112114247
53,741.934773424008
54,741.8914110891085
55,741.8483793306536
56,741.8057318982976
57,741.763521079673
58,741.7217976170874
59,741.6806106288813
60,741.6400075358282
61,741.6000339930363
62,741.5607338277978
63,741.5221489837614
64,741.4843194716852
65,741.447283326952
66,741.4110765740169
67,741.3757331979501
68,741.3412851232108
69,741.3077621997045
70,741.2751921960105
71,741.2436007994385
72,741.2130116224
73,741.1834462145122
74,741.1549240798402
75,741.1274626986456
76,741.1010775529043
77,741.0757821547421
78,741.0515880768604
79,741.028504983985
80,741.0065406644071
81,740.9857010608266
82,740.9659902999655
83,740.9474107207043
84,740.9299629007603
85,740.9136456821346
86,740.8984561957058
87,740.8843898854283
88,740.8714405326127
89,740.8596002807574
90,740.848859661466
91,740.839207622138
92,740.8306315562672
93,740.8231173371926
94,740.8166493560134
95,740.8112105642143
96,740.8067825213697
97,740.8033454480818
98,740.8008782840402
99,740.7993587508017
100,740.7987634186757
101,740.7990677770159
102,740.8002463072954
103,740.8022725584965
104,740.8051192245287
105,740.8087582235355
106,740.8131607790156
107,740.818297502578
108,740.8241384778718
109,740.8306533448585
110,740.8378113833182
111,740.8455815943803
112,740.8539327790286
113,740.8628336128577
114,740.8722527167123
115,740.8821587231138
116,740.892520338584
117,740.9033064021249
118,740.9144859401978
119,740.9260282185514
120,740.9379027911974
121,740.9500795466752
122,740.9625287515026
123,740.9752210904066
124,740.9881277026628
125,741.0012202137187
126,741.014470761269
127,741.0278520150918
128,741.0413371901799
129,741.0549000528976
130,741.0685149199901
131,741.0821566503452
132,741.0958006296211
133,741.1094227482929
134,741.122999374154
135,741.136507320633
136,741.1499238123878
137,741.1632264496277
138,741.1763931725707
139,741.1894022273563
140,741.2022321345603
141,741.2148616612212
142,741.2272697970517
143,741.2394357352828
144,741.2513388583666
145,741.2629587285767
146,741.2742750834324
147,741.2852678358141
148,741.2959170786115
149,741.3062030937539
150,741.3161063655168
151,741.3256075980571
152,741.3346877371831
153,741.3433279964305
154,741.3515098875592
155,741.3592152555597
156,741.3664263181346
157,741.3731257094903
158,741.3792965282245
159,741.3849223891774
160,741.3899874792577
161,741.3944766173635
162,741.3983753185319
163,741.4016698623542
164,741.4043473655814
165,741.4063958587531
166,741.407804366611
167,741.4085629919621
168,741.4086630025212
169,741.4080969201302
170,741.4068586116272
171,741.4049433805354
172,741.4023480586355
173,741.3990710964063
174,741.3951126513443
175,741.3904746733114
176,741.3851609862016
177,741.3791773652341
178,741.3725316090123
179,741.3652336052968
180,741.3572953893278
181,741.3487311935623
182,741.3395574878043
183,741.3297930088382
184,741.3194587788188
185,741.3085781118316
186,741.2971766082428
187,741.2852821366474
188,741.2729248033854
189,741.260136909708
190,741.2469528967364
191,741.2334092783623
192,741.2195445622236
193,741.2053991589187
194,741.1910152796845
195,741.1764368228204
196,741.1617092491321
197,741.1468794466342
198,741.1319955847514
199,741.1171069583282
200,741.1022638218972
201,741.08751721482
202,741.0729187781038
203,741.058520563896
204,741.0443748389101
205,741.0305338833541
206,741.017049787237
207,741.0039742461346
208,740.9913583585109
209,740.9792524265382
210,740.9677057620911
211,740.9567664992724
212,740.9464814144833
213,740.9368957547207
214,740.9280530745065
215,740.9199950816494
216,740.9127614919088
217,740.9063898925866
218,740.9009156150872
219,740.8963716164399
220,740.8927883696068
221,740.89019376216
222,740.8886130027106
223,740.8880685343951
224,740.8885799547406
225,740.890163941337
226,740.8928341829335
227,740.8966013158301
228,740.9014728656991
229,740.9074531951941
230,740.9145434578601
231,740.9227415589452
232,740.9320421237711
233,740.9424364743745
234,740.9539126151425
235,740.9664552280744
236,740.9800456780789
237,740.9946620284045
238,741.010279066035
239,741.02686833677
240,741.0443981897808
241,741.062833831559
242,741.0821373892437
243,741.1022679832946
244,741.1231818094644
245,741.1448322300979
246,741.1671698749711
247,741.1901427521545
248,741.2136963696431
249,741.2377738686437
250,741.2623161693688
251,741.2872621299687
252,741.3125487189112
253,741.3381112007805
254,741.3638833351434
255,741.389797587804
256,741.4157853534123
257,741.4417771880674
258,741.4677030503375
259,741.4934925490109
260,741.5190751958098
261,741.5443806612404
262,741.5693390317416
263,741.5938810663285
264,741.6179384509362
265,741.6414440486402
266,741.6643321438787
267,741.6865386787211
268,741.7080014791339
269,741.728660469112
270,741.7484578705559
271,741.7673383869288
272,741.7852493690309
273,741.8021409616147
274,741.8179662300022
275,741.8326812662848
276,741.8462452750866
277,741.8586206392409
278,741.8697729660735
279,741.8796711152621
280,741.888287209428
281,741.8955966287265
282,741.9015779908541
283,741.9062131181206
284,741.909486993439
285,741.9113877070844
286,741.9119063958901
287,741.9110371763518
288,741.9087770730524
289,741.9051259438979
290,741.900086403713
291,741.8936637477227
292,741.8858658763344
293,741.8767032224584
294,741.8661886823123
295,741.8543375502758
296,741.8411674580543
297,741.8266983182699
298,741.8109522726079
299,741.7939536446952
300,741.7757288978918
301,741.7563065981134
302,741.7357173816663
303,741.7139939279328
304,741.6911709367135
305,741.6672851101255
306,741.6423751390317
307,741.6164816939074
308,741.5896474198931
309,741.5619169356552
310,741.5333368355658
311,741.5039556945779
312,741.4738240749679
313,741.4429945339479
314,741.411521631076
315,741.3794619344109
316,741.3468740243663
317,741.3138184941035
318,741.2803579450207
319,741.2465569755508
320,741.2124821612352
321,741.1782020240513
322,741.1437869892409
323,741.109309328301
324,741.0748430872179
325,741.0404639994011
326,741.0062493830951
327,740.9722780232577
328,740.9386300379584
329,740.9053867292597
330,740.8726304184211
331,740.8404442652685
332,740.8089120717691
333,740.7781180701764
334,740.7481466964157
335,740.7190823495996
336,740.6910091387474
337,740.6640106179647
338,740.638169511509
339,740.6135674302693
340,740.5902845812446
341,740.5683994716779
342,740.5479886096108
343,740.5291262027657
344,740.5118838578109
345,740.4963302822205
346,740.4825309911315
347,740.470548021739
348,740.4604396577339
349,740.4522601660545
350,740.4460595479273
351,740.4418833059405
352,740.4397722287206
353,740.4397621946298
354,740.4418839957264
355,740.4461631830101
356,740.4526199336865
357,740.4612689409539
358,740.4721193267494
359,740.4851745779685
360,740.5004325067097
361,740.5178852349501
362,740.5375192037181
363,740.5593152064274
364,740.5832484456606
365,740.6092886124067
366,740.6373999865494
367,740.6675415573188
368,740.6996671624898
369,740.7337256452948
370,740.7696610281492
371,740.8074127022873
372,740.8469156322859
373,740.8881005742714
374,740.9308943063967
375,740.9752198700478
376,741.0209968202973
377,741.0681414843768
378,741.116567227296
379,741.1661847240491
380,741.2169022380282
381,741.2686259052715
382,741.3212600240641
383,741.3747073492507
384,741.4288693904825
385,741.4836467135062
386,741.5389392434757
387,741.5946465691081
388,741.6506682462815
389,741.7069040993961
390,741.7632545185712
391,741.8196207506891
392,741.8759051824852
393,741.932011614225
394,741.9878455228338
395,742.0433143136083
396,742.0983275598514
397,742.1527972299781
398,742.2066379018178
399,742.2597669639979
400,742.312104804432
401,742.3635749860446
402,742.4141044098714
403,742.4636234655388
404,742.5120661688851
405,742.5593702862587
406,742.605477444898
407,742.6503332287394
408,742.6938872590054
409,742.7360932589772
410,742.7769091024711
411,742.8162968456746
412,742.8542227421696
413,742.8906572411329
414,742.9255749688698
415,742.958954693957
416,742.9907792763456
417,743.0210356008266
418,743.0497144953795
419,743.0768106351361
420,743.1023224329356
421,743.1262519176054
422,743.1486046011357
423,743.1693893358481
424,743.1886181625616
425,743.206306150718
426,743.2224712314577
427,743.2371340247134
428,743.2503176614542
429,743.2620476022463
430,743.2723514533458
431,743.2812587816557
432,743.2888009300385
433,743.2950108345372
434,743.2999228449189
435,743.3035725497116
436,743.3059966067307
437,743.307232580121
438,743.3073187850599
439,743.306294141313
440,743.3041980367187
441,743.3010702015036
442,743.2969505941359
443,743.2918792991794
444,743.2858964372554
445,743.2790420868068
446,743.2713562169703
447,743.2628786305316
448,743.2536489157321
449,743.2437064055863
450,743.2330901433613
451,743.221838852932
452,743.2099909128323
453,743.1975843329276
454,743.1846567327326
455,743.1712453205474
456,743.1573868728113
457,743.1431177133218
458,743.1284736921938
459,743.1134901646226
460,743.0982019696168
461,743.0826434088815
462,743.0668482259931
463,743.0508495859376
464,743.0346800549833
465,743.0183715807636
466,743.0019554724587
467,742.9854623810435
468,742.9689222796184
469,742.952364443761
470,742.9358174317229
471,742.9193090642307
472,742.9028664036855
473,742.8865157326451
474,742.8702825315825
475,742.8541914560434
476,742.8382663135092
477,742.8225300404664
478,742.8070046803178
479,742.791711362771
480,742.7766702852233
481,742.7619006965169
482,742.7474208833927
483,742.7332481600233
484,742.719398861065
485,742.7058883386013
486,742.6927309631832
487,742.6799401289663
488,742.6675282627995
489,742.6555068370528
490,742.643886385987
491,742.6326765254928
492,742.6218859759796
493,742.6115225879963
494,742.6015933698626
495,742.5921045163057
496,742.5830614369881
497,742.5744687838721
498,742.5663304764745
499,742.5586497240892
500,742.551429043956
501,742.5446702741759
502,742.538374579988
503,742.5325424519483
504,742.52717369471
505,742.5222674055325
506,742.5178219422394
507,742.5138348809468
508,742.5103029643775
509,742.507222041862
510,742.5045870021551
511,742.5023917000452
512,742.5006288776233
513,742.4992900812059
514,742.4983655752864
515,742.4978442553396
516,742.4977135616211
517,742.4979593961708
518,742.4985660451072
519,742.4995161080434
520,742.5007904361129
521,742.5023680797137
522,742.5042262467767
523,742.5063402722018
524,742.5086835990815
525,742.5112277723268
526,742.513942445218
527,742.5167953991803
528,742.51975257679
529,742.5227781277683
530,742.5258344675487
531,742.528882347892
532,742.5318809389353
533,742.534787922041
534,742.5375595928898
535,742.54015097443
536,742.5425159394774
537,742.5446073428488
538,742.5463771628966
539,742.5477766522314
540,742.5487564973715
541,742.5492669870744
542,742.5492581891377
543,742.5486801354377
544,742.5474830148514
545,742.5456173735246
546,742.5430343217506
547,742.5396857465521
548,742.5355245288722
549,742.5305047640547
550,742.5245819840446
551,742.5177133795154
552,742.5098580199526
553,742.5009770696312
554,742.4910339974504
555,742.479994778727
556,742.467828087226
557,742.4545054758285
558,742.4400015442385
559,742.4242940920416
560,742.4073642553442
561,742.3891966252145
562,742.3697793462004
563,742.3491041933187
564,742.3271666260774
565,742.3039658183505
566,742.2795046632241
567,742.2537897522725
568,742.2268313291331
569,742.1986432177881
570,742.1692427265752
571,742.1386505295261
572,742.1068905270988
573,742.0739896886872
574,742.0399778794373
575,742.0048876738977
576,741.9687541589667
577,741.9316147285911
578,741.8935088727317
579,741.8544779631324
580,741.8145650382863
581,741.7738145896845
582,741.7322723510107
583,741.689985091528
584,741.6470004145684
585,741.6033665618107
586,741.5591322238866
587,741.5143463577344
588,741.4690580110384
589,741.4233161540615
590,741.3771695191949
591,741.33066644862
592,741.2838547505486
593,741.2367815645065
594,741.1894932359824
595,741.1420352005013
596,741.0944518768639
597,741.0467865689911
598,740.9990813755803
599,740.9513771066115
600,740.9037132056366
601,740.8561276767781
602,740.8086570155019
603,740.7613361424559
604,740.7141983398777
605,740.6672751902195
606,740.6205965167712
607,740.5741903262561
608,740.528082753563
609,740.4822980089116
610,740.4368583277682
611,740.3917839237553
612,740.3470929446977
613,740.3028014319307
614,740.2589232831243
615,740.2154702190902
616,740.1724517551867
617,740.1298751779714
618,740.0877455276997
619,740.0460655871836
620,740.0048358774418
621,739.9640546605057
622,739.9237179497387
623,739.883819528084
624,739.8443509747457
625,739.8053017008871
626,739.7666589949874
627,739.7284080784908
628,739.6905321722326
629,739.6530125737893
630,739.6158287454763
631,739.578958412409
632,739.5423776699469
633,739.5060610998419
634,739.469981894348
635,739.4341119874305
636,739.3984221921494
637,739.3628823433299
638,739.3274614446491
639,739.2921278191832
640,739.2568492623209
641,739.2215931958671
642,739.1863268221889
643,739.151017277347
644,739.1156317823119
645,739.0801377915839
646,739.0445031387624
647,739.0086961787811
648,738.9726859266144
649,738.9364421922803
650,738.8999357119336
651,738.8631382748018
652,738.8260228457202
653,738.7885636831421
654,738.7507364527139
655,738.7125183367251
656,738.6738881398624
657,738.6348263916568
658,738.5953154458273
659,738.5553395764475
660,738.5148850705826
661,738.4739403168428
662,738.4324958892698
663,738.3905446260707
664,738.3480817028212
665,738.3051046997825
666,738.2616136629078
667,738.2176111580908
668,738.1731023182865
669,738.1280948833173
670,738.0825992323855
671,738.0366284095021
672,737.9901981421966
673,737.9433268539674
674,737.8960356708664
675,737.8483484223558
676,737.8002916361801
677,737.751894526595
678,737.7031889750275
679,737.6542095021914
680,737.6049932308465
681,737.5555798386197
682,737.5060115005008
683,737.4563328207503
684,737.4065907540485
685,737.3568345157628
686,737.3071154811569
687,737.2574870732218
688,737.208004638693
689,737.1587253118345
690,737.1097078657649
691,737.0610125514099
692,737.0127009245193
693,736.9648356615392
694,736.9174803654557
695,736.8706993629819
696,736.8245574945917
697,736.779119898935
698,736.7344517931724
699,736.6906182507953
700,736.6476839785189
701,736.6057130938368
702,736.5647689048725
703,736.5249136942498
704,736.4862085087457
705,736.448712956384
706,736.4124850123428
707,736.3775808346543
708,736.3440545902998
709,736.3119582920003
710,736.2813416457616
711,736.2522519090007
712,736.2247337588585
713,736.1988291701231
714,736.1745773021037
715,736.152014393819
716,736.1311736669935
717,736.112085236523
718,736.0947760282444
719,736.0792697040017
720,736.0655865940585
721,736.0537436368741
722,736.043754326222
723,736.0356286656898
724,736.02937313075
725,736.0249906387144
726,736.0224805269121
727,736.0218385394036
728,736.0230568225934
729,736.0261239302986
730,736.031024839147
731,736.0377409755098
732,736.0462502553592
733,736.0565271384033
734,736.068542697561
735,736.0822647043807
736,736.0976577304954
737,736.1146832647275
738,736.1332998451246
739,736.1534632050409
740,736.1751264323262
741,736.1982401406354
742,736.2227526518119
743,736.2486101882723
744,736.2757570743631
745,736.3041359457317
746,736.3336879658025
747,736.3643530484634
748,736.3960700860468
749,736.4287771816121
750,736.462411884389
751,736.496911427118
752,736.5322129640062
753,736.5682538081
754,736.6049716669442
755,736.6423048753707
756,736.6801926241554
757,736.7185751831738
758,736.7573941176378
759,736.796592495968
760,736.8361150877926
761,736.8759085505394
762,736.9159216032234
763,736.9561051863378
764,736.9964126070869
765,737.0367996694483
766,737.0772247887363
767,737.117649090503
768,737.1580364937428
769,737.1983537784137
770,737.2385706372851
771,737.2786597121304
772,737.3185966143535
773,737.3583599302333
774,737.3979312110787
775,737.437294948651
776,737.4764385361965
777,737.515352215328
778,737.554029008928
779,737.5924646403283
780,737.630657439249
781,737.6686082351968
782,737.7063202391383
783,737.7437989142479
784,737.7810518364079
785,737.8180885449214
786,737.8549203836667
787,737.8915603328095
788,737.9280228312497
789,737.9643235901792
790,738.0004793983665
791,738.0365079199911
792,738.0724274860387
793,738.1082568804532
794,738.1440151224235
795,738.1797212462764
796,738.2153940804089
797,738.2510520266018
798,738.2867128410012
799,738.3223934181013
800,738.3581095790962
801,738.3938758659252
802,738.4297053421969
803,738.4656094020748
804,738.5015975882766
805,738.5376774206013
806,738.5738542367263
807,738.6101310472363
808,738.6465084068406
809,738.6829843034725
810,738.7195540665479
811,738.756210295255
812,738.7929428074883
813,738.8297386098827
814,738.8665818892632
815,738.9034540257057
816,738.9403336273518
817,738.9771965870967
818,739.0140161611504
819,739.0507630692472
820,739.0874056160496
821,739.1239098331076
822,739.160239640528
823,739.19635702719
824,739.2322222479003
825,739.2677940353718
826,739.3030298244522
827,739.3378859857021
828,739.3723180653102
829,739.4062810284456
830,739.4397295034328
831,739.4726180244726
832,739.5049012708627
833,739.5365343007263
834,739.567472777249
835,739.5976731854919
836,739.6270930380543
837,739.6556910681211
838,739.6834274086699
839,739.7102637567982
840,739.7361635222761
841,739.7610919595649
842,739.7850162826661
843,739.8079057623296
844,739.8297318053817
845,739.850468016246
846,739.8700902409893
847,739.8885765943545
848,739.9059074702645
849,739.9220655362965
850,739.9370357127165
851,739.9508051367618
852,739.9633631129052
853,739.9747010498336
854,739.9848123849018
855,739.993692496918
856,740.0013386082317
857,740.0077496772068
858,740.0129262823107
859,740.0168704992551
860,740.0195857728329
861,740.0210767851707
862,740.0213493219838
863,740.0204101381017
864,740.0182668232005
865,740.0149276685094
866,740.0104015353204
867,740.0046977262776
868,739.9978258604817
869,739.9897957533592
870,739.9806173020537
871,739.970300376873
872,739.9588547191212
873,739.946289845499
874,739.932614959209
875,739.917838867957
876,739.9019699091028
877,739.8850158822025
878,739.8669839891029
879,739.8478807816927
880,739.8277121174478
881,739.8064831229985
882,739.7841981659858
883,739.7608608353939
884,739.736473930394
885,739.711039457649
886,739.6845586370812
887,739.6570319162228
888,739.6284589933402
889,739.5988388494636
890,739.5681697892883
891,739.5364494907232
892,739.5036750627278
893,739.4698431110525
894,739.4349498115105
895,739.3989909903759
896,739.3619622113978
897,739.3238588687958
898,739.2846762854662
899,739.2444098154785
900,739.2030549497742
901,739.1606074238334
902,739.1170633260426
903,739.0724192056143
904,739.0266721791327
905,738.9798200349611
906,738.9318613347968
907,738.8827955117199
908,738.8326229642803
909,738.7813451464655
910,738.7289646536849
911,738.675485305157
912,738.6209122232794
913,738.5652519106601
914,738.5085123254237
915,738.4507029551686
916,738.3918348896426
917,738.3319208920014
