frame_number,force
0,788.0375300000636
1,788.2117095941987
2,788.3664038623174
3,788.4839684943491
4,788.5502254551818
5,788.555706632448
6,788.4964211923681
7,788.3741117963447
8,788.1960006319058
9,787.9740490988099
10,787.7237854432669
11,787.4628040079521
12,787.2091000241218
13,786.9794474499018
14,786.7880215321725
15,786.6454059214508
16,786.5580414766206
17,786.5281136461668
18,786.5538446323468
19,786.6301317318537
20,786.7494368534678
21,786.9027914333724
22,787.0807608354186
23,787.2742355631372
24,787.4749818168231
25,787.6759628719451
26,787.8714995174938
27,788.0573502157048
28,788.2307640566875
29,788.3905199306657
30,788.536939394121
31,788.6718488236605
32,788.7984591953575
33,788.9211362675996
34,789.0450585105845
35,789.1757895284288
36,789.3188070212888
37,789.4790361687124
38,789.6604425200587
39,789.8657397011784
40,790.0962463981064
41,790.3518928373546
42,790.6313535032788
43,790.9322814029246
44,791.2516310065793
45,791.5860683887058
46,791.9324645188701
47,792.2884406106299
48,792.652890231483
49,793.0263663890909
50,793.4112140374727
51,793.8113563665237
52,794.2317058648669
53,794.6772592363097
54,795.1520254343652
55,795.6579967230633
56,796.1943810568793
57,796.757267367318
58,797.3398070337814
59,797.9328873400897
60,798.5261735038331
61,799.1093288358015
62,799.6731979902318
63,800.2107568134417
64,800.7176934981665
65,801.192578817372
66,801.6366784591689
67,802.053524077243
68,802.4483736407194
69,802.8276621512792
70,803.1984979251711
71,803.5682254855761
72,803.9440592552809
73,804.3327794536674
74,804.740465834499
75,805.1722347474573
76,805.6319501284194
77,806.1219006105612
78,806.6424698436573
79,807.1918650657286
80,807.7659906988353
81,808.3585458868989
82,808.9613890142845
83,809.5651577841212
84,810.1600780879024
85,810.7368630077026
86,811.2876018861051
87,811.8065465748354
88,812.2906977716893
89,812.7400924580527
90,813.1577252548252
91,813.5491063237894
92,813.921530110877
93,814.2831655244827
94,814.6420807297571
95,815.0053129399959
96,815.3780971781861
97,815.7633585589548
98,816.1615304906672
99,816.5706970706722
100,816.9870011371436
101,817.4052273848753
102,817.8194640097104
103,818.2237635731353
104,818.6127524231943
105,818.982153851263
106,819.3291840458953
107,819.6527774607628
108,819.9536238138068
109,820.2340379206868
110,820.4977078060535
111,820.7493701714569
112,820.9944497475238
113,821.2386737591742
114,821.4876551407741
115,821.7464562906513
116,822.0191917662474
117,822.3087564489497
118,822.6167398542793
119,822.9435230996193
120,823.2884992192188
121,823.6503388391068
122,824.0272363589879
123,824.4170985621421
124,824.8176647264668
125,825.2265669996827
126,825.6413489580302
127,826.05946317321
128,826.47827333069
129,826.8950947526383
130,827.3073104774352
131,827.7125869993117
132,828.1091821302521
133,828.496298538168
134,828.8744066905647
135,829.2454514645377
136,829.6128740798537
137,829.9814247386782
138,830.3567937730526
139,830.745123794923
140,831.1524730679151
141,831.5842915211305
142,832.0449541516674
143,832.5373747147876
144,833.0627040296671
145,833.6201114750672
146,834.2066537376013
147,834.817243362163
148,835.4447364227273
149,836.0801632515945
150,836.7131284757828
151,837.3324023036387
152,837.9267060264399
153,838.4856577023229
154,839.0007948904808
155,839.4665408510384
156,839.8809439474167
157,840.2460205454319
158,840.5675901027001
159,840.8545993526122
160,841.1180483180356
161,841.3697084438794
162,841.6208436553602
163,841.8811154105939
164,842.1577895008968
165,842.4552885391013
166,842.7750740608091
167,843.115804715082
168,843.473694571866
169,843.8429865040769
170,844.2164708799357
171,844.5860178827899
172,844.9431256531651
173,845.2794919559668
174,845.587599517977
175,845.8612859968781
176,846.096260377227
177,846.2905247744472
178,846.4446571460213
179,846.5619071141326
180,846.6480603737772
181,846.7110412013005
182,846.7602494340754
183,846.8056685611076
184,846.8568301218015
185,846.9217651999622
186,847.0061029175573
187,847.1124723863928
188,847.240313367647
189,847.3861089889133
190,847.543965912791
191,847.7064326224615
192,847.8654628659523
193,848.013447721041
194,848.1442224112162
195,848.253922427511
196,848.3415561336526
197,848.4091931763057
198,848.4617271722803
199,848.5062359993656
200,848.5510224114954
201,848.6044687799568
202,848.6738719245764
203,848.7644220365936
204,848.8784539341901
205,849.0150477516735
206,849.1700098110208
207,849.3362321991106
208,849.504406205119
209,849.6640377182205
210,849.8046778711322
211,849.9172449486812
212,849.9952791416447
213,850.0359514984502
214,850.0406616798433
215,850.0151114226211
216,849.9688154189815
217,849.9140921660962
218,849.8646603825418
219,849.8340412123816
220,849.8340036949592
221,849.8732712754494
222,849.9566458829677
223,850.0846351478614
224,850.2536051965503
225,850.4564238457422
226,850.6834971882064
227,850.9240394293994
228,851.1673771475371
229,851.404100975804
230,851.6269346449463
231,851.8312588807872
232,852.0152747827685
233,852.1798152092667
234,852.3278342908062
235,852.4636436931931
236,852.5920158089094
237,852.7173142608464
238,852.8428157353743
239,852.9703432742594
240,853.100246176861
241,853.2316589909699
242,853.3628909438327
243,853.4917787660228
244,853.6158932367941
245,853.7325910712799
246,853.8389931497246
247,853.9320035082329
248,854.0084503642057
249,854.065358259218
250,854.1002958631173
251,854.1117152926973
252,854.0991988149249
253,854.0635388605307
254,854.0065983432623
255,853.9309461458183
256,853.8393323166625
257,853.7341241192789
258,853.6168398428829
259,853.487895246482
260,853.3466294774237
261,853.1916075205347
262,853.0211195721362
263,852.8337463896013
264,852.6288559500962
265,852.4069359969626
266,852.1697283194019
267,851.9201865142569
268,851.6623055413645
269,851.4008675612043
270,851.1411343977096
271,850.8885052160965
272,850.6481467279888
273,850.4245966111353
274,850.2213500583872
275,850.0404603374009
276,849.8821982697028
277,849.7448158529807
278,849.6244579919515
279,849.5152705464707
280,849.4097474616773
281,849.2993254546159
282,849.175178270684
283,849.0291118653311
284,848.8544356177583
285,848.6466837492843
286,848.4040838625449
287,848.1277144222255
288,847.8213499225443
289,847.4910455123018
290,847.1445482540905
291,846.7906320925596
292,846.4384419953021
293,846.0969113745304
294,845.7742884492193
295,845.4777694760141
296,845.2132032850834
297,844.9848248686683
298,844.7950006241958
299,844.6440052707042
300,844.5298782099816
301,844.4484174851669
302,844.3933637468149
303,844.3568021508754
304,844.3297662919299
305,844.302980517964
306,844.2676491240893
307,844.2162007334374
308,844.1429096880897
309,844.0443306128902
310,843.9195014107851
311,843.7699006334401
312,843.5991801372119
313,843.4127190427685
314,843.2170555603067
315,843.0192553237267
316,842.8262760808828
317,842.6443895501476
318,842.4787152738513
319,842.3329048336061
320,842.2089934469694
321,842.1074162995099
322,842.0271694458905
323,841.9660772959496
324,841.9211127555928
325,841.8887114762603
326,841.8650362280916
327,841.8461783215992
328,841.8283209934551
329,841.8079226468204
330,841.7819827363511
331,841.7484040978761
332,841.7063739234773
333,841.6566132967682
334,841.601349211943
335,841.5439413296798
336,841.4882037914047
337,841.4375556260137
338,841.3941824309096
339,841.3583853349179
340,841.328240468772
341,841.2996191568237
342,841.2665502748714
343,841.2218522324168
344,841.1579279033923
345,841.0676110280714
346,840.9449731394303
347,840.7860148135771
348,840.5891529518993
349,840.3554064068248
350,840.0882234670731
351,839.7929862262163
352,839.4763146598693
353,839.1453245571439
354,838.8069609705453
355,838.4674707259294
356,838.1320381540297
357,837.8045928133898
358,837.4877808003104
359,837.1830656460404
360,836.8909093818584
361,836.6109856211806
362,836.3423849698152
363,836.0837848165909
364,835.833569551397
365,835.5898990041393
366,835.3507345455542
367,835.1138499995362
368,834.8768716607375
369,834.6373902524615
370,834.3931587895947
371,834.1423449672855
372,833.8837663341371
373,833.6170226272246
374,833.3424662172522
375,833.0610119945429
376,832.7738522826602
377,832.4821762577782
378,832.1869792854603
379,831.888994702537
380,831.5887226407848
381,831.2865038235013
382,830.9825993157725
383,830.6772645549911
384,830.3708170099363
385,830.0636892373013
386,829.7564564966336
387,829.4498431871184
388,829.1447284261848
389,828.8421669616681
390,828.5434193918272
391,828.2499634802546
392,827.9634486312103
393,827.6855604991937
394,827.4177831850577
395,827.1610849166186
396,826.9156031522336
397,826.680441583627
398,826.453680811774
399,826.232636338435
400,826.0143081955385
401,825.7959117838406
402,825.5753778869152
403,825.3517339429447
404,825.1253031784307
405,824.8976848905011
406,824.6715141430716
407,824.4500376832098
408,824.2365789448412
409,824.0339933911108
410,823.8442244513118
411,823.6680496546993
412,823.5050612689378
413,823.3538708195755
414,823.2124762471936
415,823.0786979236324
416,822.9505861793328
417,822.8267263865507
418,822.7064033191306
419,822.5896181272778
420,822.4769718997434
421,822.3694433232566
422,822.2680995025823
423,822.1737901179409
424,822.0868859785529
425,822.007128939433
426,821.9336509608074
427,821.8651900464747
428,821.8004823704832
429,821.7387515810497
430,821.6801662301083
431,821.6261214157938
432,821.579239028694
433,821.5430633962627
434,821.5215222683121
435,821.5182883841945
436,821.536190279672
437,821.5767856926342
438,821.6401537564188
439,821.7249135495163
440,821.8284500359349
441,821.9473140262097
442,822.0777400043019
443,822.2161888259557
444,822.3597938922775
445,822.5066031640654
446,822.6555751300835
447,822.8063725277532
448,822.9590526377518
449,823.1137528029672
450,823.2704339131976
451,823.4287088138018
452,823.5877625173196
453,823.7463593937392
454,823.9029219020094
455,824.0556593017228
456,824.2027271891216
457,824.3424039278274
458,824.473267464946
459,824.5943460531861
460,824.7052135213193
461,824.806011918008
462,824.8973998544169
463,824.9804300732674
464,825.056361505352
465,825.1264286444053
466,825.1916243563885
467,825.2525696606168
468,825.3095165852216
469,825.3624712398727
470,825.4113786565766
471,825.4563060925967
472,825.497582530605
473,825.5358698891716
474,825.5721500025616
475,825.6076239972979
476,825.6435406151538
477,825.6809844005174
478,825.7206541960701
479,825.7626549244999
480,825.8063259527689
481,825.8501394165231
482,825.8917074404541
483,825.9279254555518
484,825.955253932527
485,825.9701171335862
486,825.9693813492789
487,825.9508594801566
488,825.9137677419087
489,825.8590451301077
490,825.7894567372851
491,825.7094408182118
492,825.624711007031
493,825.5416726825952
494,825.4667420810262
495,825.4056588401642
496,825.3628661939193
497,825.341020610813
498,825.340692086246
499,825.360311392635
500,825.3963942721227
501,825.4440275581038
502,825.4975575695242
503,825.5513929656588
504,825.6008213363032
505,825.6427319746715
506,825.6761393701698
507,825.7024234351154
508,825.7252422267379
509,825.7501186953888
510,825.7837469313619
511,825.8331068333509
512,825.9045157893008
513,826.0027624015106
514,826.1304444461874
515,826.2875861897954
516,826.4715688451821
517,826.6773767095772
518,826.8981217466056
519,827.1257606947429
520,827.3518899983594
521,827.5685167322163
522,827.7687454147475
523,827.9473570459613
524,828.1012626974998
525,828.2297919623339
526,828.3347528269351
527,828.4202038177667
528,828.4919240438064
529,828.5566389136515
530,828.6211310568494
531,828.6914103972472
532,828.7721096319929
533,828.8661999611339
534,828.9750173416818
535,829.0985124674687
536,829.2356200546694
537,829.3846648951302
538,829.5437479855383
539,829.7110706217686
540,829.8851632138314
541,830.0649961739183
542,830.2499603062654
543,830.4397097657508
544,830.6338700893867
545,830.8316413874214
546,831.0313700716807
547,831.2301966656175
548,831.4238873306908
549,831.6069185167274
550,831.7728260422705
551,831.9147809208239
552,832.026329039674
553,832.1022155401524
554,832.1391870037453
555,832.1366345248479
556,832.0969436532977
557,832.0254726942954
558,831.9301630278927
559,831.8208495884576
560,831.7083756390008
561,831.603640212471
562,831.5167143202115
563,831.4561292536036
564,831.428372519378
565,831.437565651373
566,831.4852766112555
567,831.5704374164344
568,831.6893758528266
569,831.8360050225186
570,832.0022190668392
571,832.1785047325299
572,832.3547210243653
573,832.5209639775359
574,832.6684301638967
575,832.7901971528331
576,832.8818375767767
577,832.941791078012
578,832.9714526932208
579,832.9749845805425
580,832.9588893508113
581,832.9313906745521
582,832.9016758085525
583,832.8790782662941
584,832.8722914274292
585,832.8886818767409
586,832.9337332571215
587,833.0106303510951
588,833.1199915518067
589,833.2597575117815
590,833.4252408413098
591,833.6093464398397
592,833.802982255053
593,833.9956788333118
594,834.1764113893945
595,834.3345752123508
596,834.4610191532983
597,834.549009323701
598,834.5949896419817
599,834.5990317834169
600,834.5649137095168
601,834.4998150981415
602,834.4136567482859
603,834.3181365534275
604,834.2255374582503
605,834.1474201439825
606,834.0933606485955
607,834.0699159953283
608,834.0799726463162
609,834.1225634771528
610,834.1931555384896
611,834.2843345853421
612,834.386763092541
613,834.4902771759573
614,834.5850017898456
615,834.6623801773469
616,834.7160255683291
617,834.7423210157077
618,834.7407254085944
619,834.7137767549028
620,834.666796728079
621,834.6073016121193
622,834.544147112046
623,834.4864899634134
624,834.4427142341492
625,834.4195082085474
626,834.4212580351098
627,834.4498400273334
628,834.504780564129
629,834.5836697361312
630,834.6826931706324
631,834.7971731443109
632,834.9220551021178
633,835.0523131393572
634,835.1832670271805
635,835.3108124329675
636,835.431575491205
637,835.5430099303177
638,835.6434548701698
639,835.7321674750827
640,835.8093401186414
641,835.8761041684126
642,835.9345087945952
643,835.9874471156666
644,836.0384952066296
645,836.0916411074501
646,836.1509075373729
647,836.2199030596178
648,836.3013652100673
649,836.3967796326194
650,836.5061593330416
651,836.6280385221302
652,836.7596832350237
653,836.8974668712816
654,837.037325466734
655,837.1752069980016
656,837.3074563547123
657,837.4311152099184
658,837.5441442240442
659,837.6455808922376
660,837.7356321699532
661,837.8156858639672
662,837.8882259583361
663,837.956647889083
664,838.0249716919626
665,838.0974462764968
666,838.17804785431
667,838.2699071206306
668,838.3747392612538
669,838.492381801561
670,838.6205546544833
671,838.754929095967
672,838.8895230159189
673,839.0173534103253
674,839.1312139498292
675,839.2244299638215
676,839.291476314635
677,839.3284081935751
678,839.3331175931686
679,839.3054587811091
680,839.2472811961128
681,839.1623853450451
682,839.0563933615088
683,838.9365106231882
684,838.8111527313125
685,838.6894227399024
686,838.5804441887079
687,838.4925852509098
688,838.4326471875514
689,838.4051280786055
690,838.4116928785469
691,838.4509679531845
692,838.5187306578786
693,838.6084915466315
694,838.7123836398924
695,838.8222016062292
696,838.9303993541655
697,839.0308732619876
698,839.1194229449521
699,839.1938658497997
700,839.2538573610108
701,839.3005139282869
702,839.3359460834687
703,839.3627924483234
704,839.3838218498004
705,839.4016400327936
706,839.4184954738078
707,839.4361407721951
708,839.4557005394635
709,839.4775318937677
710,839.5011172151119
711,839.5250683457826
712,839.5473234412009
713,839.5655727997481
714,839.5778677353809
715,839.5832775077326
716,839.582405654488
717,839.5775944324624
718,839.5727388780318
719,839.5727584237093
720,839.5828707992139
721,839.6078433284308
722,839.6513679615598
723,839.715648977088
724,839.8012346212254
725,839.9070778488962
726,840.0307741321807
727,840.1688983511099
728,840.3173614018003
729,840.4717330232411
730,840.6275133150149
731,840.7803625444933
732,840.9263077400296
733,841.06193279972
734,841.1845332097243
735,841.2921956895443
736,841.3837669144267
737,841.4587071274
738,841.5168650514936
739,841.5582344740808
740,841.5827504167382
741,841.5901635487658
742,841.5800106045646
743,841.5516865823336
744,841.5046206136105
745,841.4385471853
746,841.3538377203051
747,841.2518262655504
748,841.1350488321496
749,841.007328190549
750,840.8736667646192
751,840.739943436028
752,840.6124385328117
753,840.4972438542935
754,840.3996523840851
755,840.3236414535924
756,840.2715401571262
757,840.2439147393922
758,840.2396463776769
759,840.2561410525169
760,840.2896049969703
761,840.3353287569114
762,840.3879401256683
763,840.4416162359108
764,840.490286075553
765,840.5278810805609
766,840.5486770958568
767,840.5477239036398
768,840.5213121830272
769,840.4674035658086
770,840.3859462025812
771,840.2790105525462
772,840.1507070320112
773,840.006883152139
774,839.8546297195115
775,839.7016459719255
776,839.555527765702
777,839.4230563648898
778,839.3095704160498
779,839.2184914639101
780,839.1510493804208
781,839.1062301800057
782,839.0809465050198
783,839.0704039823923
784,839.0686041201991
785,839.0689007171941
786,839.0645332293166
787,839.04909936683
788,839.0169704042734
789,838.963662953452
790,838.8861595498294
791,838.7831452177115
792,838.6551223476695
793,838.5043809531796
794,838.3348180966681
795,838.1516100814587
796,837.9607542607317
797,837.768524861128
798,837.5809206337905
799,837.4031992583657
800,837.2395767675006
801,837.0931215269009
802,836.9658153657766
803,836.8587192011333
804,836.7721813188463
805,836.7060540257803
806,836.6599088860603
807,836.6332340855221
808,836.6255680767921
809,836.6365131288911
810,836.6656043613476
811,836.7120635387578
812,836.7745101965693
813,836.8507220212899
814,836.9375253039516
815,837.0308523890965
816,837.1259489411328
817,837.2176836618426
818,837.3009128930429
819,837.3708603792787
820,837.4234705496989
821,837.4556841954949
822,837.465584138348
823,837.4523808440082
824,837.4162553082913
825,837.3581287728967
826,837.279453982979
827,837.1821048411266
828,837.0683941975684
829,836.941197050104
830,836.8041150008074
831,836.6616009004923
832,836.5189787378722
833,836.3823321423093
834,836.2582691392334
835,836.1535843810177
836,836.0748390400344
837,836.027879904839
838,836.0173341432004
839,836.0461422044491
840,836.1152121800257
841,836.223274238253
842,836.3669753791031
843,836.5411954817871
844,836.7395121640225
845,836.9547193172467
846,837.1793202359955
847,837.4059561201321
848,837.6277696278637
849,837.8387263678163
850,838.0339232346813
851,838.209902113763
852,838.3649578516631
853,838.4993823626813
854,838.6155451031318
855,838.7177115358793
856,838.8115583039872
857,838.9034233256652
858,838.9993880370429
859,839.1043182411689
860,839.2210054750946
861,839.349558541525
862,839.4871796857065
863,839.6284018529377
864,839.7657627280437
865,839.8907835516137
866,839.9950589396843
867,840.0712730309181
868,840.1140135954635
869,840.1203159581314
870,840.0899094139669
871,840.0251644278683
872,839.9307616213081
873,839.8131266006968
874,839.6796918124293
875,839.5380559141853
876,839.3951226913055
877,839.256320638042
878,839.125015122623
879,839.0022058291332
880,838.8865527883677
881,838.7747170750607
882,838.6619554193417
883,838.5428718957313
884,838.4122041990213
885,838.265516566397
886,838.0996911293996
887,837.9131489048528
888,837.705786443595
889,837.4786797646636
890,837.2336657546643
891,836.9729333042575
892,836.6987235448631
893,836.4131673264066
894,836.118226977163
895,835.8156989317195
896,835.507266800743
897,835.1946233841123
898,834.8796688433047
899,834.5647504502004
900,834.2528741398883
901,833.9478162720765
902,833.654092273769
903,833.3767706973159
904,833.1211361517811
905,832.8922122317093
906,832.6941818172097
907,832.5297898839159
908,832.3998514945249
909,832.302981170466
910,832.2356068953545
911,832.1922600357723
912,832.1660765129343
913,832.1494248561036
914,832.1345849261618
915,832.1144098123909
916,832.0829002554121
