frame_number,force
0,663.5750800000662
1,663.5212036710566
2,663.4735442917737
3,663.4376082648192
4,663.4176320755746
5,663.4162774158737
6,663.4346088195266
7,663.4723075578883
8,663.5280298422588
9,663.599813264681
10,663.6854602437311
11,663.7828568471504
12,663.8902063659322
13,664.0061701191855
14,664.1299181573377
15,664.2611010418232
16,664.3997564471629
17,664.5461563824755
18,664.7005871660024
19,664.8630514874046
20,665.0329037577335
21,665.2084715940193
22,665.3867560441198
23,665.5633147761284
24,665.7323997424072
25,665.8873543760446
26,666.0212107841897
27,666.1273935385622
28,666.2004312836913
29,666.2365827739424
30,666.2342936631786
31,666.1944190122856
32,666.1201754408819
33,666.0168220798233
34,665.8911065592957
35,665.7505466751534
36,665.6026451491035
37,665.4541504214818
38,665.3104765332897
39,665.1753740496636
40,665.0509002253427
41,664.9376765606567
42,664.8353565400969
43,664.7431721043442
44,664.6604056561123
45,664.5866586640341
46,664.5218539103353
47,664.4659994566955
48,664.4188314509433
49,664.379499075828
50,664.3464250885679
51,664.3173826686535
52,664.2897324817247
53,664.2607176643365
54,664.2277311229356
55,664.1885241369399
56,664.1413754619794
57,664.0852490260603
58,664.0199335671056
59,663.9461147657731
60,663.865316183364
61,663.77966917206
62,663.6915246028378
63,663.60298195231
64,663.5154529126524
65,663.4293677260875
66,663.3440739104476
67,663.257907097148
68,663.1683757930485
69,663.072405272955
70,662.9666043413075
71,662.8475277211533
72,662.7119089117525
73,662.5568479071763
74,662.3799534397446
75,662.1794451492977
76,661.9542152096386
77,661.703848221151
78,661.4286138172517
79,661.1294650141185
80,660.8080699435072
81,660.4668682894966
82,660.1091057345478
83,659.738795527118
84,659.3605883565656
85,658.9795706459442
86,658.6010273863063
87,658.2301933290433
88,657.8719962150076
89,657.5307948403026
90,657.2101403054643
91,656.9126164774345
92,656.6398111204006
93,656.3924273263979
94,656.1704996209609
95,655.9736625151429
96,655.8014238426731
97,655.6533948380717
98,655.5294232461599
99,655.429587496746
100,655.354046960521
101,655.3027869560057
102,655.2753257289805
103,655.2704579008946
104,655.2860991536576
105,655.3192739013613
106,655.3662551871461
107,655.4228309044399
108,655.4846375245936
109,655.5474746977875
110,655.6075061266682
111,655.6612892684273
112,655.7056589350514
113,655.7375717049115
114,655.7540438206485
115,655.7522702881297
116,655.7299287267437
117,655.6855950768676
118,655.6191585006658
119,655.5321192457388
120,655.4276757466931
121,655.3105555379509
122,655.1866149717483
123,655.0623000891326
124,654.9440930940349
125,654.8380540133921
126,654.7495185426014
127,654.682952905426
128,654.6419137628058
129,654.6290335743124
130,654.6459648252569
131,654.693265558352
132,654.7702616816491
133,654.8749463479162
134,655.0039680618512
135,655.1527323967717
136,655.3156151764449
137,655.4862682957787
138,655.6579908018408
139,655.8241304570013
140,655.9784775005575
141,656.1156189698933
142,656.2312353906116
143,656.3223343508557
144,656.3874230005139
145,656.4266192446258
146,656.441689583617
147,656.4359947560503
148,656.414333649247
149,656.3826836773135
150,656.3478202543638
151,656.3167794456459
152,656.2961504751438
153,656.2912554814433
154,656.3053549239017
155,656.3390673199509
156,656.3901869958423
157,656.4540130193144
158,656.5241782188724
159,656.5938285481814
160,656.6569037906007
161,656.7092504962269
162,656.7493558926755
163,656.7785884523935
164,656.8009257394924
165,656.822226489084
166,656.8491644680046
167,656.8879911696084
168,656.9433275146039
169,657.0171855802726
170,657.1083768965811
171,657.2123815829632
172,657.3216622541582
173,657.4263403298838
174,657.5151228079642
175,657.576364834262
176,657.5991607022095
177,657.5743647258928
178,657.4954537039562
179,657.3591546043434
180,657.1657752814887
181,656.919199799936
182,656.6265518026538
183,656.2975846175527
184,655.9439040100748
185,655.5781433352969
186,655.213182587887
187,654.8614532767042
188,654.5343350202962
189,654.241640124708
190,653.991180341978
191,653.7883991098897
192,653.636046853318
193,653.5339000583203
194,653.4785724834011
195,653.46350752607
196,653.4792478174286
197,653.5140439414821
198,653.5547930977601
199,653.5882110002475
200,653.6020738651266
201,653.5863492062741
202,653.5340616150918
203,653.4417966483966
204,653.3098194215769
205,653.1418554964176
206,652.9446197281435
207,652.7271677368378
208,652.5001095213345
209,652.2747103378236
210,652.0619254528522
211,651.8714489379915
212,651.7108763299572
213,651.5850797524092
214,651.4958727589607
215,651.4420026828227
216,651.4194585783719
217,651.4220338436379
218,651.4420443171364
219,651.4710892455697
220,651.5007667007
221,651.5233046893059
222,651.5321069425244
223,651.5222135814166
224,651.4906556936862
225,651.4366696559402
226,651.3617412075891
227,651.2694592760243
228,651.1651733256928
229,651.0554780259066
230,650.9475917535592
231,650.8487214018127
232,650.7654926320732
233,650.7034843150936
234,650.6668705272027
235,650.6581631849103
236,650.678062049407
237,650.7254395709687
238,650.7974896573629
239,650.8900392474444
240,650.997981854723
241,651.1157764678519
242,651.2379671452824
243,651.3596952151179
244,651.4771779315547
245,651.5881127030609
246,651.6919463521472
247,651.7899414057828
248,651.8849861352876
249,651.9811288994041
250,652.0828628104026
251,652.1942408030757
252,652.3179561069425
253,652.4545563434004
254,652.6019508608109
255,652.7553238534148
256,652.9074973982966
257,653.0497115878895
258,653.1727145439032
259,653.2679993931341
260,653.3290010393673
261,653.3520732742846
262,653.337101929488
263,653.2876711420847
264,653.2107801919152
265,653.1161856566217
266,653.0154924085219
267,652.9211241698622
268,652.8452739199587
269,652.7988904382829
270,652.7907366735523
271,652.8265772515579
272,652.9085924914588
273,653.0351271354858
274,653.2008348961309
275,653.3971902667521
276,653.6132575010804
277,653.8365806778487
278,654.0540903968708
279,654.2529693140059
280,654.4214418003346
281,654.5494523563478
282,654.6291940829134
283,654.6554567067121
284,654.6257858998941
285,654.5404732995502
286,654.402412173172
287,654.2168477299724
288,653.991034910798
289,653.7338105687791
290,653.4551015926587
291,653.1654151256604
292,652.8753640282981
293,652.5952527556235
294,652.3347080361552
295,652.1023294140656
296,651.9053680634552
297,651.7494803874696
298,651.6386055206572
299,651.5749816540359
300,651.5592720173944
301,651.5907421673122
302,651.6674254467451
303,651.786230538659
304,651.9429769352319
305,652.132381833383
306,652.3480523957313
307,652.5825480171843
308,652.8275645770774
309,653.0742622650979
310,653.3137209404674
311,653.5374744093021
312,653.7380574908249
313,653.9095011384586
314,654.0477264727717
315,654.1508047712555
316,654.2190570323814
317,654.2549728446446
318,654.2629502363081
319,654.2488917827425
320,654.2197167983484
321,654.1828535436897
322,654.1457628912135
323,654.1155246991925
324,654.0984982616006
325,654.1000544076663
326,654.1243724950438
327,654.174299759773
328,654.2512769543104
329,654.3553377046619
330,654.4851904669493
331,654.6383922087982
332,654.8116173439313
333,655.001009893417
334,655.202583213446
335,655.412605881014
336,655.62789706825
337,655.8459694384709
338,656.0650087873765
339,656.2837424595572
340,656.5012818707704
341,656.7170076001731
342,656.9305171932557
343,657.1416127947538
344,657.3502868738889
345,657.556667800879
346,657.7609098995305
347,657.963046812139
348,658.1628511808567
349,658.3597437434739
350,658.5527791594196
351,658.7407171830639
352,658.9221677964975
353,659.0957760461202
354,659.2603947688991
355,659.4151926964544
356,659.5596602064307
357,659.6934966282836
358,659.8163951536839
359,659.9277886490628
360,660.0266586152895
361,660.1115043863384
362,660.1805183420332
363,660.2319479392821
364,660.264573501004
365,660.2781985749616
366,660.2740391361725
367,660.2549104701676
368,660.2251424073528
369,660.1902008900929
370,660.1560563157906
371,660.1284071804735
372,660.1119130129214
373,660.1095839510842
374,660.1224166122623
375,660.1492930771366
376,660.187109602608
377,660.2310867365725
378,660.2752227916634
379,660.3128657961419
380,660.3373732966932
381,660.3428021995701
382,660.3245432406515
383,660.2798123710713
384,660.2079403226783
385,660.1104418592287
386,659.990873204428
387,659.8544956997908
388,659.7077688922953
389,659.5577086368384
390,659.4111691729131
391,659.2741362038852
392,659.1511326635132
393,659.0448258470913
394,658.9558888255701
395,658.8831246347155
396,658.8238213048195
397,658.774282208573
398,658.7304718928928
399,658.6887146350022
400,658.6463645147646
401,658.6023411030039
402,658.5574201286388
403,658.5142018515276
404,658.476748702883
405,658.4499623865373
406,658.4388226209594
407,658.4476163677907
408,658.4792626201576
409,658.5348146176148
410,658.6132130839949
411,658.7113528408728
412,658.8244821358651
413,658.946878825211
414,659.0726755378961
415,659.1966728294271
416,659.3149916792822
417,659.4254615029905
418,659.527704389563
419,659.6229460777616
420,659.713637394505
421,659.8029903835683
422,659.8945242410799
423,659.9916928255365
424,660.0976384147879
425,660.215083498648
426,660.3463313188703
427,660.4933118907669
428,660.6576079070571
429,660.8404270398056
430,661.0425279261801
431,661.2641309397054
432,661.5048474992475
433,661.7636498197602
434,662.0388807252385
435,662.3282793871343
436,662.6289915911416
437,662.9375510506377
438,663.2498490806155
439,663.56113300172
440,663.8660754739051
441,664.1589384909688
442,664.4338323709562
443,664.6850577157326
444,664.9075165537173
445,665.0971723208291
446,665.2515151369992
447,665.3699574336202
448,665.454069132762
449,665.5075759514413
450,665.5360844432661
451,665.5465518962078
452,665.5465758245285
453,665.543620461592
454,665.5443133284297
455,665.5539280752344
456,665.5761197044179
457,665.612905454872
458,665.6648171673049
459,665.7311182091092
460,665.809987498578
461,665.8986131990638
462,665.9931948343303
463,666.0889103640177
464,666.1799450742357
465,666.2596821351526
466,666.3211139452118
467,666.3574656827178
468,666.3629526292403
469,666.3335361035116
470,666.2675148142624
471,666.1658092187336
472,666.0318674093988
473,665.8712158498051
474,665.6907633260383
475,665.4980160891288
476,665.3003602956068
477,665.1045158877151
478,664.9161922759733
479,664.7399194667269
480,664.5790047544401
481,664.4355653834754
482,664.3106015049848
483,664.2040937971726
484,664.115121008629
485,664.041984741546
486,663.9823158049045
487,663.9331423984797
488,663.8909296197296
489,663.8516307970253
490,663.8108013206567
491,663.7638125411621
492,663.7061774541918
493,663.6339686553769
494,663.5442758404434
495,663.4356235376773
496,663.3082646633795
497,663.1642882992903
498,663.0075162041466
499,662.8431911766999
500,662.6774807129265
501,662.516845978872
502,662.3673579133842
503,662.2340566687615
504,662.1204319969647
505,662.028062171584
506,661.9564162933773
507,661.9028189484517
508,661.8625892197362
509,661.829372303733
510,661.7956646729333
511,661.7534972961395
512,661.6952046390675
513,661.6141879334808
514,661.505582997584
515,661.3667588953402
516,661.1976005641963
517,661.000560677796
518,660.7804887869356
519,660.5442558326827
520,660.3002053137001
521,660.0574841645434
522,659.8253204684416
523,659.6123121821622
524,659.4257826492114
525,659.2712562435987
526,659.152106925264
527,659.0694236874242
528,659.0221154959381
529,659.0072458366457
530,659.020549022521
531,659.057046806335
532,659.1116661539289
533,659.1797670554107
534,659.2575219865721
535,659.3421258926404
536,659.4318357986277
537,659.5258466713886
538,659.6240237819436
539,659.7265335824609
540,659.8334316975121
541,659.944271916216
542,660.0578001857243
543,660.1717964721779
544,660.2831157385897
545,660.3879454744161
546,660.4822452281882
547,660.562282882691
548,660.6251551841342
549,660.6691887875604
550,660.6941535688583
551,660.7012581904012
552,660.6929286777571
553,660.672403369966
554,660.643213456338
555,660.6086423162219
556,660.5712598556615
557,660.5326141369003
558,660.4931343016307
559,660.4522543313483
560,660.4087130904015
561,660.3609416178754
562,660.3074367266905
563,660.2470497108648
564,660.179170837256
565,660.1038287867262
566,660.021731458883
567,659.9342607503514
568,659.8434191962807
569,659.7517259615913
570,659.6620735805393
571,659.5775663242497
572,659.5013512967796
573,659.4364356521977
574,659.3854807671538
575,659.350583726766
576,659.3330805004908
577,659.3334071855011
578,659.3510316816286
579,659.3844469429037
580,659.4312226509265
581,659.4881308721682
582,659.551362914739
583,659.6168306051636
584,659.6805119575257
585,659.7387800650891
586,659.7886551618383
587,659.8279404236961
588,659.8552333159174
589,659.8698353308336
590,659.8716062527762
591,659.860822494237
592,659.83809496622
593,659.8043694520421
594,659.7609824148932
595,659.7097117692292
596,659.6527689363177
597,659.5927156762792
598,659.5323258898857
599,659.4744258605838
600,659.4217364426536
601,659.3767207603232
602,659.341425093513
603,659.3173031587722
604,659.3050400719526
605,659.3044220145991
606,659.3143022839782
607,659.3326901585426
608,659.3569534728888
609,659.384093654602
610,659.4110351695176
611,659.4348793434799
612,659.4530961731733
613,659.4636454849569
614,659.4650234454252
615,659.4562343194383
616,659.4367031004125
617,659.4061655644971
618,659.3645774755714
619,659.3120679604168
620,659.2489417836622
621,659.1757269997001
622,659.0932625391803
623,659.0028110818591
624,658.9061633188192
625,658.8056832303034
626,658.7042502447505
627,658.6050916880474
628,658.5115484159875
629,658.426839342945
630,658.3538669666904
631,658.2950603724724
632,658.2522263560018
633,658.22638853361
634,658.2176243291213
635,658.224938952251
636,658.246226110159
637,658.2783515197126
638,658.3173675703101
639,658.3588383407034
640,658.3982299714958
641,658.4313082698363
642,658.4544896474367
643,658.4651141408374
644,658.4616419929167
645,658.4437979378472
646,658.4126811076173
647,658.3708285797661
648,658.3221932531284
649,658.2719908758978
650,658.22638685782
651,658.1920265551731
652,658.1754571679901
653,658.1825248644896
654,658.2178319566868
655,658.2843080458055
656,658.382916437576
657,658.5125019800474
658,658.6697799198021
659,658.849458402058
660,659.0444869364784
661,659.2464327465877
662,659.4459934434424
663,659.6336424789572
664,659.8003708593191
665,659.9384505601635
666,660.0421264678012
667,660.108151257036
668,660.1360925149689
669,660.1283521436201
670,660.0898642511538
671,660.0274957878047
672,659.9492376572862
673,659.8633033238192
674,659.7772484409581
675,659.6972181161582
676,659.6274236513387
677,659.5699278434583
678,659.5247680058276
679,659.4903800576096
680,659.4642230918636
681,659.4434627189739
682,659.425572519478
683,659.4087545885579
684,659.3921368685842
685,659.3757538150647
686,659.3603545475144
687,659.3471102695045
688,659.3373046716838
689,659.33208566879
690,659.3323387724814
691,659.3387089541734
692,659.351747126656
693,659.3721104177522
694,659.4007324046705
695,659.4389023115097
696,659.4882246761631
697,659.5504550020279
698,659.6272266268279
699,659.7197072623703
700,659.8282466037588
701,659.9520873889253
702,660.0892024969278
703,660.2362921395438
704,660.3889415798175
705,660.5419167090266
706,660.6895645442023
707,660.8262768797495
708,660.9469624109438
709,661.0474654123751
710,661.1248780593871
711,661.177715855142
712,661.2059486218242
713,661.2108957497261
714,661.1950083278387
715,661.1615744964136
716,661.1143898696698
717,661.0574317998655
718,660.9945760456488
719,660.929394596167
720,660.86505280459
721,660.8042770503911
722,660.7493230644313
723,660.7018827629881
724,660.6629284809891
725,660.632561114739
726,660.609947915665
727,660.5933959442024
728,660.5805483566759
729,660.5686573621607
730,660.5548848486079
731,660.536586826967
732,660.5115459024714
733,660.4781415550575
734,660.4354833176435
735,660.3835408759194
736,660.3232718230897
737,660.2567017766115
738,660.1868929563391
739,660.1177568689973
740,660.0537075177284
741,659.9991957424662
742,659.9582027171325
743,659.9337865399622
744,659.9277572773964
745,659.9405145500594
746,659.9710470334904
747,660.017079221807
748,660.0753492545463
749,660.1419997929535
750,660.2130518576078
751,660.284904870184
752,660.3547791259415
753,660.4210162842126
754,660.4831868756349
755,660.5420017475885
756,660.5990665997665
757,660.6565491017104
758,660.7168417828976
759,660.7822900525549
760,660.8550116353712
761,660.9367838496162
762,661.0289505545616
763,661.1323125433073
764,661.2469969865792
765,661.3723292094301
766,661.5067427020249
767,661.6477653949746
768,661.7921180373258
769,661.935948959189
770,662.0751999585902
771,662.2060558833607
772,662.3253951501213
773,662.4311485908834
774,662.5224944078508
775,662.5998533306819
776,662.6646801144128
777,662.719073378365
778,662.7652582466135
779,662.8050316509205
780,662.839274856498
781,662.8676225407777
782,662.8883488349792
783,662.8984994812937
784,662.8942584800137
785,662.8714848058715
786,662.8263089536534
787,662.7556680772421
788,662.657691553885
789,662.5319030279669
790,662.3792474087962
791,662.2019711642906
792,662.0033913516831
793,661.7875897157691
794,661.559061240066
795,661.3223352211664
796,661.0815844971823
797,660.8402543880483
798,660.6007653083748
799,660.3643452526204
800,660.1310223844363
801,659.8997775573192
802,659.6688444335967
803,659.4361406478274
804,659.1997916783833
805,658.9586710523715
806,658.7128583632027
807,658.4639320761132
808,658.215052761424
809,657.9708273637639
810,657.7369668349205
811,657.5197637171152
812,657.3254317690162
813,657.1593706317622
814,657.0254384244809
815,656.925324490091
816,656.8581121339104
817,656.8201064104077
818,656.8049697219333
819,656.8041639728742
820,656.8076583407252
821,656.8048322829437
822,656.7854802705597
823,656.7408101332236
824,656.6643278565999
825,656.5525182795888
826,656.405254934924
827,656.2258951264823
828,656.0210400154826
829,655.7999733903047
830,655.5738366279193
831,655.3546321999814
832,655.1541556541957
833,654.9829424452616
834,654.849306034627
835,654.7585515541654
836,654.7124623239993
837,654.7091496817052
838,654.7433154131876
839,654.806904666431
840,654.8900495204189
841,654.9821531665751
842,655.0729588452072
843,655.1534744543643
844,655.2166613766851
845,655.257832785246
846,655.2747405805986
847,655.2673614217996
848,655.237424153353
849,655.187758288821
850,655.1215794154944
851,655.0418408104015
852,654.9507561572887
853,654.8495457409185
854,654.7384035932338
855,654.6166454835363
856,654.4829813879651
857,654.3358568090827
858,654.1738185312196
859,653.9958725302645
860,653.8018078754267
861,653.5924626226852
862,653.3699094722195
863,653.1375389414919
864,652.9000170509378
865,652.6630995410092
866,652.4332991870208
867,652.2174258520118
868,652.0220468477529
869,651.8529389282276
870,651.714613797649
871,651.6099940900276
872,651.5402920400298
873,651.5050945163779
874,651.5026044278039
875,651.5299639875287
876,651.5835991113036
877,651.659550160949
878,651.7537662630914
879,651.8623394232505
880,651.9816574617685
881,652.1084701297717
882,652.2398826498705
883,652.3733009357012
884,652.506346085167
885,652.6367403801297
886,652.7621634336476
887,652.8800998721507
888,652.9877358427431
889,653.0819788104603
890,653.1596548439587
891,653.2178852911746
892,653.2545783616514
893,653.2689159857453
894,653.2617025110827
895,653.2354841133994
896,653.1944238657364
897,653.1439792738148
898,653.0904456183788
899,653.0404115290983
900,653.0001582216959
901,652.9750433636666
902,652.9689392111361
903,652.9838161135285
904,653.0195506442905
905,653.07399003908
906,653.1432431920804
907,653.2221206016231
908,653.3046307595264
909,653.3844619713757
910,653.4554179952036
911,653.5118029848271
912,653.5487510117247
913,653.5624841059567
914,653.5504865818683
915,653.5116030141857
916,653.4460805266579
917,653.3555722894412
