frame_number,force
0,607.2650100000515
1,607.2412778784324
2,607.2144735529071
3,607.181857214455
4,607.1413165867795
5,607.0915989598382
6,607.0324704550635
7,606.9647954235714
8,606.8905127455088
9,606.8124789567876
10,606.7341775377021
11,606.6593449610335
12,606.5915984804661
13,606.5341467652993
14,606.4896262662675
15,606.4600519232639
16,606.446829897516
17,606.4507758959375
18,606.4721078827226
19,606.5104091047676
20,606.564573799934
21,606.6327608346832
22,606.7123919478878
23,606.8002309255152
24,606.8925642858158
25,606.985481790351
26,607.0752307891306
27,607.1585914407281
28,607.2331998464923
29,607.2977467967236
30,607.3520025725244
31,607.3966551680655
32,607.4329902226068
33,607.4624742714292
34,607.4863223450355
35,607.5051351462581
36,607.5186736091451
37,607.5258011715736
38,607.5245928482113
39,607.5126039731841
40,607.4872859776044
41,607.4464989359807
42,607.3890139146584
43,607.3148710935793
44,607.2254930980237
45,607.1235305043192
46,607.0124918780311
47,606.8962526418869
48,606.778551803184
49,606.6625888755899
50,606.5508172442683
51,606.4449784313794
52,606.3463450770313
53,606.2560756691269
54,606.1755600348763
55,606.106651259775
56,606.0517194038459
57,606.0135112200024
58,605.9948499221904
59,605.9982475379788
60,606.0255156447442
61,606.0774464126437
62,606.1536063828089
63,606.2522536816672
64,606.3703663365811
65,606.5037645916537
66,606.6473205086485
67,606.7952511468557
68,606.9414704822718
69,607.0799449632592
70,607.2049880623164
71,607.3114531434738
72,607.3948337972676
73,607.4513372942017
74,607.4780284746486
75,607.4731152478872
76,607.436362094945
77,607.3695241700424
78,607.2766559935483
79,607.1641834018657
80,607.04069437926
81,606.9164535847194
82,606.8026650701756
83,606.7105221354832
84,606.650120831548
85,606.6293747357589
86,606.6531152332088
87,606.7225485861169
88,606.8351634084612
89,606.9850795407501
90,607.1637476627715
91,607.3608689807527
92,607.5654022693645
93,607.7665464146506
94,607.9546125466668
95,608.1217190814978
96,608.2622587463866
97,608.3731110799132
98,608.4536082140662
99,608.5052918058718
100,608.5315131755136
101,608.5369286145807
102,608.5269367198835
103,608.5071058765612
104,608.4826529298767
105,608.4580447021664
106,608.4367763735053
107,608.4213294590539
108,608.4132566973465
109,608.4133173040664
110,608.4216020338848
111,608.4376230467575
112,608.4603722405612
113,608.4883641073578
114,608.5196856623394
115,608.552082319002
116,608.583102089823
117,608.610295782915
118,608.6314501543828
119,608.6448350337865
120,608.649459811936
121,608.6453304285773
122,608.6336725878891
123,608.6170592404685
124,608.5993629976688
125,608.5854575976358
126,608.5806339906873
127,608.5897768008767
128,608.6164357628958
129,608.6619863482584
130,608.7250815059351
131,608.8015451373285
132,608.8847565362219
133,608.9664562936363
134,609.0378153734009
135,609.0905806914178
136,609.1181344804329
137,609.1163473034866
138,609.0841400274876
139,609.0236979991175
140,608.9403124642228
141,608.8418625514768
142,608.7379888005787
143,608.6390419244933
144,608.55492132129
145,608.4939470829356
146,608.4619240000586
147,608.4615396881353
148,608.4921901467883
149,608.5502553831326
150,608.6297623545404
151,608.7232882234377
152,608.8229116613836
153,608.9210395474
154,609.0109998632655
155,609.0873607945732
156,609.1460001828272
157,609.1840115315556
158,609.1995737411128
159,609.1918991094224
160,609.1613029027127
161,609.1093469237572
162,609.0389518051372
163,608.9543741929435
164,608.8609940233308
165,608.7649207432307
166,608.6724737987337
167,608.589610173027
168,608.5213709583071
169,608.4714159688015
170,608.4417109778196
171,608.4324117067677
172,608.4419481279976
173,608.4672745797295
174,608.5042396959465
175,608.5480389403356
176,608.5937157040951
177,608.6366631320639
178,608.6730618971703
179,608.7001890150058
180,608.7165541332604
181,608.7218529188885
182,608.7167638922303
183,608.70264956727
184,608.6812426353965
185,608.6543901780199
186,608.623893894636
187,608.591437508378
188,608.5585575259568
189,608.5266113325237
190,608.496728458437
191,608.46977133802
192,608.4463476802282
193,608.426895157977
194,608.411816843285
195,608.4016107077647
196,608.3969278358212
197,608.3985140232463
198,608.4070271769165
199,608.4227649705546
200,608.4453734366432
201,608.4736256638084
202,608.5053481481181
203,608.5375319585763
204,608.566615583106
205,608.5888874811506
206,608.6009380890324
207,608.6000901121928
208,608.5847474306624
209,608.5546244528241
210,608.5108422883889
211,608.4558926863044
212,608.393468890182
213,608.3281546699425
214,608.264968569927
215,608.2087911390868
216,608.1637493550041
217,608.1326679091767
218,608.1166953962891
219,608.1151718851908
220,608.125746390591
221,608.14470472966
222,608.1674372795073
223,608.1889577616956
224,608.2043842181963
225,608.209324217615
226,608.2001596321419
227,608.1742698655694
228,608.1302405519322
229,608.06807835437
230,607.989409526644
231,607.8975997214625
232,607.7977121052292
233,607.6962337792788
234,607.6005472095937
235,607.5181847131486
236,607.4559545946203
237,607.4190560513774
238,607.4103118765061
239,607.4296468349553
240,607.4739160774932
241,607.5371327161449
242,607.6110629254391
243,607.6860764854455
244,607.752097309784
245,607.7995147136426
246,607.8199788116901
247,607.8070686239704
248,607.7568431664225
249,607.6682565343872
250,607.5433793728979
251,607.3873636411597
252,607.2081173948873
253,607.0157024944832
254,606.821517773576
255,606.637371470446
256,606.4745631969273
257,606.3430777410869
258,606.2509491262862
259,606.2038063387972
260,606.2045824785693
261,606.2533644057359
262,606.3473762430503
263,606.4811139305525
264,606.6466595251889
265,606.8341889308643
266,607.0326522609907
267,607.2305749428932
268,607.4169114268243
269,607.5818742525374
270,607.7176545290234
271,607.8189534992857
272,607.8832654279245
273,607.9108861173664
274,607.904658919326
275,607.8695001116632
276,607.8117633763112
277,607.7385162809242
278,607.6568175270938
279,607.5730910237071
280,607.4926733896503
281,607.4195704607105
282,607.3564192760649
283,607.3046252134359
284,607.2646261958783
285,607.2362290484771
286,607.2189656388799
287,607.2124150755985
288,607.216429906441
289,607.2312080226071
290,607.2571865733842
291,607.2947917970727
292,607.3441252845364
293,607.4046766944516
294,607.4751356708931
295,607.5533561374036
296,607.6365055544347
297,607.7213939901237
298,607.8049214911365
299,607.8845334790045
300,607.9585662107658
301,608.0264051366794
302,608.0884427222552
303,608.1458760699841
304,608.2004109882495
305,608.2539392431107
306,608.3082421193068
307,608.3647565219072
308,608.42442126038
309,608.4876014384533
310,608.5540699404187
311,608.623007043169
312,608.6929734427346
313,608.7618423589706
314,608.8267412173577
315,608.8841025631666
316,608.9299051710433
317,608.9601076292363
318,608.9711971771953
319,608.9607412889274
320,608.9278363598773
321,608.8733748308014
322,608.8000867754503
323,608.7123487270217
324,608.6157836827285
325,608.516698086953
326,608.421418306319
327,608.335604514325
328,608.2636308986196
329,608.2081198748635
330,608.1696986199249
331,608.1470129653131
332,608.1369988043836
333,608.1353777642602
334,608.1373050609969
335,608.1380617078745
336,608.1336760389362
337,608.121388079326
338,608.0999111795963
339,608.0694742374077
340,608.031645928774
341,607.9889687617526
342,607.944471626298
343,607.9011619038856
344,607.8615957670266
345,607.8275890695558
346,607.8000819324551
347,607.7791293928367
348,607.7639774861366
349,607.7532035203385
350,607.744926680108
351,607.7370987024073
352,607.7278605541952
353,607.7159203711433
354,607.7008875219605
355,607.6834949314684
356,607.6656592828837
357,607.6503594044686
358,607.6413420505879
359,607.6426823819925
360,607.6582378520977
361,607.6910490595573
362,607.7427615086243
363,607.8131572208376
364,607.8998845131362
365,607.9984569515426
366,608.1025566013972
367,608.2046214797953
368,608.2966386115617
369,608.3710267835664
370,608.421486324206
371,608.4437079728737
372,608.4358562633628
373,608.3987697902414
374,608.3358539916419
375,608.2526843667234
376,608.156384464025
377,608.0548783350432
378,607.9561259018166
379,607.8674318997922
380,607.7948886778506
381,607.7429825414893
382,607.714368220135
383,607.7097990411748
384,607.7281897271469
385,607.766779311747
386,607.8213569568817
387,607.8865271750917
388,607.9560232789348
389,608.0231014492933
390,608.081035498506
391,608.1236907597076
392,608.1461160473505
393,608.1450753392828
394,608.1194420367467
395,608.0703917707365
396,608.0013553299559
397,607.9177267971849
398,607.8263542999705
399,607.7348683287619
400,607.6509206073314
401,607.5814071631717
402,607.5317370410716
403,607.5052014878929
404,607.5025103996027
405,607.521582961139
406,607.5576744937295
407,607.6038660314939
408,607.6518549300868
409,607.6929139075909
410,607.71886667856
411,607.7229548561232
412,607.7005116797706
413,607.6493874295633
414,607.5700934861653
415,607.4656726398402
416,607.3413639881637
417,607.2041677722495
418,607.0623886801311
419,606.9251650835745
420,606.8019368789375
421,606.7018057584218
422,606.632791294268
423,606.6010489355534
424,606.6101603745301
425,606.6606206945511
426,606.7496301406767
427,606.8712524385775
428,607.0169347782363
429,607.1763200534427
430,607.3382456102928
431,607.4918206242498
432,607.6274849087087
433,607.7379490515842
434,607.8189003730924
435,607.8693599467252
436,607.8916137764818
437,607.890707810788
438,607.8735710069714
439,607.847899989021
440,607.82098990754
441,607.79870784911
442,607.7847687010559
443,607.7804088360436
444,607.7844874559657
445,607.7939829890469
446,607.8047830285806
447,607.8126024445653
448,607.8138392611581
449,607.8062080247798
450,607.7890555957118
451,607.7633355242597
452,607.7312818328286
453,607.6958772373888
454,607.6602445204824
455,607.6270895202887
456,607.5982881994373
457,607.5746577681164
458,607.5559130613373
459,607.5407976321916
460,607.5273765419668
461,607.5134596396414
462,607.4970891493699
463,607.4769943339912
464,607.4529106665212
465,607.4256918447345
466,607.3972029579439
467,607.3700451375805
468,607.3471925966523
469,607.3316121680294
470,607.3259108790063
471,607.3320482278755
472,607.3511483071474
473,607.3834281975771
474,607.4282241662743
475,607.4840676631507
476,607.5487548538356
477,607.6193718303122
478,607.692280256991
479,607.7631175284125
480,607.8268898962647
481,607.8782173862733
482,607.9117410337634
483,607.9226571232986
484,607.9073145927294
485,607.8637976968236
486,607.7924124231571
487,607.6960000491237
488,607.5800121133562
489,607.4523000931421
490,607.3226042055128
491,607.2017638014602
492,607.1007072779356
493,607.0293115639253
494,606.9952538324517
495,607.0030049193614
496,607.0531173655584
497,607.1419275309545
498,607.2617276884188
499,607.4013941979398
500,607.5474003721357
501,607.6850995940684
502,607.8001343858135
503,607.8798155284305
504,607.9143264835374
505,607.8976407216508
506,607.828082622577
507,607.7084980788353
508,607.5460219281947
509,607.3514515228418
510,607.1382753689805
511,606.9214578480706
512,606.7161210865839
513,606.536265839176
514,606.3936335063083
515,606.2967671795944
516,606.2503170958338
517,606.2546507466877
518,606.3058370838801
519,606.3960545798054
520,606.5144247760907
521,606.6482076744436
522,606.7842255792787
523,606.910325131119
524,607.0166636206914
525,607.0966268991824
526,607.1472497782544
527,607.1691033806895
528,607.1657167011781
529,607.1426830391359
530,607.1066427623537
531,607.0643288164894
532,607.0218205543547
533,606.9840826546113
534,606.9547781492247
535,606.9362651544778
536,606.9296572838923
537,606.9348660034838
538,606.9506183720883
539,606.9745034383235
540,607.0031166723596
541,607.0323477291005
542,607.0578094304726
543,607.075356087105
544,607.0816103761301
545,607.07442205933
546,607.0532059003287
547,607.0191233016395
548,606.9750703649675
549,606.9254324330591
550,606.8755959239348
551,606.831283172047
552,606.7978534869701
553,606.7797322900772
554,606.7800751495456
555,606.8006872547585
556,606.8421497321518
557,606.9040696593144
558,606.9853644112517
559,607.0845026737564
560,607.1996480864788
561,607.3286857869322
562,607.4691552344348
563,607.6181500457931
564,607.7722523333377
565,607.9275399443289
566,608.0796701577125
567,608.2240343300912
568,608.3559881423394
569,608.4711594296085
570,608.5658057925931
571,608.6371575191962
572,608.6836709846147
573,608.7051466553471
574,608.7027145861741
575,608.6787273407908
576,608.6366076893563
577,608.5806767313
578,608.5159514043947
579,608.4478730056068
580,608.3819343445412
581,608.3232171589118
582,608.2759084661643
583,608.2428978181954
584,608.2255494659671
585,608.2237016607348
586,608.235885410444
587,608.2596936688187
588,608.2921898714006
589,608.3302428762637
590,608.3707189560411
591,608.4105277132792
592,608.4465735338688
593,608.4756917500774
594,608.4946514471037
595,608.5002858634488
596,608.4897670946282
597,608.4609880507023
598,608.4129759650135
599,608.3462532452901
600,608.2630737657661
601,608.167476292533
602,608.0651109694088
603,607.9628275110604
604,607.8680680707407
605,607.788157903752
606,607.7296049445467
607,607.6975013374878
608,607.6950817961274
609,607.7234552414118
610,607.7815040186019
611,607.8659475770205
612,607.9715850436136
613,608.0917368596621
614,608.2188789946251
615,608.3454095415898
616,608.464433866212
617,608.5704322185164
618,608.6597007241386
619,608.7305259706009
620,608.783131241782
621,608.8194732733253
622,608.8429500457294
623,608.8580299203412
624,608.8697851404545
625,608.8833365302714
626,608.903268230821
627,608.9331078610038
628,608.9749653070884
629,609.0293867263532
630,609.0954265846228
631,609.1708909193301
632,609.2526779261542
633,609.3371416227209
634,609.4204205117513
635,609.4986977063461
636,609.5683926974816
637,609.6263204077032
638,609.6698671122358
639,609.6972098598887
640,609.7075590346825
641,609.7013625441499
642,609.6803968439635
643,609.6476852963551
644,609.6072165528285
645,609.5634788758802
646,609.520876303734
647,609.4831301707143
648,609.4527725575537
649,609.4308074818701
650,609.4165730112275
651,609.4078050827105
652,609.4008896879043
653,609.3912863336107
654,609.3740969448638
655,609.3447321302592
656,609.2995997377361
657,609.2367271626449
658,609.1562349372803
659,609.0605937253156
660,608.9546095307329
661,608.845095086566
662,608.7402129806579
663,608.6485319366553
664,608.5779136496408
665,608.534408750368
666,608.5213534370646
667,608.5388161551763
668,608.5834662696169
669,608.6488606259468
670,608.7260965466361
671,608.8047521009526
672,608.8740037404636
673,608.9237832408803
674,608.945830403324
675,608.9345148360517
676,608.8873298813344
677,608.8050059380062
678,608.6912481677768
679,608.5521607104442
680,608.3954633413944
681,608.2296331408015
682,608.0631057403224
683,607.9036371338233
684,607.7578657058367
685,607.6310558041287
686,607.526973164364
687,607.4478364958736
688,607.3942964461737
689,607.3654127745239
690,607.3586377217329
691,607.3698581426635
692,607.3935731152322
693,607.4232620263191
694,607.4519342389387
695,607.4727817322051
696,607.4798202886767
697,607.4684172868612
698,607.4356522182607
699,607.3805105971875
700,607.303940590226
701,607.2087913948702
702,607.0996241022501
703,606.9823741193004
704,606.8638624215247
705,606.7511863380502
706,606.6510498452884
707,606.5691112034494
708,606.5094298768338
709,606.4740790121517
710,606.4629553645976
711,606.4737836147203
712,606.5022976218328
713,606.542587474293
714,606.587605953065
715,606.6298139444688
716,606.6619197816076
717,606.6776506697529
718,606.6724873768667
719,606.644284882378
720,606.5936889311264
721,606.5242560381105
722,606.4422109841378
723,606.3558353324272
724,606.2745579573133
725,606.207889177847
726,606.1643781378573
727,606.1507596355967
728,606.1713950985093
729,606.2280345943462
730,606.3198685068934
731,606.4438115426607
732,606.594959255339
733,606.7671622480793
734,606.9536613665771
735,607.1477133189894
736,607.343118134676
737,607.5345564887753
738,607.717676560161
739,607.8889406757969
740,608.0453266657611
741,608.1840340336136
742,608.3023369293521
743,608.3976579554779
744,608.4678487595284
745,608.5115966649307
746,608.5288445466333
747,608.5211053411379
748,608.491567877832
749,608.4449307609126
750,608.386962747359
751,608.3238566284464
752,608.2615010608575
753,608.204822281948
754,608.1573296790294
755,608.1209384284765
756,608.0960640389593
757,608.0819198422661
758,608.0769189376532
759,608.0790859172859
760,608.0864082393103
761,608.097090522617
762,608.1097078944099
763,608.1232779923704
764,608.1372806212339
765,608.1516501615957
766,608.1667522395693
767,608.183339624091
768,608.2024701440233
769,608.2253645746508
770,608.2531883465435
771,608.2867631078865
772,608.3262464407401
773,608.3708407102089
774,608.4185948429464
775,608.4663557175636
776,608.5099159182126
777,608.5443785625467
778,608.5647091087178
779,608.5663906510672
780,608.5460728576005
781,608.5021089388816
782,608.4348962480086
783,608.3469693802678
784,608.242842227097
785,608.1286453374361
786,608.0116325705193
787,607.8996284095406
788,607.8004696137787
789,607.7214753028387
790,607.6689612130631
791,607.6478035131635
792,607.6610626314674
793,607.7096922015554
794,607.7923703548983
795,607.9054956036935
796,608.0433844689319
797,608.1986840565136
798,608.362966834041
799,608.5274215521341
800,608.6835212761943
801,608.8235595416168
802,608.9409986215475
803,609.030645304714
804,609.0887246419117
805,609.1129342805262
806,609.1025324204713
807,609.058470636063
808,608.983550351098
809,608.8825481416992
810,608.7622142427227
811,608.6310327165879
812,608.4986754517729
813,608.3751758924512
814,608.2699461834175
815,608.1908164603061
816,608.1432655599585
817,608.1299532730429
818,608.1505916121134
819,608.2021337570474
820,608.2792262833249
821,608.374863795356
822,608.4811860472744
823,608.5903411075162
824,608.6953098998434
825,608.7905769489089
826,608.8725508504164
827,608.9396752957612
828,608.9922202165784
829,609.031799999326
830,609.060718515187
831,609.0812703155134
832,609.0951270426611
833,609.1029136801709
834,609.1040386147523
835,609.0967953191767
836,609.078713823122
837,609.0471073200104
838,608.9997253939877
839,608.9353940969448
840,608.8545116450077
841,608.759289989135
842,608.6536847309832
843,608.5430260850679
844,608.433433248709
845,608.331137569945
846,608.2418368154653
847,608.1701636123162
848,608.1193072467458
849,608.0907999237709
850,608.0844633913792
851,608.0984992527228
852,608.129695666136
853,608.1737207597419
854,608.225477071191
855,608.2794910962019
856,608.3303060083127
857,608.3728439977217
858,608.4027117881769
859,608.4164355736731
860,608.4116323581264
861,608.3871489018763
862,608.3431980725404
863,608.2814759733255
864,608.2051862928826
865,608.1188884687143
866,608.0281359023503
867,607.9389405754085
868,607.8571497375931
869,607.7878353892573
870,607.7347855775527
871,607.7001619144798
872,607.6843590336454
873,607.6860687968655
874,607.7025184862395
875,607.7298331479176
876,607.7634736979925
877,607.7987065463255
878,607.8310519127269
879,607.856651095428
880,607.872513529854
881,607.8766501287574
882,607.8681367093387
883,607.8471546907327
884,607.8150315595863
885,607.7742702052035
886,607.7285259766895
887,607.6824704841787
888,607.6414834298002
889,607.6111496616916
890,607.5966029222457
891,607.6018216841252
892,607.6290147570122
893,607.6782241713064
894,607.7472269322054
895,607.8317509780927
896,607.925956711048
897,608.023093318594
898,608.1162240533081
899,608.1989202730045
900,608.2658400029843
901,608.313131081388
902,608.3386404769982
903,608.3419611345263
904,608.3243667697168
905,608.2886538105837
906,608.2388673506694
907,608.1798893276783
908,608.1169149033059
909,608.054890385494
910,607.9979976044832
911,607.9492523179385
912,607.9102590762259
913,607.8811395387764
914,607.8606268524377
915,607.8463002820174
916,607.8349248190157
917,607.8228598192248
