frame_number,force
0,874.5907000082854
1,874.7802818410863
2,874.9693544725194
3,875.1574113763547
4,875.3439513481086
5,875.5284810942971
6,875.7105177361602
7,875.8895912021306
8,876.065246486915
9,876.2370457586738
10,876.4045702992003
11,876.5674222654213
12,876.7252262639539
13,876.8776307336359
14,877.0243091337742
15,877.1649609380411
16,877.2993124353815
17,877.4271173401504
18,877.5481572144179
19,877.662241706186
20,877.7692086081465
21,877.8689237424734
22,877.9612806780583
23,878.0462002876511
24,878.1236301535357
25,878.1935438314858
26,878.25593998373
27,878.3108413928207
28,878.3582938697983
29,878.3983650713192
30,878.4311432408866
31,878.4567358889091
32,878.4752684252046
33,878.4868827558095
34,878.4917358536967
35,878.489998310897
36,878.4818528782995
37,878.4674929995828
38,878.4471213472012
39,878.4209483704307
40,878.3891908669217
41,878.3520705889212
42,878.3098128933602
43,878.2626454424751
44,878.2107969594998
45,878.1544960423735
46,878.0939700371434
47,878.0294439721158
48,877.9611395542846
49,877.8892742308997
50,877.8140603201048
51,877.7357042145884
52,877.6544056613651
53,877.5703571197995
54,877.4837431991833
55,877.3947401765047
56,877.3035155941245
57,877.2102279355107
58,877.1150263752027
59,877.0180505976298
60,876.9194306788268
61,876.8192870252739
62,876.7177303648293
63,876.6148617858689
64,876.5107728217968
65,876.405545578397
66,876.2992529009448
67,876.1919585769722
68,876.0837175694492
69,875.9745762741121
70,875.8645727938365
71,875.7537372223856
72,875.6420919297765
73,875.5296518422197
74,875.416424711356
75,875.302411370039
76,875.1876059742647
77,875.0719962321493
78,874.9555636211153
79,874.8382835944132
80,874.7201257782995
81,874.6010541616286
82,874.4810272802137
83,874.359998399158
84,874.2379156974295
85,874.1147224600116
86,873.9903572834156
87,873.8647542995949
88,873.7378434213639
89,873.6095506099399
90,873.4797981631848
91,873.3485050221285
92,873.2155870932467
93,873.0809575839269
94,872.944527347919
95,872.8062052366075
96,872.6658984516032
97,872.5235128950604
98,872.3789535159692
99,872.2321246527287
100,872.0829303740854
101,871.9312748217908
102,871.7770625591962
103,871.6201989307913
104,871.4605904382568
105,871.2981451381105
106,871.1327730638285
107,870.9643866720269
108,870.7929013091941
109,870.6182356932959
110,870.4403124032277
111,870.2590583681189
112,870.0744053478712
113,869.8862903965843
114,869.6946563020474
115,869.4994519967137
116,869.3006329373948
117,869.0981614516322
118,868.8920070484562
119,868.6821466904591
120,868.4685650230899
121,868.2512545560788
122,868.0302157913558
123,867.8054572921195
124,867.5769956886912
125,867.3448556178091
126,867.1090695926893
127,866.8696778019084
128,866.6267278366462
129,866.3802743482107
130,866.1303786405134
131,865.8771082046792
132,865.6205362049783
133,865.3607409265803
134,865.0978051961758
135,864.8318157863891
136,864.5628628141578
137,864.2910391416808
138,864.0164397861407
139,863.739161341668
140,863.4593014144696
141,863.1769580699048
142,862.8922292886912
143,862.6052124286181
144,862.3160036881746
145,862.0246975689506
146,861.7313863342637
147,861.4361594623737
148,861.1391030940933
149,860.8402994764859
150,860.5398264064601
151,860.2377566803734
152,859.9341575581199
153,859.6290902522284
154,859.322609453619
155,859.0147629054269
156,858.7055910349021
157,858.3951266513864
158,858.0833947162706
159,857.7704121887084
160,857.4561879487308
161,857.1407227977385
162,856.8240095356965
163,856.506033114473
164,856.1867708668117
165,855.8661928098339
166,855.5442620207508
167,855.2209350810045
168,854.896162584035
169,854.5698897018707
170,854.2420568067017
171,853.9126001447237
172,853.5814525601135
173,853.2485442667868
174,852.913803664628
175,852.5771581953131
176,852.2385352313103
177,851.8978629908268
178,851.5550714710665
179,851.2100933911086
180,850.8628651337127
181,850.5133276730847
182,850.1614274737532
183,849.8071173445342
184,849.4503572316092
185,849.091114936369
186,848.7293667464163
187,848.365097970913
188,847.9983033737977
189,847.6289875004484
190,847.2571648952701
191,846.8828602095211
192,846.5061082004003
193,846.1269536238711
194,845.745451024911
195,845.3616644302747
196,844.9756669509183
197,844.5875403038802
198,844.1973742659956
199,843.8052660732636
200,843.4113197793157
201,843.0156455847086
202,842.618359146878
203,842.2195808791915
204,841.8194352465609
205,841.418050064343
206,841.0155558071799
207,840.612084935302
208,840.2077712471212
209,839.8027492673316
210,839.3971536782683
211,838.9911187993132
212,838.5847781160714
213,838.1782638587929
214,837.7717066280719
215,837.3652350648557
216,836.9589755610185
217,836.5530520060673
218,836.1475855648864
219,835.7426944811725
220,835.3384939017453
221,834.9350957179345
222,834.5326084209
223,834.1311369677848
224,833.7307826555731
225,833.3316430000726
226,832.9338116185364
227,832.5373781155654
228,832.1424279723788
229,831.7490424391187
230,831.3572984292342
231,830.9672684148737
232,830.5790203225961
233,830.1926174293183
234,829.8081182592333
235,829.4255764834035
236,829.0450408244806
237,828.6665549691281
238,828.2901574901933
239,827.9158817798044
240,827.5437559936913
241,827.17380300648
242,826.8060403776668
243,826.4404803283919
244,826.0771297297317
245,825.7159901039095
246,825.3570576405056
247,825.0003232303773
248,824.6457725203032
249,824.2933859910441
250,823.9431390604987
251,823.5950022122523
252,823.2489411484487
253,822.9049169648775
254,822.5628863456574
255,822.2228017751504
256,821.8846117658668
257,821.5482611025603
258,821.2136911034507
259,820.880839898774
260,820.5496427249253
261,820.2200322304132
262,819.8919387888094
263,819.5652908142396
264,819.2400150762959
265,818.9160370128714
266,818.5932810407512
267,818.2716708646433
268,817.9511297856616
269,817.6315810102644
270,817.3129479604719
271,816.9951545857336
272,816.6781256757499
273,816.361787171687
274,816.0460664709044
275,815.7308927182808
276,815.4161970763124
277,815.1019129668495
278,814.7879762794249
279,814.474325543851
280,814.1609020669757
281,813.8476500346388
282,813.534516580456
283,813.2214518237712
284,812.9084088798483
285,812.5953438457248
286,812.2822157651877
287,811.9689865762234
288,811.6556210439372
289,811.3420866813583
290,811.0283536600865
291,810.7143947127457
292,810.4001850296384
293,810.0857021524706
294,809.7709258682482
295,809.4558381065888
296,809.1404228439281
297,808.8246660178913
298,808.5085554536932
299,808.1920808019092
300,807.8752334842505
301,807.5580066420813
302,807.2403950816683
303,806.9223952104696
304,806.6040049598839
305,806.28522369145
306,805.9660520849711
307,805.6464920080609
308,805.3265463672321
309,805.0062189412863
310,804.6855141986838
311,804.3644371017293
312,804.0429929016402
313,803.7211869297859
314,803.3990243915412
315,803.0765101701821
316,802.7536486489363
317,802.4304435595266
318,802.1068978650383
319,801.7830136833956
320,801.4587922551608
321,801.1342339562582
322,800.8093383535637
323,800.4841042998238
324,800.1585300639123
325,799.8326134923104
326,799.5063521975071
327,799.1797437687782
328,798.8527860007152
329,798.5254771351317
330,798.1978161124563
331,797.8698028289439
332,797.5414383955127
333,797.2127253930945
334,796.8836681189202
335,796.5542728185353
336,796.2245478992111
337,795.8945041214001
338,795.564154765808
339,795.23351577446
340,794.902605864879
341,794.5714466171595
342,794.2400625340454
343,793.9084810737451
344,793.5767326545559
345,793.2448506305354
346,792.9128712391396
347,792.5808335243355
348,792.2487792407707
349,791.9167527452045
350,791.5848008805298
351,791.2529728559836
352,790.9213201254639
353,790.5898962647015
354,790.258756847242
355,789.9279593186147
356,789.5975628679746
357,789.2676282971623
358,788.9382178880217
359,788.60939526899
360,788.2812252810387
361,787.9537738415323
362,787.6271078034573
363,787.3012948070398
364,786.976403120554
365,786.6525014667444
366,786.3296588311642
367,786.0079442495892
368,785.6874265735357
369,785.3681742150253
370,785.050254873366
371,784.7337352478592
372,784.4186807413747
373,784.1051551604971
374,783.7932204178009
375,783.4829362406925
376,783.1743598899651
377,782.8675458906148
378,782.5625457777184
379,782.2594078606365
380,781.9581770088574
381,781.6588944623644
382,781.3615976688372
383,781.0663201492484
384,780.7730913922001
385,780.4819367759357
386,780.1928775162306
387,779.9059306388017
388,779.6211089760271
389,779.3384211888551
390,779.0578718152727
391,778.7794613464494
392,778.5031863307341
393,778.2290395042521
394,777.9570099452608
395,777.6870832483846
396,777.4192417149821
397,777.1534645571004
398,776.8897281137325
399,776.6280060783066
400,776.3682697354378
401,776.1104882040946
402,775.8546286844729
403,775.6006567068912
404,775.3485363820689
405,775.0982306526768
406,774.8497015460034
407,774.602910427084
408,774.3578182506434
409,774.1143858087689
410,773.8725739697538
411,773.6323439026539
412,773.3936572821102
413,773.1564764690778
414,772.9207646651065
415,772.6864860400806
416,772.4536058350983
417,772.2220904431415
418,771.9919074702912
419,771.7630257795577
420,771.5354155184012
421,771.3090481304805
422,771.083896352442
423,770.8599341975822
424,770.6371369297439
425,770.4154810323922
426,770.1949441788599
427,769.975505209962
428,769.7571441245968
429,769.5398420878247
430,769.3235814597249
431,769.1083458473653
432,768.8941201813116
433,768.6808908172011
434,768.4686456623285
435,768.257374327137
436,768.0470683015931
437,767.8377211560271
438,767.6293287647992
439,767.4218895492535
440,767.2154047343412
441,767.0098786114763
442,766.8053187988273
443,766.6017364894818
444,766.3991466780325
445,766.1975683573353
446,765.9970246793389
447,765.7975430763373
448,765.5991553409538
449,765.4018976643537
450,765.205810632965
451,765.0109391847036
452,764.8173325262386
453,764.6250440126965
454,764.4341309900734
455,764.2446545987711
456,764.0566795348283
457,763.8702737643436
458,763.6855081869526
459,763.5024562462733
460,763.3211934884956
461,763.1417970736833
462,762.9643452470982
463,762.788916779828
464,762.6155903891862
465,762.4444441496893
466,762.2755549050898
467,762.10899769151
468,761.944845181513
469,761.783167158823
470,761.6240300329159
471,761.4674964013883
472,761.3136246658346
473,761.1624687045813
474,761.0140776038206
475,760.8684954472867
476,760.725761162887
477,760.585908422678
478,760.4489655911538
479,760.3149557165297
480,760.1838965601007
481,760.0558006592677
482,759.9306754203986
483,759.8085232383858
484,759.6893416402826
485,759.5731234503736
486,759.4598569735741
487,759.3495261938305
488,759.2421109844232
489,759.137587327253
490,759.0359275379905
491,758.937100493733
492,758.8410718596787
493,758.7478043110224
494,758.6572577458224
495,758.5693894845467
496,758.4841544526898
497,758.4015053437957
498,758.321392760921
499,758.2437653352191
500,758.1685698216066
501,758.0957511735522
502,758.0252526011633
503,757.9570156178993
504,757.8909800810953
505,757.8270842304136
506,757.7652647270594
507,757.7054566959149
508,757.6475937729684
509,757.5916081608793
510,757.5374306952513
511,757.4849909231629
512,757.4342171945772
513,757.3850367669329
514,757.3373759230955
515,757.2911601022028
516,757.2463140417143
517,757.2027619276271
518,757.160427548853
519,757.1192344517227
520,757.079106091766
521,757.0399659818588
522,757.0017378375082
523,756.9643457209239
524,756.9277141858656
525,756.8917684255284
526,756.8564344259426
527,756.8216391272323
528,756.7873105945417
529,756.753378199733
530,756.7197728142525
531,756.6864270127476
532,756.6532752860048
533,756.6202542605618
534,756.587302920933
535,756.554362828848
536,756.5213783326105
537,756.4882967592586
538,756.4550685829181
539,756.4216475644574
540,756.3879908597918
541,756.3540590965258
542,756.3198164207163
543,756.2852305172715
544,756.2502726087896
545,756.2149174383048
546,756.1791432412828
547,756.1429317114214
548,756.1062679642287
549,756.0691405027713
550,756.0315411910459
551,755.9934652407715
552,755.9549112161649
553,755.9158810587842
554,755.8763801319017
555,755.8364172821067
556,755.7960049152725
557,755.755159084195
558,755.71389958552
559,755.6722500637533
560,755.6302381201248
561,755.5878954236518
562,755.5452578208979
563,755.5023654401652
564,755.4592627857056
565,755.4159988178187
566,755.3726270148878
567,755.3292054133103
568,755.2857966211087
569,755.2424678010746
570,755.1992906199872
571,755.1563411618755
572,755.1136998049845
573,755.07145106327
574,755.0296833935034
575,754.9884889686036
576,754.947963417108
577,754.9082055282245
578,754.8693169217584
579,754.8314016821708
580,754.7945659561245
581,754.7589175136354
582,754.7245652746028
583,754.6916188042414
584,754.6601877818655
585,754.6303814474895
586,754.6023080303181
587,754.5760741627056
588,754.5517842826914
589,754.5295400279317
590,754.509439623998
591,754.4915772707263
592,754.4760425313846
593,754.4629197303186
594,754.4522873650793
595,754.4442175391337
596,754.43877542164
597,754.4360187411362
598,754.4359973196788
599,754.4387526529104
600,754.4443175402523
601,754.4527157683286
602,754.463961849727
603,754.4780608179299
604,754.4950080775366
605,754.5147893072594
606,754.537380412565
607,754.5627475257523
608,754.5908470533037
609,754.621625772652
610,754.6550209822251
611,754.6909607089664
612,754.7293639762231
613,754.7701411325991
614,754.8131942402371
615,754.858417519508
616,754.9056978459677
617,754.9549152944812
618,755.0059437245515
619,755.0586513998929
620,755.1129016340833
621,755.168553453334
622,755.2254622678169
623,755.2834805444045
624,755.3424584752145
625,755.402244637518
626,755.4626866418301
627,755.5236317668765
628,755.5849275824244
629,755.6464225630282
630,755.7079666971119
631,755.7694120962302
632,755.8306136085514
633,755.8914294385382
634,755.9517217718825
635,756.0113574018125
636,756.070208350623
637,756.1281524788157
638,756.185074073408
639,756.2408644068255
640,756.2954222584167
641,756.3486543918103
642,756.4004759827225
643,756.4508109931885
644,756.4995924893612
645,756.5467629008652
646,756.5922742201876
647,756.6360881408876
648,756.6781761340023
649,756.7185194633622
650,756.7571091425787
651,756.7939458385356
652,756.8290397272455
653,756.8624103072918
654,756.8940861741994
655,756.9241047570293
656,756.9525120169967
657,756.9793621069483
658,757.0047169900962
659,757.0286460168196
660,757.0512254598128
661,757.072538009817
662,757.0926722359436
663,757.111722016063
664,757.1297859439355
665,757.1469667202933
666,757.1633705347101
667,757.1791064445662
668,757.1942857576529
669,757.2090214259284
670,757.2234274587101
671,757.2376183635121
672,757.2517086219011
673,757.2658122064217
674,757.280042142845
675,757.2945101198557
676,757.3093261461348
677,757.3245982528947
678,757.3404322383643
679,757.3569314494266
680,757.3741965945613
681,757.3923255816524
682,757.411413374211
683,757.4315518600039
684,757.4528297269673
685,757.4753323429103
686,757.4991416375789
687,757.5243359872779
688,757.5509901029786
689,757.5791749230532
690,757.6089575119182
691,757.640400966033
692,757.6735643289926
693,757.7085025179747
694,757.7452662643924
695,757.7839020720669
696,757.8244521963403
697,757.8669546469216
698,757.911443215636
699,757.9579475279295
700,758.0064931146175
701,758.0571014985404
702,758.1097902898528
703,758.1645732836513
704,758.2214605540945
705,758.2804585395394
706,758.34157011342
707,758.4047946359502
708,758.4701279828901
709,758.5375625499989
710,758.6070872350863
711,758.6786874028127
712,758.7523448399087
713,758.8280377099071
714,758.9057405164939
715,758.9854240830872
716,759.0670555538051
717,759.1505984186268
718,759.2360125639507
719,759.3232543487505
720,759.4122767057612
721,759.5030292666179
722,759.5954585098323
723,759.6895079308065
724,759.7851182335362
725,759.8822275439655
726,759.980771644748
727,760.0806842303261
728,760.181897180067
729,760.284340845987
730,760.3879443505026
731,760.4926358890115
732,760.5983430324445
733,760.7049930262365
734,760.8125130836588
735,760.9208306724458
736,761.0298737943466
737,761.1395712583642
738,761.2498529501099
739,761.3606501009107
740,761.4718955599086
741,761.5835240703019
742,761.695472548233
743,761.8076803609879
744,761.9200896006846
745,762.0326453500703
746,762.1452959374474
747,762.257993177246
748,762.3706925913175
749,762.4833536046766
750,762.5959397092743
751,762.7084185904312
752,762.820762211938
753,762.9329468567599
754,763.0449531205385
755,763.1567658547913
756,763.268374056471
757,763.3797707011558
758,763.490952518994
759,763.6019197153008
760,763.7126756409585
761,763.8232264213008
762,763.9335805555198
763,764.0437485008838
764,764.1537422563298
765,764.2635749583859
766,764.3732604997283
767,764.4828131778107
768,764.5922473782871
769,764.7015772957525
770,764.8108166932018
771,764.919978701595
772,765.0290756612246
773,765.1381190062201
774,765.2471191923767
775,765.3560856671414
776,765.4650268797224
777,765.5739503291952
778,765.6828626488941
779,765.7917697255684
780,765.9006768512821
781,766.0095889049956
782,766.1185105598272
783,766.2274465116137
784,766.3364017245005
785,766.4453816894882
786,766.5543926919472
787,766.6634420843392
788,766.7725385610495
789,766.8816924333571
790,766.9909159035984
791,767.1002233379962
792,767.2096315372105
793,767.3191600026494
794,767.4288311952274
795,767.5386707817217
796,767.6487078623674
797,767.7589751723979
798,767.8695092504141
799,767.9803505677161
800,768.0915436142361
801,768.2031369375417
802,768.3151831314182
803,768.4277387705695
804,768.5408642885959
805,768.654623797735
806,768.7690848508041
807,768.8843181480183
808,769.0003971931777
809,769.1173979047174
810,769.2353981874866
811,769.3544774711597
812,769.4747162208737
813,769.5961954251652
814,769.7189960659114
815,769.8431985749846
816,769.9688822826687
817,770.0961248633838
818,770.2250017846976
819,770.3555857657287
820,770.4879462507439
821,770.6221489030665
822,770.7582551236301
823,770.8963215979347
824,771.0363998748181
825,771.1785359801747
826,771.3227700687897
827,771.4691361180732
828,771.6176616683332
829,771.768367614302
830,771.9212680514279
831,772.0763701785037
832,772.2336742564856
833,772.3931736223693
834,772.5548547565803
835,772.7186974021507
836,772.8846747338974
837,773.0527535759868
838,773.2228946664864
839,773.3950529673009
840,773.5691780170955
841,773.745214323778
842,773.9231017923908
843,774.1027761840545
844,774.2841696015691
845,774.4672109968859
846,774.6518266946897
847,774.8379409250333
848,775.0254763569214
849,775.2143546246654
850,775.4044968397656
851,775.5958240822877
852,775.788257866435
853,775.9817205752532
854,776.1761358595677
855,776.3714289968091
856,776.5675272065605
857,776.7643599213677
858,776.9618590130957
859,777.1599589763792
860,777.3585970713376
861,777.557713427849
862,777.75725111354
863,777.9571561675284
864,778.1573776022507
865,778.3578673765697
866,778.5585803444366
867,778.7594741840323
868,778.9605093123879
869,779.1616487901998
870,779.3628582211138
871,779.5641056489773
872,779.7653614553916
873,779.9665982584736
874,780.1677908123828
875,780.3689159061562
876,780.5699522598372
877,780.7708804159353
878,780.9716826250873
879,781.1723427263133
880,781.3728460238793
881,781.5731791636905
882,781.7733300119168
883,781.9732875374215
884,782.1730416981485
885,782.3725833304144
886,782.571904039325
887,782.7709960882595
888,782.9698522852236
889,783.1684658635181
890,783.3668303538724
891,783.5649394456779
892,783.7627868366448
893,783.9603660727944
894,784.1576703833955
895,784.3546925175175
896,784.5514245898302
897,784.7478579429916
898,784.943983032705
899,785.1397893398039
900,785.3352653119659
901,785.5303983358792
902,785.7251747387041
903,785.9195798156688
904,786.1135978792684
905,786.3072123252368
906,786.5004057110655
907,786.6931598437957
908,786.8854558746268
909,787.077274398442
910,787.2685955569198
911,787.4593991445812
912,787.649664717621
913,787.8393717053538
914,788.0284995235337
915,788.2170276880097
916,788.4049359267266
917,788.5922042882777
