frame_number,force
0,824.8217254818464
1,824.8435284118727
2,824.8659813649534
3,824.8890475447756
4,824.9126886225336
5,824.9368651723088
6,824.9615371008554
7,824.9866640683385
8,825.0122058976873
9,825.0381229706162
10,825.0643766080765
11,825.0909294321781
12,825.1177457058355
13,825.144791645759
14,825.1720357041513
15,825.1994488146713
16,825.2270045986993
17,825.2546795284879
18,825.2824530443871
19,825.3103076241816
20,825.3382288039138
21,825.366205151223
22,825.394228193502
23,825.422292303545
24,825.4503945450435
25,825.4785344797593
26,825.5067139375567
27,825.5349367499524
28,825.5632084478274
29,825.5915359246188
30,825.6199270673212
31,825.6483903585175
32,825.6769344531266
33,825.705567733485
34,825.7342978459459
35,825.7631312220367
36,825.792072588214
37,825.8211244707484
38,825.8502867054866
39,825.8795559645138
40,825.9089253118545
41,825.9383837985572
42,825.9679161050144
43,825.9975022360627
44,826.0271172724247
45,826.056731180592
46,826.0863086827004
47,826.1158091881113
48,826.1451867882414
49,826.1743903149718
50,826.2033634612424
51,826.2320449611439
52,826.260368826128
53,826.2882646334808
54,826.3156578627763
55,826.3424702758094
56,826.3686203355765
57,826.3940236602567
58,826.4185935088666
59,826.4422412960456
60,826.4648771337496
61,826.4864103971461
62,826.5067503110604
63,826.5258065524512
64,826.5434898637168
65,826.5597126708997
66,826.5743897000351
67,826.5874385842678
68,826.5987804540969
69,826.608340503264
70,826.6160485233993
71,826.6218394013088
72,826.6256535730721
73,826.6274374286776
74,826.6271436603909
75,826.6247315483124
76,826.6201671778036
77,826.6134235851716
78,826.6044808297054
79,826.5933259915985
80,826.5799530963628
81,826.5643629673363
82,826.5465630095523
83,826.5265669309741
84,826.5043944103877
85,826.4800707239217
86,826.4536263433338
87,826.4250965189697
88,826.3945208593324
89,826.3619429179361
90,826.3274097966641
91,826.290971773224
92,826.252681958613
93,826.21259598889
94,826.1707717539824
95,826.1272691646008
96,826.0821499564471
97,826.0354775290091
98,825.9873168149182
99,825.9377341756924
100,825.886797320641
101,825.8345752469908
102,825.7811382001679
103,825.7265576536477
104,825.6709063083752
105,825.6142581127248
106,825.556688304912
107,825.4982734799413
108,825.4390916822881
109,825.3792225240695
110,825.3187473268454
111,825.2577492830563
112,825.1963136302928
113,825.1345278289104
114,825.0724817319898
115,825.0102677365629
116,824.9479809059625
117,824.8857190543752
118,824.8235827855415
119,824.7616754779469
120,824.7001032092994
121,824.6389746140616
122,824.5784006694123
123,824.5184944073064
124,824.4593705532092
125,824.4011450951034
126,824.3439347887545
127,824.2878566066726
128,824.2330271390289
129,824.1795619553186
130,824.1275749360946
131,824.0771775849365
132,824.0284783321235
133,823.9815818424981
134,823.9365883394713
135,823.8935929545031
136,823.8526851078764
137,823.8139479241512
138,823.7774576852293
139,823.7432833245788
140,823.7114859664697
141,823.6821185137101
142,823.6552252869781
143,823.6308417188204
144,823.6089941054753
145,823.5896994194718
146,823.5729651854069
147,823.558789420537
148,823.5471606411379
149,823.5380579354436
150,823.5314511046969
151,823.5273008750695
152,823.5255591839315
153,823.526169543308
154,823.5290674812384
155,823.5341810588524
156,823.5414314581612
157,823.5507336332271
158,823.5619970156212
159,823.5751262641396
160,823.590022048845
161,823.606581860191
162,823.624700834334
163,823.6442725853751
164,823.6651900346333
165,823.6873462266497
166,823.7106351218515
167,823.7349523568136
168,823.7601959645444
169,823.7862670485422
170,823.8130704052211
171,823.8405150898849
172,823.8685149218807
173,823.8969889249081
174,823.9258616986706
175,823.9550637182834
176,823.9845315583327
177,824.0142080393028
178,824.0440422953533
179,824.073989764263
180,824.1040121026319
181,824.1340770314378
182,824.1641581180376
183,824.1942345005885
184,824.2242905603913
185,824.2543155477077
186,824.2843031675247
187,824.3142511331964
188,824.3441606972041
189,824.3740361685878
190,824.4038844254738
191,824.4337144290752
192,824.4635367438278
193,824.4933630677127
194,824.5232057769829
195,824.553077489553
196,824.5829906506044
197,824.6129571426578
198,824.6429879211653
199,824.6730926761184
200,824.7032795200594
201,824.7335547028528
202,824.7639223535901
203,824.794384250045
204,824.8249396160328
205,824.8555849470271
206,824.8863138647362
207,824.917117001895
208,824.9479819188343
209,824.9788930532753
210,825.0098317042338
211,825.04077604986
212,825.0717011978521
213,825.1025792664013
214,825.1333794934314
215,825.1640683713264
216,825.1946098029155
217,825.2249652729639
218,825.2550940290066
219,825.2849532664693
220,825.3144983149699
221,825.3436828242886
222,825.372458949259
223,825.4007775335702
224,825.4285882941484
225,825.4558400100742
226,825.4824807216676
227,825.5084579457412
228,825.5337189120777
229,825.5582108242713
230,825.5818811459311
231,825.60467791164
232,825.6265500608793
233,825.6474477916356
234,825.6673229284091
235,825.6861292974979
236,825.7038231015808
237,825.7203632859469
238,825.7357118897983
239,825.7498343773161
240,825.7626999443935
241,825.7742817980809
242,825.7845574067198
243,825.7935087192428
244,825.801122352216
245,825.8073897431087
246,825.8123072682589
247,825.8158763241782
248,825.8181033710537
249,825.8189999374791
250,825.8185825858359
251,825.8168728385081
252,825.8138970660178
253,825.8096863387308
254,825.8042762437337
255,825.7977066681271
256,825.790021549935
257,825.7812685983964
258,825.7714989860802
259,825.7607670152721
260,825.7491297602745
261,825.7366466862716
262,825.7233792452787
263,825.7093904509107
264,825.694744435934
265,825.6795059989689
266,825.6637401484018
267,825.6475116518521
268,825.6308845984786
269,825.6139219798162
270,825.5966852936425
271,825.5792341750057
272,825.561626058969
273,825.543915880259
274,825.5261558149015
275,825.5083950677259
276,825.4906797079657
277,825.4730525537486
278,825.4555531049967
279,825.4382175228135
280,825.421078651705
281,825.4041660791377
282,825.3875062255473
283,825.3711224574927
284,825.3550352170587
285,825.339262161346
286,825.3238183067934
287,825.3087161743407
288,825.2939659329646
289,825.279575540551
290,825.2655508820111
291,825.2518959049769
292,825.2386127538954
293,825.2257019043909
294,825.2131623008399
295,825.2009915001485
296,825.1891858236818
297,825.1777405182452
298,825.1666499267385
299,825.1559076695231
300,825.14550683797
301,825.1354402013259
302,825.1257004265344
303,825.1162803084442
304,825.1071730060652
305,825.098372280002
306,825.0898727266648
307,825.0816700054215
308,825.0737610547965
309,825.0661442931743
310,825.0588197987868
311,825.0517894633764
312,825.0450571137816
313,825.0386285959711
314,825.0325118173698
315,825.0267167457662
316,825.0212553659975
317,825.0161415980918
318,825.0113911821602
319,825.0070215358968
320,825.0030515898701
321,824.9995016041311
322,824.9963929679159
323,824.9937479830857
324,824.9915896312883
325,824.9899413242487
326,824.9888266360684
327,824.9882690164059
328,824.9882914842019
329,824.9889163029708
330,824.9901646399699
331,824.9920562124928
332,824.9946089252664
333,824.9978385037026
334,825.0017581284297
335,825.0063780768689
336,825.0117053776906
337,825.0177434840633
338,825.0244919717193
339,825.0319462677057
340,825.0400974149597
341,825.0489318765505
342,825.0584313821846
343,825.0685728192768
344,825.0793281718139
345,825.0906645116552
346,825.1025440477817
347,825.1149242386543
348,825.1277579708703
349,825.140993803917
350,825.1545762770647
351,825.1684462717157
352,825.1825414215521
353,825.1967965633473
354,825.2111442224574
355,825.2255151280865
356,825.2398387542481
357,825.2540438829686
358,825.2680591863195
359,825.28181382277
360,825.2952380413277
361,825.3082637849902
362,825.3208252839478
363,825.3328596286922
364,825.3443073133338
365,825.3551127399364
366,825.3652246759344
367,825.3745966592502
368,825.3831873495394
369,825.3909608279382
370,825.3978868503317
371,825.4039410599141
372,825.4091051642745
373,825.413367081462
374,825.4167210589694
375,825.4191677688825
376,825.4207143810023
377,825.4213746137503
378,825.4211687607659
379,825.420123689695
380,825.4182728089244
381,825.4156559981443
382,825.4123194993118
383,825.4083157650992
384,825.4037032618847
385,825.3985462240087
386,825.3929143554982
387,825.3868824748159
388,825.3805300978931
389,825.3739409552038
390,825.3672024397652
391,825.3604049843374
392,825.35364136757
393,825.3470059502725
394,825.3405938443356
395,825.3345000185393
396,825.3288183479322
397,825.3236406161549
398,825.3190554821358
399,825.315147423779
400,825.311995672286
401,825.309673152315
402,825.3082454452049
403,825.3077697940264
404,825.3082941693378
405,825.3098564131951
406,825.312483476879
407,825.3161907657387
408,825.3209816028975
409,825.3268468223322
410,825.3337645006137
411,825.3416998348424
412,825.3506051717956
413,825.360420190355
414,825.3710722364917
415,825.3824768077521
416,825.3945381821428
417,825.4071501842631
418,825.4201970795348
419,825.4335545855275
420,825.4470909875946
421,825.4606683442736
422,825.4741437663955
423,825.4873707528059
424,825.5002005648629
425,825.5124836212339
426,825.524070893941
427,825.5348152861494
428,825.5445729718742
429,825.5532046780015
430,825.560576890549
431,825.5665629704282
432,825.5710441684124
433,825.5739105330078
434,825.5750617074189
435,825.5744076130773
436,825.571869018102
437,825.5673779899472
438,825.5608782323571
439,825.5523253076592
440,825.5416867465436
441,825.5289420489298
442,825.5140825813395
443,825.4971113781866
444,825.4780428560927
445,825.4569024512616
446,825.4337261901063
447,825.4085602032444
448,825.381460192965
449,825.3524908639232
450,825.3217253257413
451,825.2892444747627
452,825.2551363610302
453,825.2194955455353
454,825.1824224513645
455,825.1440227107125
456,825.1044065087177
457,825.0636879251958
458,825.0219842762616
459,824.9794154588371
460,824.9361033016975
461,824.8921709267545
462,824.8477421238192
463,824.8029407414609
464,824.7578900961031
465,824.7127124009783
466,824.6675282157104
467,824.622455916484
468,824.5776111870368
469,824.5331065326392
470,824.489050821898
471,824.4455488629302
472,824.4027010200256
473,824.3606028746361
474,824.319344931658
475,824.279012369776
476,824.2396848335121
477,824.2014362642533
478,824.1643347675679
479,824.128442514148
480,824.0938156711247
481,824.060504359149
482,824.028552629402
483,823.9979984547651
484,823.9688737308367
485,823.9412042843884
486,823.9150098882305
487,823.8903042821152
488,823.8670951996528
489,823.8453844017527
490,823.8251677177758
491,823.8064350959628
492,823.789170664468
493,823.7733528035862
494,823.7589542287927
495,823.7459420832494
496,823.7342780376624
497,823.7239183954733
498,823.7148142029126
499,823.7069113659605
500,823.7001507784814
501,823.694468467071
502,823.6897957586054
503,823.6860594763106
504,823.6831821695998
505,823.6810823822332
506,823.6796749624297
507,823.6788714171871
508,823.6785803115827
509,823.6787077128196
510,823.6791576782813
511,823.6798327864445
512,823.6806347087431
513,823.6814648191796
514,823.6822248370937
515,823.6828174979001
516,823.6831472472386
517,823.6831209551267
518,823.6826486470485
519,823.6816442476968
520,823.6800263310267
521,823.6777188685136
522,823.6746519662397
523,823.6707625801138
524,823.6659951970597
525,823.6603024691761
526,823.6536457883828
527,823.6459957907423
528,823.637332781479
529,823.6276470729622
530,823.6169392287478
531,823.6052202077059
532,823.592511403497
533,823.5788445762041
534,823.5642616748074
535,823.5488145512238
536,823.532564568258
537,823.5155821047703
538,823.4979459621293
539,823.4797426774128
540,823.4610657510905
541,823.4420147993022
542,823.4226946424309
543,823.4032143422654
544,823.3836861999566
545,823.3642247265105
546,823.3449455971088
547,823.3259646004585
548,823.3073965946835
549,823.2893544814827
550,823.271948209903
551,823.2552838201748
552,823.239462537236
553,823.2245799233058
554,823.2107250991129
555,823.1979800434744
556,823.1864189802858
557,823.1761078605626
558,823.1671039453034
559,823.1594554929131
560,823.1532015527291
561,823.1483718636977
562,823.1449868546629
563,823.1430577406156
564,823.1425867080859
565,823.1435671825878
566,823.1459841711397
567,823.1498146729415
568,823.1550281509777
569,823.1615870564705
570,823.1694473969981
571,823.1785593382522
572,823.1888678290003
573,823.2003132388339
574,823.2128319991822
575,823.2263572401597
576,823.2408194181832
577,823.2561469305435
578,823.2722667131111
579,823.2891048170724
580,823.3065869607904
581,823.324639053474
582,823.3431876881727
583,823.3621606026576
584,823.3814871079145
585,823.4010984850537
586,823.4209283521458
587,823.4409130024626
588,823.4609917145871
589,823.4811070332591
590,823.5012050186064
591,823.5212354612689
592,823.5411520617563
593,823.5609125735035
594,823.5804789100148
595,823.5998172170622
596,823.6188979111312
597,823.6376956850676
598,823.6561894814251
599,823.6743624341051
600,823.6922017800597
601,823.7096987448018
602,823.7268484072755
603,823.7436495503913
604,823.760104502774
605,823.7762189755623
606,823.792001896754
607,823.8074652453532
608,823.8226238877944
609,823.8374954185344
610,823.8521000049301
611,823.8664602343857
612,823.8806009603669
613,823.8945491435697
614,823.9083336848938
615,823.9219852474458
616,823.9355360656111
617,823.9490197403393
618,823.9624710209579
619,823.9759255746629
620,823.9894197453762
621,824.0029903042383
622,824.0166741945391
623,824.0305082735467
624,824.0445290519856
625,824.0587724296428
626,824.0732734242608
627,824.0880658910446
628,824.1031822311904
629,824.1186530893362
630,824.1345070417007
631,824.1507702787811
632,824.1674662882804
633,824.1846155449181
634,824.2022352137428
635,824.2203388725189
636,824.2389362568944
637,824.2580330300053
638,824.2776305767991
639,824.297725823107
640,824.318311079947
641,824.3393739139732
642,824.3608970449923
643,824.3828582711421
644,824.4052304220982
645,824.4279813409951
646,824.4510738968379
647,824.4744660307256
648,824.4981108404946
649,824.5219567089086
650,824.545947480356
651,824.570022690342
652,824.594117850875
653,824.6181647929516
654,824.642092064641
655,824.6658253800106
656,824.6892881110266
657,824.7124018121608
658,824.7350867659183
659,824.7572625373122
660,824.7788485267897
661,824.7997645137701
662,824.819931185589
663,824.8392706484273
664,824.8577069178024
665,824.8751663870154
666,824.891578273144
667,824.9068750417005
668,824.9209928124543
669,824.9338717497924
670,824.9454564411926
671,824.9556962668097
672,824.9645457617779
673,824.9719649709448
674,824.9779197939969
675,824.9823823177803
676,824.985331131855
677,824.9867516225713
678,824.9866362404122
679,824.9849847356132
680,824.9818043583073
681,824.9771100209758
682,824.9709244220517
683,824.9632781298504
684,824.9542096258317
685,824.9437653057278
686,824.9319994363316
687,824.9189740646246
688,824.9047588746415
689,824.8894309865876
690,824.8730746928265
691,824.855781126541
692,824.8376478608935
693,824.818778438878
694,824.7992818362403
695,824.7792718615797
696,824.7588664991083
697,824.7381872004946
698,824.7173581325591
699,824.6965053873321
700,824.6757561603843
701,824.6552379028012
702,824.635077452204
703,824.6154001491203
704,824.5963289465815
705,824.5779835224143
706,824.5604794048787
707,824.5439271232016
708,824.52843139534
709,824.5140903654903
710,824.5009949029173
711,824.489227971887
712,824.4788640806381
713,824.4699688159236
714,824.4625984685639
715,824.4567997544592
716,824.4526096344208
717,824.4500552348152
718,824.4491538690307
719,824.4499131570444
720,824.4523312373504
721,824.4563970630952
722,824.4620907728747
723,824.4693841260164
724,824.4782409918483
725,824.4886178823002
726,824.5004645172668
727,824.5137244127507
728,824.5283354830547
729,824.5442306500162
730,824.5613384539864
731,824.5795836626193
732,824.5988878744681
733,824.6191701151665
734,824.6403474247971
735,824.6623354358761
736,824.6850489419555
737,824.7084024571423
738,824.7323107668359
739,824.7566894696361
740,824.7814555097808
741,824.8065276986612
742,824.8318272226724
743,824.8572781328932
744,824.8828078104649
745,824.9083474007124
746,824.9338322090446
747,824.9592020521175
748,824.9844015583145
749,825.0093804123918
750,825.0340935405105
751,825.0585012337938
752,825.0825692103241
753,825.1062686164662
754,825.1295759687977
755,825.1524730386776
756,825.174946683047
757,825.1969886267912
758,825.2185952029621
759,825.2397670573231
760,825.2605088239033
761,825.2808287790892
762,825.3007384826396
763,825.3202524137595
764,825.3393876087102
765,825.358163304303
766,825.3766005901521
767,825.3947220719393
768,825.4125515476619
769,825.4301136985711
770,825.4474337963514
771,825.4645374280863
772,825.4814502404372
773,825.4981977038608
774,825.5148048965308
775,825.5312963063276
776,825.5476956482926
777,825.5640256944437
778,825.5803081128207
779,825.5965633134288
780,825.6128103007079
781,825.6290665349005
782,825.6453478070048
783,825.6616681328908
784,825.6780396714108
785,825.6944726696306
786,825.7109754364001
787,825.7275543437895
788,825.7442138545688
789,825.7609565729542
790,825.7777833151497
791,825.7946931956906
792,825.8116837255458
793,825.8287509185831
794,825.8458894039916
795,825.863092542994
796,825.8803525484434
797,825.8976606058063
798,825.9150069938387
799,825.9323812031171
800,825.9497720504762
801,825.9671677873756
802,825.9845562005809
803,826.001924704499
804,826.0192604259058
805,826.0365502830865
806,826.0537810618703
807,826.0709394906371
808,826.0880123159769
809,826.1049863811038
810,826.1218487099607
811,826.1385866001027
812,826.1551877265164
813,826.1716402571735
814,826.1879329801736
815,826.2040554419251
816,826.2199980955936
817,826.2357524586195
818,826.2513112774293
819,826.2666686966363
820,826.2818204290526
821,826.2967639217018
822,826.3114985119688
823,826.326025567627
824,826.3403486049275
825,826.3544733797485
826,826.3684079473339
827,826.3821626861869
828,826.3957502813597
829,826.4091856621776
830,826.4224858900094
831,826.4356699934253
832,826.4487587505523
833,826.4617744208342
834,826.4747404303546
835,826.4876810165497
836,826.5006208397606
837,826.5135845705039
838,826.5265964621517
839,826.539679918551
840,826.5528570649997
841,826.5661483294073
842,826.5795720386562
843,826.5931440331723
844,826.606877300931
845,826.6207816313563
846,826.6348632900919
847,826.649124716953
848,826.6635642508139
849,826.6781758864031
850,826.6929490688807
851,826.7078685326697
852,826.7229141913801
853,826.7380610857675
854,826.753279396084
855,826.7685345231669
856,826.7837872390386
857,826.7989939036026
858,826.8141067407016
859,826.8290741654422
860,826.8438411551633
861,826.8583496575341
862,826.8725390297753
863,826.8863465028098
864,826.8997076641127
865,826.9125569537308
866,826.924828168906
867,826.9364549731724
868,826.947371405503
869,826.9575123845623
870,826.9668142029449
871,826.9752150066577
872,826.9826552560035
873,826.9890781651053
874,826.99443011806
875,826.9986610596842
876,827.0017248580159
877,827.0035796346103
878,827.0041880579139
879,827.0035175950871
880,827.0015407184019
881,826.9982350630675
882,826.9935835336412
883,826.987574356426
884,826.9802010761185
885,826.9714624965047
886,826.9613625665636
887,826.9499102144554
888,826.9371191327971
889,826.9230075198634
890,826.9075977828886
891,826.8909162108442
892,826.8729926243681
893,826.853860010035
894,826.8335541454712
895,826.8121132213264
896,826.7895774658652
897,826.7659887779128
898,826.7413903740936
899,826.7158264565832
900,826.6893419074698
901,826.6619820150141
902,826.6337922356506
903,826.6048179938215
904,826.575104519752
905,826.5446967232041
906,826.5136390996004
907,826.4819756643182
908,826.449749911527
909,826.4170047952957
910,826.3837827323069
911,826.3501256269547
912,826.3160749202683
913,826.2816716635107
914,826.2469566155596
915,826.2119703611107
916,826.1767534449382
917,826.1413465158334
