frame_number,force
0,824.8217254774472
1,824.8435284074544
2,824.8659813605102
3,824.8890475403022
4,824.9126886180254
5,824.9368651677623
6,824.9615370962672
7,824.9866640637056
8,825.0122058930068
9,825.0381229658861
10,825.064376603295
11,825.0909294273445
12,825.1177457009502
13,825.1447916408233
14,825.172035699168
15,825.1994488096449
16,825.2270045936345
17,825.2546795233897
18,825.2824530392606
19,825.3103076190326
20,825.3382287987488
21,825.3662051460497
22,825.3942281883295
23,825.4222922983821
24,825.450394539899
25,825.4785344746416
26,825.5067139324746
27,825.5349367449144
28,825.5632084428412
29,825.5915359196911
30,825.6199270624579
31,825.648390353724
32,825.6769344484084
33,825.7055677288475
34,825.7342978413942
35,825.7631312175752
36,825.792072583846
37,825.8211244664766
38,825.8502867013135
39,825.8795559604416
40,825.9089253078857
41,825.9383837946934
42,825.9679161012559
43,825.9975022324087
44,826.0271172688732
45,826.0567311771403
46,826.0863086793445
47,826.115809184847
48,826.1451867850641
49,826.1743903118763
50,826.2033634582231
51,826.2320449581947
52,826.260368823243
53,826.2882646306535
54,826.3156578600004
55,826.3424702730791
56,826.368620332887
57,826.3940236576042
58,826.418593506247
59,826.442241293455
60,826.4648771311844
61,826.4864103946027
62,826.5067503085357
63,826.5258065499429
64,826.5434898612232
65,826.5597126684189
66,826.5743896975655
67,826.5874385818073
68,826.5987804516438
69,826.6083405008172
70,826.6160485209574
71,826.6218393988703
72,826.6256535706357
73,826.6274374262425
74,826.6271436579575
75,826.6247315458816
76,826.6201671753762
77,826.6134235827485
78,826.6044808272874
79,826.5933259891862
80,826.5799530939556
81,826.5643629649336
82,826.5465630071542
83,826.5265669285805
84,826.5043944079988
85,826.4800707215385
86,826.4536263409574
87,826.4250965166017
88,826.394520856974
89,826.3619429155881
90,826.3274097943265
91,826.2909717708959
92,826.2526819562935
93,826.2125959865776
94,826.1707717516749
95,826.1272691622954
96,826.082149954141
97,826.0354775266987
98,825.9873168125994
99,825.9377341733607
100,825.8867973182918
101,825.8345752446185
102,825.7811381977665
103,825.7265576512109
104,825.6709063058966
105,825.6142581101982
106,825.5566883023323
107,825.4982734773047
108,825.4390916795913
109,825.3792225213105
110,825.318747324023
111,825.2577492801706
112,825.1963136273449
113,825.1345278259022
114,825.0724817289239
115,825.0102677334427
116,824.9479809027912
117,824.8857190511566
118,824.8235827822801
119,824.7616754746475
120,824.7001032059668
121,824.6389746107012
122,824.5784006660302
123,824.5184944039089
124,824.4593705498028
125,824.4011450916943
126,824.3439347853475
127,824.2878566032721
128,824.2330271356384
129,824.1795619519415
130,824.1275749327344
131,824.0771775815974
132,824.0284783288092
133,823.9815818392116
134,823.9365883362143
135,823.8935929512762
136,823.852685104679
137,823.813947920982
138,823.7774576820859
139,823.7432833214586
140,823.7114859633695
141,823.6821185106256
142,823.6552252839035
143,823.6308417157483
144,823.6089941023964
145,823.5896994163769
146,823.5729651822867
147,823.5587894173825
148,823.5471606379404
149,823.5380579321941
150,823.5314511013876
151,823.5273008716939
152,823.5255591804845
153,823.5261695397853
154,823.5290674776364
155,823.5341810551686
156,823.5414314543933
157,823.5507336293731
158,823.5619970116798
159,823.5751262601102
160,823.5900220447278
161,823.6065818559872
162,823.6247008300447
163,823.6442725810016
164,823.6651900301771
165,823.6873462221132
166,823.7106351172372
167,823.7349523521236
168,823.7601959597815
169,823.7862670437091
170,823.8130704003207
171,823.84051508492
172,823.8685149168539
173,823.8969889198231
174,823.925861693532
175,823.9550637130968
176,823.9845315531034
177,824.014208034036
178,824.044042290054
179,824.0739897589365
180,824.1040120972839
181,824.134077026074
182,824.1641581126636
183,824.1942344952101
184,824.2242905550148
185,824.2543155423398
186,824.2843031621718
187,824.3142511278648
188,824.3441606918998
189,824.3740361633156
190,824.4038844202377
191,824.4337144238788
192,824.4635367386751
193,824.4933630626072
194,824.5232057719277
195,824.5530774845513
196,824.5829906456601
197,824.6129571377746
198,824.6429879163468
199,824.6730926713675
200,824.703279515379
201,824.7335546982458
202,824.7639223490592
203,824.7943842455919
204,824.8249396116585
205,824.8555849427308
206,824.8863138605153
207,824.9171169977442
208,824.9479819147458
209,824.9788930492399
210,825.009831700241
211,825.0407760458979
212,825.0717011939078
213,825.1025792624606
214,825.1333794894796
215,825.1640683673487
216,825.1946097988978
217,825.2249652688932
218,825.2550940248706
219,825.2849532622563
220,825.3144983106688
221,825.3436828198886
222,825.3724589447503
223,825.4007775289439
224,825.4285882893968
225,825.455840005191
226,825.4824807166481
227,825.5084579405811
228,825.5337189067736
229,825.5582108188199
230,825.5818811403301
231,825.6046779058885
232,825.6265500549773
233,825.647447785584
234,825.6673229222091
235,825.686129291152
236,825.7038230950926
237,825.7203632793206
238,825.7357118830391
239,825.7498343704301
240,825.7626999373871
241,825.7742817909617
242,825.7845573994962
243,825.793508711923
244,825.8011223448084
245,825.8073897356215
246,825.8123072607004
247,825.8158763165575
248,825.8181033633801
249,825.8189999297623
250,825.8185825780855
251,825.8168728307337
252,825.8138970582288
253,825.8096863309353
254,825.804276235939
255,825.7977066603399
256,825.7900215421613
257,825.7812685906421
258,825.7714989783505
259,825.7607670075718
260,825.7491297526083
261,825.736646678644
262,825.723379237693
263,825.7093904433699
264,825.6947444284401
265,825.6795059915245
266,825.66374014101
267,825.6475116445162
268,825.6308845912016
269,825.613921972602
270,825.596685286496
271,825.579234167933
272,825.5616260519776
273,825.5439158733573
274,825.5261558080986
275,825.5083950610309
276,825.4906797013875
277,825.4730525472954
278,825.4555530986759
279,825.4382175166315
280,825.4210786456673
281,825.4041660732488
282,825.3875062198101
283,825.3711224519078
284,825.355035211625
285,825.3392621560606
286,825.3238183016521
287,825.3087161693386
288,825.293965928096
289,825.279575535809
290,825.2655508773878
291,825.2518959004638
292,825.2386127494831
293,825.225701900069
294,825.2131622965974
295,825.200991495973
296,825.189185819561
297,825.1777405141675
298,825.1666499226927
299,825.1559076654986
300,825.1455068339569
301,825.1354401973151
302,825.1257004225179
303,825.1162803044142
304,825.1071730020145
305,825.0983722759238
306,825.0898727225526
307,825.0816700012696
308,825.0737610505996
309,825.0661442889284
310,825.0588197944886
311,825.051789459024
312,825.0450571093737
313,825.0386285915074
314,825.0325118128508
315,825.0267167411928
316,825.0212553613718
317,825.0161415934174
318,825.0113911774416
319,825.0070215311392
320,825.0030515850789
321,824.9995015993111
322,824.9963929630725
323,824.9937479782237
324,824.9915896264122
325,824.9899413193612
326,824.988826631171
327,824.9882690114988
328,824.9882914792847
329,824.9889162980433
330,824.9901646350324
331,824.9920562075471
332,824.9946089203154
333,824.9978384987502
334,825.0017581234807
335,825.0063780719292
336,825.0117053727674
337,825.0177434791649
338,825.0244919668542
339,825.031946262882
340,825.040097410184
341,825.0489318718279
342,825.0584313775191
343,825.0685728146705
344,825.0793281672672
345,825.0906645071674
346,825.1025440433505
347,825.1149242342756
348,825.1277579665386
349,825.140993799626
350,825.1545762728077
351,825.1684462674858
352,825.1825414173418
353,825.1967965591479
354,825.2111442182597
355,825.225515123881
356,825.2398387500243
357,825.2540438787157
358,825.2680591820271
359,825.2818138184289
360,825.2952380369303
361,825.3082637805306
362,825.3208252794213
363,825.3328596240956
364,825.3443073086653
365,825.3551127351952
366,825.3652246711207
367,825.3745966543653
368,825.3831873445852
369,825.390960822917
370,825.3978868452463
371,825.4039410547674
372,825.4091051590691
373,825.4133670762002
374,825.4167210536531
375,825.4191677635126
376,825.4207143755797
377,825.421374608276
378,825.4211687552415
379,825.4201236841229
380,825.4182728033081
381,825.4156559924879
382,825.4123194936194
383,825.408315759375
384,825.4037032561331
385,825.3985462182351
386,825.3929143497086
387,825.3868824690168
388,825.3805300920914
389,825.3739409494066
390,825.3672024339799
391,825.3604049785711
392,825.3536413618294
393,825.3470059445642
394,825.3405938386658
395,825.334500012915
396,825.3288183423616
397,825.3236406106467
398,825.3190554766986
399,825.3151474184209
400,825.3119956670146
401,825.309673147137
402,825.3082454401272
403,825.3077697890554
404,825.3082941644801
405,825.3098564084564
406,825.3124834722641
407,825.3161907612515
408,825.3209815985408
409,825.3268468181078
410,825.3337644965225
411,825.3416998308842
412,825.3506051679693
413,825.3604201866588
414,825.3710722329223
415,825.3824768043054
416,825.3945381788134
417,825.4071501810442
418,825.4201970764179
419,825.4335545825015
420,825.4470909846466
421,825.4606683413891
422,825.4741437635587
423,825.48737075
424,825.500200562071
425,825.5124836184395
426,825.5240708911289
427,825.5348152833047
428,825.5445729689835
429,825.5532046750526
430,825.5605768875314
431,825.5665629673332
432,825.5710441652328
433,825.5739105297381
434,825.5750617040549
435,825.574407609615
436,825.5718690145379
437,825.5673779862784
438,825.5608782285814
439,825.5523253037749
440,825.5416867425503
441,825.5289420448286
442,825.5140825771335
443,825.497111373881
444,825.4780428516949
445,825.4569024467808
446,825.4337261855534
447,825.4085601986313
448,825.3814601883039
449,825.3524908592261
450,825.3217253210203
451,825.2892444700298
452,825.2551363562977
453,825.2194955408154
454,825.1824224466685
455,825.1440227060508
456,825.1044065040994
457,825.0636879206294
458,825.0219842717547
459,824.9794154543976
460,824.9361032973327
461,824.8921709224718
462,824.8477421196255
463,824.8029407373627
464,824.7578900921062
465,824.712712397088
466,824.6675282119315
467,824.6224559128207
468,824.5776111834926
469,824.5331065292166
470,824.4890508185986
471,824.4455488597539
472,824.4027010169712
473,824.3606028717008
474,824.3193449288376
475,824.2790123670649
476,824.2396848309035
477,824.2014362617391
478,824.1643347651396
479,824.1284425117967
480,824.0938156688418
481,824.0605043569262
482,824.0285526272315
483,823.997998452639
484,823.968873728748
485,823.9412042823307
486,823.9150098861977
487,823.8903042801019
488,823.8670951976544
489,823.8453843997653
490,823.8251677157965
491,823.8064350939892
492,823.7891706624978
493,823.7733528016163
494,823.7589542268198
495,823.7459420812701
496,823.7342780356734
497,823.7239183934706
498,823.7148142008916
499,823.7069113639158
500,823.700150776407
501,823.694468464961
502,823.6897957564539
503,823.6860594741116
504,823.6831821673477
505,823.6810823799223
506,823.6796749600541
507,823.6788714147409
508,823.67858030906
509,823.6787077102147
510,823.6791576755896
511,823.6798327836631
512,823.6806347058697
513,823.6814648162126
514,823.6822248340321
515,823.6828174947443
516,823.6831472439897
517,823.6831209517866
518,823.6826486436191
519,823.6816442441799
520,823.6800263274235
521,823.6777188648251
522,823.6746519624671
523,823.6707625762581
524,823.665995193122
525,823.6603024651572
526,823.6536457842841
527,823.6459957865662
528,823.637332777229
529,823.6276470686424
530,823.6169392243635
531,823.605220203263
532,823.5925113990033
533,823.5788445716687
534,823.5642616702409
535,823.5488145466373
536,823.5325645636626
537,823.5155821001767
538,823.4979459575483
539,823.4797426728553
540,823.4610657465676
541,823.4420147948244
542,823.4226946380089
543,823.4032143379103
544,823.3836861956795
545,823.3642247223223
546,823.3449455930198
547,823.325964596478
548,823.3073965908196
549,823.2893544777428
550,823.2719482062928
551,823.2552838166985
552,823.2394625338961
553,823.2245799201039
554,823.2107250960495
555,823.1979800405484
556,823.1864189774951
557,823.1761078579046
558,823.167103942774
559,823.1594554905071
560,823.1532015504407
561,823.1483718615215
562,823.1449868525941
563,823.1430577386493
564,823.142586706217
565,823.1435671808109
566,823.1459841694489
567,823.1498146713305
568,823.1550281494405
569,823.1615870549999
570,823.1694473955864
571,823.1785593368909
572,823.1888678276803
573,823.200313237546
574,823.2128319979166
575,823.226357238906
576,823.2408194169294
577,823.2561469292772
578,823.2722667118187
579,823.2891048157402
580,823.3065869594042
581,823.3246390520196
582,823.3431876866364
583,823.3621606010261
584,823.3814871061757
585,823.4010984831964
586,823.4209283501602
587,823.4409130003405
588,823.4609917123206
589,823.4811070308417
590,823.5012050160323
591,823.5212354585333
592,823.5411520588552
593,823.5609125704343
594,823.5804789067756
595,823.5998172136528
596,823.6188979075529
597,823.6376956813231
598,823.6561894775185
599,823.6743624300407
600,823.6922017758428
601,823.7096987404391
602,823.7268484027746
603,823.7436495457611
604,823.7601044980242
605,823.7762189707041
606,823.7920018918
607,823.8074652403175
608,823.8226238826924
609,823.837495413383
610,823.8520999997471
611,823.8664602291898
612,823.8806009551763
613,823.894549138402
614,823.9083336797648
615,823.9219852423703
616,823.9355360606023
617,823.9490197354085
618,823.9624710161145
619,823.9759255699156
620,823.9894197407326
621,824.0029902997056
622,824.0166741901235
623,824.0305082692539
624,824.0445290478208
625,824.0587724256101
626,824.0732734203632
627,824.0880658872844
628,824.1031822275693
629,824.1186530858546
630,824.1345070383586
631,824.1507702755786
632,824.1674662852164
633,824.1846155419903
634,824.2022352109481
635,824.2203388698532
636,824.238936254354
637,824.2580330275865
638,824.2776305744976
639,824.2977258209181
640,824.3183110778662
641,824.3393739119966
642,824.3608970431162
643,824.3828582693625
644,824.405230420411
645,824.4279813393961
646,824.4510738953212
647,824.4744660292845
648,824.4981108391216
649,824.5219567075955
650,824.5459474790929
651,824.5700226891188
652,824.5941178496815
653,824.6181647917778
654,824.6420920634771
655,824.6658253788471
656,824.6892881098549
657,824.7124018109729
658,824.7350867647067
659,824.7572625360697
660,824.7788485255097
661,824.7997645124468
662,824.819931184217
663,824.8392706470016
664,824.8577069163181
665,824.8751663854673
666,824.8915782715269
667,824.9068750400087
668,824.9209928106819
669,824.9338717479336
670,824.9454564392421
671,824.9556962647629
672,824.9645457596314
673,824.971964968696
674,824.9779197916446
675,824.9823823153242
676,824.9853311292956
677,824.9867516199092
678,824.9866362376479
679,824.9849847327467
680,824.981804355338
681,824.9771100179028
682,824.9709244188732
683,824.9632781265643
684,824.9542096224359
685,824.9437653022209
686,824.931999432713
687,824.9189740608949
688,824.9047588708021
689,824.8894309826406
690,824.8730746887746
691,824.8557811223881
692,824.8376478566449
693,824.8187784345401
694,824.7992818318198
695,824.7792718570843
696,824.7588664945473
697,824.7381871958793
698,824.717358127902
699,824.6965053826466
700,824.6757561556838
701,824.6552378980987
702,824.6350774475117
703,824.6154001444497
704,824.5963289419433
705,824.5779835178191
706,824.5604794003367
707,824.5439271187221
708,824.5284313909315
709,824.5140903611596
710,824.50099489867
711,824.4892279677275
712,824.4788640765704
713,824.4699688119508
714,824.4625984646885
715,824.4567997506832
716,824.4526096307459
717,824.4500552312425
718,824.4491538655606
719,824.4499131536755
720,824.4523312340804
721,824.4563970599207
722,824.4620907697921
723,824.4693841230217
724,824.4782409889373
725,824.4886178794686
726,824.5004645145109
727,824.5137244100672
728,824.5283354804421
729,824.5442306474738
730,824.5613384515134
731,824.5795836602135
732,824.5988878721267
733,824.619170112885
734,824.6403474225696
735,824.6623354336955
736,824.6850489398133
737,824.7084024550295
738,824.7323107647429
739,824.756689467553
740,824.7814555076974
741,824.8065276965673
742,824.8318272205578
743,824.8572781307469
744,824.882807808276
745,824.908347398471
746,824.9338322067415
747,824.9592020497438
748,824.9844015558618
749,825.0093804098524
750,825.0340935378773
751,825.0585012310607
752,825.0825692074867
753,825.1062686135215
754,825.1295759657437
755,825.1524730355134
756,825.1749466797718
757,825.1969886234045
758,825.2185951994645
759,825.2397670537158
760,825.2605088201885
761,825.28082877527
762,825.3007384787195
763,825.3202524097428
764,825.3393876046019
765,825.3581633001083
766,825.3766005858763
767,825.3947220675878
768,825.4125515432409
769,825.4301136940869
770,825.4474337918112
771,825.4645374234979
772,825.4814502358089
773,825.4981976992011
774,825.5148048918478
775,825.5312963016291
776,825.5476956435865
777,825.5640256897376
778,825.5803081081225
779,825.5965633087455
780,825.6128102960462
781,825.6290665302657
782,825.645347802402
783,825.6616681283238
784,825.678039666882
785,825.6944726651407
786,825.710975431949
787,825.7275543393773
788,825.7442138501955
789,825.7609565686193
790,825.7777833108526
791,825.7946931914302
792,825.811683721321
793,825.8287509143922
794,825.8458893998325
795,825.8630925388638
796,825.880352544339
797,825.8976606017235
798,825.9150069897721
799,825.9323811990604
800,825.9497720464211
801,825.9671677833118
802,825.9845561964962
803,826.0019247003808
804,826.0192604217417
805,826.0365502788649
806,826.0537810575812
807,826.0709394862724
808,826.0880123115302
809,826.1049863765699
810,826.121848705335
811,826.1385865953816
812,826.155187721697
813,826.1716402522535
814,826.1879329751507
815,826.2040554367978
816,826.2199980903611
817,826.2357524532813
818,826.2513112719867
819,826.2666686910914
820,826.2818204234085
821,826.2967639159629
822,826.3114985061409
823,826.326025561717
824,826.3403485989437
825,826.3544733736995
826,826.3684079412288
827,826.3821626800355
828,826.3957502751725
829,826.409185655965
830,826.4224858837816
831,826.4356699871934
832,826.4487587443274
833,826.4617744146275
834,826.4747404241765
835,826.4876810104103
836,826.50062083367
837,826.513584564472
838,826.5265964561887
839,826.5396799126672
840,826.5528570592052
841,826.5661483237114
842,826.5795720330675
843,826.5931440276988
844,826.606877295581
845,826.6207816261376
846,826.6348632850122
847,826.6491247120193
848,826.6635642460326
849,826.67817588178
850,826.6929490644202
851,826.7078685283747
852,826.722914187252
853,826.7380610818068
854,826.7532793922907
855,826.7685345195407
856,826.7837872355794
857,826.7989939003103
858,826.8141067375757
859,826.8290741624819
860,826.8438411523681
861,826.8583496549037
862,826.8725390273098
863,826.886346500509
864,826.8997076619762
865,826.9125569517571
866,826.9248281670931
867,826.9364549715177
868,826.9473714040032
869,826.9575123832141
870,826.9668142017449
871,826.9752150056029
872,826.9826552550903
873,826.9890781643295
874,826.9944301174164
875,826.9986610591666
876,827.001724857617
877,827.0035796343227
878,827.0041880577296
879,827.0035175949976
880,827.001540718398
881,826.9982350631398
882,826.993583533779
883,826.9875743566174
884,826.9802010763502
885,826.971462496762
886,826.9613625668311
887,826.9499102147174
888,826.9371191330373
889,826.9230075200657
890,826.9075977830378
891,826.8909162109259
892,826.8729926243683
893,826.8538600099406
894,826.8335541452708
895,826.8121132210109
896,826.7895774654281
897,826.7659887773498
898,826.7413903734025
899,826.7158264557634
900,826.6893419065226
901,826.6619820139417
902,826.6337922344559
903,826.6048179925082
904,826.5751045183248
905,826.5446967216676
906,826.5136390979591
907,826.4819756625764
908,826.4497499096891
909,826.4170047933659
910,826.3837827302895
911,826.3501256248537
912,826.316074918088
913,826.2816716612551
914,826.2469566132332
915,826.2119703587185
916,826.1767534424849
917,826.1413465133239
