acceleration,velocity,displacement
-0.003927747451493986,0.0,0.0
-0.0036685385820330384,-1.899071508381756e-06,-4.74767877095439e-10
-0.0034016017723597597,-3.6666065969799557e-06,-1.866187403435867e-09
-0.003127374483427422,-5.298850660926751e-06,-4.107551717912544e-09
-0.002846312395558482,-6.792272380673227e-06,-7.130332478312539e-09
-0.0025588842323389046,-8.143571537647573e-06,-1.0864293457892738e-08
-0.0022655666510296717,-9.349684258489718e-06,-1.523760740692706e-08
-0.0019668392405148946,-1.040778573137586e-05,-2.0176974904393454e-08
-0.0016631796546266034,-1.1315290455161234e-05,-2.560774395102773e-08
-0.0013550589039489451,-1.206985009480512e-05,-3.145402908851932e-08
-0.0010429368327524605,-1.2669349028980472e-05,-3.763882886946572e-08
-0.0007272578161903327,-1.311189769121617e-05,-4.408414054951488e-08
-0.0004084467223509916,-1.3395823825851502e-05,-5.07110709287818e-08
-8.690519120331321e-05,-1.3519661804240077e-05,-5.743994233630469e-08
0.00023699171442879462,-1.3482140173433706e-05,-6.419039283072313e-08
0.0005628984330571256,-1.3282167636562227e-05,-7.088146978322211e-08
0.0008905013567336355,-1.2918817689114537e-05,-7.74317161146413e-08
0.0012195207707236125,-1.2391312157250226e-05,-8.375924857623248e-08
0.0015497122471673053,-1.1699003902777496e-05,-8.978182759123941e-08
0.0018808674694069604,-1.084135897363393e-05,-9.541691831034226e-08
0.0022128144795495754,-9.817938486394796e-06,-1.0058174267534945e-07
0.002545417361506722,-8.628380526130721e-06,-1.0519332242848083e-07
0.002878575386864937,-7.272382339037806e-06,-1.0916851314477296e-07
0.003212221655359866,-5.749683078481605e-06,-1.1242402949915281e-07
0.0035463212580510326,-4.06004735012888e-06,-1.1487646210630544e-07
0.003880868984844311,-2.2032497894050444e-06,-1.1644228639118892e-07
0.00421588659048216,-1.7906089557342673e-07,-1.1703786406243353e-07
0.004551419626781387,2.01276565874246e-06,-1.1657943787164128e-07
0.004887533848811686,4.372504027640728e-06,-1.1498312045004548e-07
0.005224311210685294,6.900465292514973e-06,-1.1216487812000656e-07
0.005561845478642404,9.597004464846898e-06,-1.080405106806661e-07
0.005900237499705319,1.2462525209433829e-05,-1.0252562826209591e-07
0.006239590169757765,1.54974821267996e-05,-9.553562642803755e-08
0.006580003144029942,1.870238045524653e-05,-8.698566078252601e-08
0.006921567327846028,2.2077773073215522e-05,-7.67906224004105e-08
0.007264359183809442,2.562425470112939e-05,-6.486511545682427e-08
0.007608434903414107,2.9342453222935277e-05,-5.112343847580811e-08
0.007953824520768437,3.323301807898091e-05,-3.547957065032906e-08
0.008300526084298503,3.729660573024765e-05,-1.784716469802192e-08
0.008648500029362464,4.153386225866289e-05,1.8604522992057164e-09
0.008997663896112585,4.594540324003165e-05,2.3730268673879353e-08
0.009347887515549647,5.053179109294721e-05,4.7849567257124063e-08
0.009698988757176773,5.529351016112881e-05,7.430589257064306e-08
0.010050729904137334,6.023093982645734e-05,1.031870050675396e-07
0.010402814698175514,6.534432597703556e-05,1.3458082151841282e-07
0.010754886079392857,7.063375117142764e-05,1.6857534080552863e-07
0.011106524639224362,7.609910385108195e-05,2.0525855456115601e-07
0.011457247807041748,8.174004696264848e-05,2.4471834226458864e-07
0.011806509788676364,8.755598636157801e-05,2.870423505956453e-07
0.012153702260824557,9.354603937395324e-05,3.323178570295281e-07
0.012498155804765059,9.970900389035064e-05,3.806316178456041e-07
0.01283914204742321,0.00010604332835339771,4.320697009065412e-07
0.013175876469608733,0.00011254708298265569,4.867173037405546e-07
0.013507521835585139,0.00011921793255895417,5.44658557625957e-07
0.01383319219308067,0.00012605311106612062,6.059763185322257e-07
0.01415195739020565,0.0001330493984619422,6.707519459142415e-07
0.014462848056592547,0.00014020309982364174,7.390650704856374e-07
0.014764861000647566,0.00014751002708795178,8.109933522135358e-07
0.01505696498334324,0.0001549654835839495,8.866122298815111e-07
0.015338106838379086,0.00016256425153938006,9.659946636623435e-07
0.01560721791222055,0.00017030058272702998,1.0492108722289461e-06
0.01586322079186184,0.00017816819240305058,1.1363280660114663e-06
0.016105036276926644,0.0001861602566702477,1.2274101782797908e-06
0.016331590542325528,0.00019426941337506075,1.322517595791118e-06
0.016541822429680768,0.00020248776661806233,1.4217068907893988e-06
0.016734690796973616,0.00021080689492472592,1.5250305561750958e-06
0.016909181846152567,0.00021921786308550745,1.6325367456776541e-06
0.017064316340962678,0.00022771123763228626,1.7442690208571025e-06
0.017199156624215103,0.0002362771058735807,1.8602661067335692e-06
0.01731281334546343,0.0002449050983660003,1.9805616577934643e-06
0.017404451817249398,0.0002535844146566785,2.105184036049134e-06
0.017473297927221323,0.0002623038520927962,2.2341561027365027e-06
0.01751864353677512,0.0002710518374587953,2.3674950251244006e-06
0.01753985129164932,0.0002798164611659014,2.505212099780575e-06
0.017536358763580017,0.00028858551367970874,2.6473125934919774e-06
0.017507681845201968,0.0002973465238319042,2.7937956028698806e-06
0.017453417334968455,0.0003060867986269468,2.9446539334845935e-06
0.017373244669159293,0.00031479346412797873,3.099873999173325e-06
0.017266926778298695,0.00032345350698984325,3.2594357419527804e-06
0.017134310062459007,0.00033205381620003265,3.4233125727502495e-06
0.01697532349262727,0.0003405812245888042,3.591471332947459e-06
0.01678997685723392,0.0003490225496762695,3.7638722765137275e-06
0.016578358192635704,0.0003573646334387369,3.940469072292479e-06
0.016340630468928825,0.00036559438060412803,4.121208825803195e-06
0.01607702764164041,0.0003736987951317703,4.30603211973717e-06
0.015787850211523412,0.00038166501459506127,4.4948730721688786e-06
0.015473460448690694,0.00038948034226011477,4.687659411382673e-06
0.015134277434539874,0.00039713227673092243,4.884312566130432e-06
0.014770772063358832,0.0004046085391053971,5.084747770089512e-06
0.014383462130554678,0.0004118970976538755,5.28887417927933e-06
0.01397290761709178,0.0004189861900907871,5.496595001215496e-06
0.0135397062604062,0.00042586434356016163,5.7078076346282335e-06
0.013084489482125181,0.0004325203924957945,5.922403818642222e-06
0.012607918723614272,0.00043894349454722936,6.140269790402979e-06
0.012110682221840237,0.000445123144783593,6.3612864502356845e-06
0.011593492238293918,0.00045104918839862653,6.585329533531239e-06
0.011057082731276742,0.0004567118321410192,6.812269788666151e-06
0.010502207439364067,0.00046210165468367937,7.041973160372326e-06
0.009929638328239652,0.0004672096161255803,7.2743009780746405e-06
0.00934016435122348,0.0004720270667954461,7.509110148804897e-06
0.008734590485144298,0.00047654575550453804,7.746253354379893e-06
0.008113737018509521,0.0004807578373804515,7.98557925260114e-06
0.007478439079321633,0.0004846558814049093,8.22693268229748e-06
0.00682954639551414,0.00048823287777361823,8.470154872092112e-06
0.00616792328806252,0.0004914822451945124,8.715083652834145e-06
0.0054944489082829895,0.0004943978382435987,8.961553673693672e-06
0.00481001774205557,0.0004969739549061834,9.209396621981117e-06
0.004115540405744744,0.0004992053444431335,9.458441446818446e-06
0.0034119447480567113,0.0005010872157315839,9.708514586862126e-06
0.002700177254951658,0.0005026152462323359,9.959440202353106e-06
0.001981204735471983,0.0005037855917299418,1.0211040411843676e-05
0.0012560162410321278,0.0005045948969740679,1.0463135534019678e-05
0.0005256251372543367,0.0005050403073186395,1.0715544335092854e-05
-0.0002089287844169159,0.0005051194814068489,1.0968084282274227e-05
-0.0009465772861044535,0.0005048306048892185,1.1220571803848243e-05
-0.0016862218856151957,0.0005041724050962887,1.147282255634462e-05
-0.002426732401869098,0.0005031441665244176,1.1724651699249797e-05
-0.0031669459496549445,0.0005017457469365365,1.1975874177615035e-05
-0.0039056664795407772,0.0004999775938292376,1.222630501280648e-05
-0.004641664953944261,0.0004978407609708663,1.2475759601506505e-05
-0.005373680244990303,0.0004953369246711327,1.2724054022917005e-05
-0.0061004208282650135,0.0004924683994028189,1.2971005353935492e-05
-0.006820567327463553,0.0004892381523638867,1.321643199187717e-05
-0.0075327759376354496,0.00048564981654761197,1.3460153984105043e-05
-0.008235682720162639,0.00048170770188316243,1.3701993363712737e-05
-0.00892790872672077,0.0004774168040214416,1.3941774490188888e-05
-0.009608065881046322,0.0004727828103694998,1.4179324393786624e-05
-0.010274763530050595,0.00046781210301672553,1.4414473122133181e-05
-0.010926615566165938,0.0004625117582426714,1.464705408744803e-05
-0.011562248016346229,0.0004568895423470434,1.4876904412595458e-05
-0.01218030698690062,0.00045095390359623167,1.5103865274081277e-05
-0.012779466843293211,0.0004447139601386832,1.5327782240015005e-05
-0.013358438488602083,0.0004381794838057094,1.5548505601001103e-05
-0.013915977592120867,0.00043136087978552865,1.5765890691898914e-05
-0.014450892626070919,0.0004242691622309807,1.5979798202403043e-05
-0.014962052599439593,0.0004169159259246031,1.6190094474441937e-05
-0.015448394419783747,0.0004093133141697973,1.6396651784465538e-05
-0.015908929842725072,0.0004014739831041701,1.659934860878403e-05
-0.01634275197431359,0.0003934110626499104,1.679806987022255e-05
-0.016749041284045012,0.00038513811433532076,1.6992707164468858e-05
-0.017127071082765816,0.00037666908624361804,1.7183158964613592e-05
-0.01747621242395997,0.0003680182653669366,1.736933080251623e-05
-0.01779593839163925,0.0003592002276630368,1.7551135425773726e-05
-0.018085827738294123,0.0003502297861305535,1.7728492929222122e-05
-0.01834556783540402,0.00034112193723712895,1.7901330860064044e-05
-0.01857495690137235,0.00033189180605293486,1.806958429588656e-05
-0.018773905478393395,0.00032255459045799344,1.823319589501429e-05
-0.018942437138740886,0.0003131255048037099,1.8392115918829717e-05
-0.01908068840916273,0.000303619723416734,1.8546302225884826e-05
-0.019188907903732868,0.0002940523243385101,1.869572023782364e-05
-0.01926745464692327,0.00028443823370084603,1.884034287733348e-05
-0.01931679555415651,0.0002747921711505761,1.8980150478546336e-05
-0.019337502028432867,0.00026512859675492873,1.911513067052271e-05
-0.019330245639301736,0.0002554616598379951,1.9245278234670942e-05
-0.019295792875663634,0.0002458051502092537,1.9370594937182756e-05
-0.01923499899839255,0.00023617245224073966,1.9491089337795256e-05
-0.01914880105226484,0.00022657650222807532,1.960677657641246e-05
-0.019038210124383097,0.00021702974943391335,1.9717678139327957e-05
-0.018904302957178973,0.00020754412116352284,1.9823821606977317e-05
-0.018748213035255274,0.00019813099216541428,1.992524038530955e-05
-0.01857112126414094,0.00018880115859056524,2.0021973422998545e-05
-0.018374246350832412,0.0001795648166868219,2.0114064916817894e-05
-0.018158834991914417,0.0001704315463511352,2.0201564007577382e-05
-0.01792615197925404,0.0001614102996083431,2.028452446906725e-05
-0.01767747034100642,0.00015250939402827797,2.0363004392476405e-05
-0.01741406164036732,0.00014373651103293452,2.043706586874171e-05
-0.01713718655183154,0.0001350986989848848,2.0506774671246164e-05
-0.016848085822652053,0.00012660238089126391,2.05721999412152e-05
-0.016547971709550757,0.00011825336650821322,2.063341387806507e-05
-0.016238019965071234,0.00011005686858955772,2.0690491436839512e-05
-0.01591936243772255,0.00010201752298885927,2.0743510034734117e-05
-0.01559308034328246,9.413941229360801e-05,2.0792549268554735e-05
-0.01526019825916379,8.642609264299645e-05,2.0837690644788887e-05
-0.014921678889691613,7.88806233557826e-05,2.087901732378858e-05
-0.01457841864765875,7.150559897144501e-05,2.0916613879370386e-05
-0.014231244094749573,6.430318328584292e-05,2.0950566074934707e-05
-0.013880909277776453,5.7275144942711414e-05,2.0980960656991844e-05
-0.01352809398783234,5.042289412630922e-05,2.1007885166759098e-05
-0.013173402954512952,4.37475198907229e-05,2.1031427770263357e-05
-0.012817365965462273,3.724982766072909e-05,2.105167710715122e-05
-0.01246043887451456,3.093037645073489e-05,2.1068722158179087e-05
-0.012103005437837032,2.4789515372646986e-05,2.1082652131134933e-05
-0.011745379905650914,1.8827419036775e-05,2.109355636473729e-05
-0.011387810298502079,1.3044121485736753e-05,2.110152424986792e-05
-0.011030482302684568,7.4395483354400906e-06,2.1106645167323212e-05
-0.010673523718791761,2.0135468300710086e-06,2.110900844111459e-05
-0.010317009386455928,-3.2340864462409142e-06,2.1108703306210547e-05
-0.009960966490964854,-8.30358041559611e-06,2.1105818889495088e-05
-0.009605380141927973,-1.3195167073819318e-05,2.1100444202622735e-05
-0.009250199110398954,-1.790906188690105e-05,2.1092668145382554e-05
-0.008895341624291033,-2.2445447070573547e-05,2.1082579518143186e-05
-0.00854070114627843,-2.6804457763215913e-05,2.1070267041934738e-05
-0.008186152078767288,-3.098617106947734e-05,2.1055819384726564e-05
-0.007831555347774907,-3.4990597926112894e-05,2.1039325192477665e-05
-0.007476763815532688,-3.8817677716939796e-05,2.10208731235669e-05
-0.007121627471221444,-4.246727553862833e-05,2.1000551885253008e-05
-0.006765998357590994,-4.593918199583144e-05,2.0978450270869392e-05
-0.006409735206713415,-4.923311538690754e-05,2.095465719652371e-05
-0.006052707772320403,-5.2348726131666e-05,2.0929261736144066e-05
-0.005694800852849374,-5.5285603287958445e-05,2.090235315378916e-05
-0.0053359180005799435,-5.8043283001315775e-05,2.087402093221684e-05
-0.004975984912639746,-6.0621258729620696e-05,2.0844354796784107e-05
-0.004614952499431516,-6.301899308263851e-05,2.0813444733831043e-05
-0.004252799625515694,-6.523593111387531e-05,2.0781381002781916e-05
-0.0038895355187437385,-6.727151489994018e-05,2.074825414127846e-05
-0.003525201843457651,-6.912519924049052e-05,2.0714154962743353e-05
-0.0031598744293879822,-7.079646830870193e-05,2.0679174545856057e-05
-0.0027936646413314857,-7.228485307638181e-05,2.0643404215509787e-05
-0.0024267203710267413,-7.358994932947136e-05,2.0606935514908323e-05
-0.002059226634023349,-7.471143608073388e-05,2.0569860168555774e-05
-0.0016914057610495988,-7.564909417950212e-05,2.0532270035990716e-05
-0.0013235171859222134,-7.640282491624507e-05,2.0494257056216777e-05
-0.0009558568461929292,-7.697266842427385e-05,2.0455913182881648e-05
-0.0005887562208145913,-7.735882169102573e-05,2.041733031035282e-05
-0.00022258103142065928,-7.756165600408453e-05,2.0378600190929044e-05
0.0001422703594178579,-7.758173367208523e-05,2.0339814343510003e-05
0.0005053688026518362,-7.741982388156781e-05,2.030106395412159e-05
0.0008662564015609758,-7.707691758051461e-05,2.0262439768756072e-05
0.001224448661618242,-7.65542413147198e-05,2.0224031979032264e-05
0.001579436691353877,-7.585326997647678e-05,2.0185930101209464e-05
0.001930689417232704,-7.497573844933013e-05,2.0148222849103013e-05
0.0022776557946023574,-7.392365214637137e-05,2.0110998001454087e-05
0.002619767005820322,-7.26992964462657e-05,2.0074342264305928e-05
0.002956438645417868,-7.130524503345615e-05,2.0038341128936e-05
0.003287072912163858,-6.974436714406072e-05,2.0003078725891618e-05
0.0036110608550489077,-6.801983370225753e-05,1.9968637675680037e-05
0.003927784740147708,-6.613512230345837e-05,1.9935098936678608e-05
0.004236620609693762,-6.4094020965998e-05,1.9902541650861245e-05
0.004536941093504203,-6.19006305401985e-05,1.9871042987984696e-05
0.004828118510042386,-5.9559365639311854e-05,1.9840677988939818e-05
0.005109528269024417,-5.707495394454515e-05,1.9811519409043852e-05
0.005380552568318314,-5.445243373520947e-05,1.9783637562123914e-05
0.005640584363867204,-5.1697149502163094e-05,1.975710016631457e-05
0.00588903157362557,-4.88147455177899e-05,1.973197219255958e-05
0.0061253214527055315,-4.581115726120713e-05,1.970831571686483e-05
0.006348905055035761,-4.26926006342718e-05,1.968618977739096e-05
0.006559261686662143,-3.9465558948847326e-05,1.966565023749518e-05
0.006755903259744382,-3.61367677122457e-05,1.9646749655829906e-05
0.0069383784691022556,-3.271319728003404e-05,1.9629537164581836e-05
0.00710627672816117,-2.9202033480718184e-05,1.9614058356891648e-05
0.007259231815610003,-2.561065634477539e-05,1.9600355184435275e-05
0.007396925197662319,-2.194661709145731e-05,1.9588465866076218e-05
0.007519089001809935,-1.8217613541589247e-05,1.9578424808417956e-05
0.0076255086240156296,-1.4431464135132855e-05,1.9570262538998775e-05
0.007716024952420394,-1.059608074102385e-05,1.9564005652779735e-05
0.007790536189516062,-6.7194404555397365e-06,1.9559676772480593e-05
0.007848999254609855,-2.809556594508257e-06,1.9557294523218083e-05
0.007891430750442822,1.1255509067549125e-06,1.9556873521796143e-05
0.007917907480357094,5.077885464454891e-06,1.9558424380888946e-05
0.007928566504545027,9.039503960680422e-06,1.9561953728245228e-05
0.007923604728477678,1.3002546768936098e-05,1.9567464240927633e-05
0.007903278025691384,1.6959267457478363e-05,1.9574954694484237e-05
0.007867899907864441,2.090206194086732e-05,1.9584420026833824e-05
0.007817839761773856,2.4823496858276892e-05,1.959585141653361e-05
0.007753520672220689,2.871633696677553e-05,1.9609236374989875e-05
0.007675416845656301,3.257357134624478e-05,1.962455885206813e-05
0.007584050648814773,3.638843821986255e-05,1.964179935445966e-05
0.007479989283347086,4.0154448202903017e-05,1.966093507606535e-05
0.007363841125445981,4.386540580510128e-05,1.968194003956735e-05
0.007236251759626133,4.751542902636931e-05,1.9704785248275217e-05
0.007097899726127931,5.109896689780782e-05,1.972943884725626e-05
0.006949491989708427,5.461081482676691e-05,1.9755866292687405e-05
0.006791759135986738,5.8046127608190704e-05,1.9784030528296144e-05
0.006625450316005684,6.140042997118881e-05,1.981389216769099e-05
0.006451327986080146,6.466962454671026e-05,1.9845409681320464e-05
0.006270162518688812,6.78499971729025e-05,1.9878539586750368e-05
0.006082726780161394,7.093821949761505e-05,1.9913236640917996e-05
0.005889790774412673,7.393134888625857e-05,1.9949454033013963e-05
0.005692116439325195,7.682682568969304e-05,1.998714357665795e-05
0.005490452663454762,7.962246796538803e-05,2.0026255900071723e-05
0.005285530576500612,8.231646377537687e-05,2.0066740633006913e-05
0.005078059162701692,8.490736121017744e-05,2.01085465892533e-05
0.0048687212512997,8.739405631367778e-05,2.0151621943634266e-05
0.004658169945736565,8.977577911293685e-05,2.019591440249092e-05
0.004447025552036256,9.205207798738006e-05,2.0241371366765998e-05
0.004235873052502071,9.422280263851463e-05,2.0287940086922472e-05
0.004025260151220567,9.62880859394453e-05,2.033556780906696e-05
0.003815695900795437,9.824832495244929e-05,2.0384201911789934e-05
0.0036076499046211294,0.00010010416140380344,2.0433790033378997e-05
0.003401552071821889,0.0001018564618979142,2.0484280189204428e-05
0.003197792881428261,0.00010350629813622673,2.0535620879212964e-05
0.002996724090452466,0.00010505492737919691,2.058776118559182e-05
0.0027986598039643515,0.00010650377335280112,2.064065086077482e-05
0.0026038778203471566,0.00010785440775887899,2.069424040605274e-05
0.002412621169746936,0.00010910853250640251,2.074848114111906e-05
0.002225099772418891,0.00011026796274194397,2.0803325264931146e-05
0.002041492154541985,0.00011133461072368419,2.0858725908297552e-05
0.0018619471740218146,0.00011231047055582514,2.0914637178617428e-05
0.0016865857269359956,0.0001131976037810646,2.097101419720165e-05
0.0015155024223266515,0.00011399812581838025,2.1027813129601514e-05
0.001348767224224935,0.00011471419323001815,2.1084991209363615e-05
0.0011864270649055923,0.00011534799180230079,2.1142506755621693e-05
0.0010285074390827458,0.00011590172542829788,2.1200319184929342e-05
0.0008750140013062452,0.00011637760578839513,2.1258389017733515e-05
0.0007259342015593757,0.00011677784283911153,2.131667787989039e-05
0.0005812389945736742,0.00011710463613814479,2.1375148499634706e-05
0.0004408846461000999,0.00011736016704831323,2.143376470043132e-05
0.0003048146467600664,0.00011754659187152827,2.1492491390161282e-05
0.00017296174089521138,0.00011766603596844209,2.1551294547121273e-05
