acceleration,velocity,displacement
-0.005205842774631979,0.0,0.0
-0.004644091710333138,-2.4624836212412794e-06,-6.156209053103199e-10
-0.0040671087756652645,-4.64028374274088e-06,-2.39131274630586e-09
-0.0034792158762128014,-6.5268649057103966e-06,-5.183099908418679e-09
-0.002884577170736598,-8.117813167447747e-06,-8.844269426708216e-09
-0.0022871500613432373,-9.410744975467706e-06,-1.322640896243708e-08
-0.0016906575957879788,-1.040519688975051e-05,-1.8180394428741636e-08
-0.00109857887714063,-1.1102506007982663e-05,-2.355732015317493e-08
-0.0005141520387830069,-1.1505688736963572e-05,-2.920936883941149e-08
5.9616270270778e-05,-1.1619322679091629e-05,-3.499062169342529e-08
0.0006199401561434234,-1.144943357248808e-05,-4.075781075632022e-08
0.001164246105240394,-1.1003387007142126e-05,-4.637101590122777e-08
0.0016901686461783094,-1.028978331928745e-05,-5.169430848283516e-08
0.002195550014967083,-9.318353654001101e-06,-5.65963427261573e-08
0.002678442668726079,-8.099855483077812e-06,-6.095089501042703e-08
0.00313711312268386,-6.645966535225327e-06,-6.463735051500282e-08
0.0035700456650138695,-4.969176838300894e-06,-6.754113635838438e-08
0.003975944644524241,-3.0826792609163663e-06,-6.955410038318869e-08
0.004353734198833102,-1.0002595500770304e-06,-7.057483508593703e-08
0.004702554880962685,1.2638127198719164e-06,-7.05089467934883e-08
0.0050217580904647575,3.694890962728777e-06,-6.926927087283813e-08
0.005310901219412449,6.278055790198079e-06,-6.677603418460642e-08
0.0055697477045780555,8.998218021195706e-06,-6.295696573175797e-08
0.005798275784610348,1.1840223893492806e-05,-5.7747355253085846e-08
0.005996698120076337,1.4788967369664477e-05,-5.1090057437296526e-08
0.006165492378349761,1.7829514994271e-05,-4.293543684631266e-08
0.00630544068581591,2.0947248260312418e-05,-3.3241246032666804e-08
0.006417673875685478,2.4128026900687766e-05,-2.1972427242416757e-08
0.006503715511572913,2.7358374247502364e-05,-9.100826955369223e-09
0.0065655210333490375,3.0625683383732855e-05,5.395187452439581e-09
0.006605508435045389,3.391844075083146e-05,2.1531218486080662e-08
0.006626577814363694,3.7226462313183727e-05,3.931744425208446e-08
0.006632117377574749,4.054113611116834e-05,5.875934385817248e-08
0.0066259928232324395,4.3855663661370135e-05,7.98585438013071e-08
0.006612515824241142,4.716529082323853e-05,1.0261378242245927e-07
0.006596386771194163,5.046751647209736e-05,1.2702198424629323e-07
0.006582608611596584,5.376226531779505e-05,1.5307942969376634e-07
0.006576373193500323,5.705201076906927e-05,1.8078299871548243e-07
0.006582927553558365,6.0341835955833944e-05,2.1013146039670824e-07
0.00660743202128992,6.363942584954602e-05,2.4112677584805324e-07
0.006654822587304577,6.695498950169465e-05,2.737753796858634e-07
0.0067296871539202895,7.030111693700087e-05,3.080894062955373e-07
0.006836161303101588,7.369257905125634e-05,3.4408783029260157e-07
0.006977845681266286,7.71460807973483e-05,3.8179749525475274e-07
0.007157744289584079,8.067997829006089e-05,4.21254010026605e-07
0.007378221211481576,8.43139696653273e-05,4.625024970154521e-07
0.0076409733423942906,8.806876830379626e-05,5.05598181507733e-07
0.007947018105828936,9.196576616585207e-05,5.50606815125145e-07
0.00829669600022983,9.602669469236676e-05,5.976049303396997e-07
0.008689686817930337,0.0001002732903969068,6.466799266120181e-07
0.009125036458978516,0.00010472697121613402,6.979299920152782e-07
0.009601190144662696,0.00010940852786704433,7.514638667860728e-07
0.010116027843760039,0.00011433783236415,8.074004568438713e-07
0.010666898104706715,0.0001195335638512667,8.658683058977255e-07
0.011250646931262718,0.00012501295011025905,9.27004934388107e-07
0.011863639111667825,0.00013079152162099168,9.909560523209198e-07
0.0125017706521629,0.00013688287406194937,1.057874651241655e-06
0.013160472709758652,0.00014329843490242975,1.1279199784827498e-06
0.013834709681745234,0.0001500472305003057,1.2012563948334337e-06
0.014518976392857551,0.0001571356520189564,1.2780521154632492e-06
0.015207300598585596,0.0001645672212668172,1.3584778337846925e-06
0.015893256715597798,0.00017234236059536303,1.4427052292502377e-06
0.01656999536689154,0.00018045817361598537,1.5309053628030747e-06
0.017230291996086156,0.00018890824545672979,1.6232469675712534e-06
0.017866616678984586,0.00019768247262549746,1.7198946470918103e-06
0.018471225865135228,0.0002067669332615274,1.8210069985635666e-06
0.019036275067547046,0.00021614380849469797,1.926734684002623e-06
0.01955395000247001,0.00022579136476220222,2.037218477316848e-06
0.020016612683016882,0.00023568400543357395,2.152587319865792e-06
0.020416958578342047,0.00024579239824891366,2.2729564207864137e-06
0.02074818124718993,0.00025608368320529664,2.3984254411499664e-06
0.021004141324879773,0.00026652176384831406,2.529076802913369e-06
0.02117953620004444,0.00027706768322954513,2.664974164682834e-06
0.021270064720658736,0.0002876800834597209,2.806161106355151e-06
0.021272579025646953,0.0002983157443962973,2.9526600633191554e-06
0.02118521474244202,0.00030893019283831954,3.1044715476278097e-06
0.021007491674541946,0.0003194783694425655,3.261573688198031e-06
0.02074037885499047,0.0003299153370749486,3.4239221148274092e-06
0.02038631958240519,0.0003401970116842975,3.591450202017221e-06
0.01994921332892991,0.0003502808949121313,3.7640696786663282e-06
0.019434352051409556,0.00036012678625721613,3.941671598958665e-06
0.018848309017144106,0.0003696974515243545,4.124127658404057e-06
0.018198780136810904,0.00037895922381284326,4.3112918272383566e-06
0.017494381796499023,0.00038788251429617074,4.50300226176561e-06
0.016744414334538403,0.0003964422133289301,4.699083443671885e-06
0.015958604448265797,0.0004046179680246311,4.899348489010275e-06
0.015146841365097126,0.0004123943294779719,5.1036015633859256e-06
0.014318920732875946,0.00041976077000246514,5.311640338256035e-06
0.013484308111783541,0.00042671157721363,5.5232584250600584e-06
0.01265193153811614,0.00043324563712610493,5.738247728644993e-06
0.011830010028241529,0.00043936612251769435,5.956400668555942e-06
0.011025922162635043,0.0004450801055654135,6.177512225576719e-06
0.01024611624126117,0.00045039811516638757,6.401381780759669e-06
0.009496061120235658,0.0004553336595067618,6.6278147244279566e-06
0.008780234719379427,0.0004599027334666656,6.856623822671313e-06
0.008102145029429141,0.0004641233284038677,7.087630338138947e-06
0.007464375990146428,0.00046801495865876164,7.320664909904604e-06
0.006868648233522155,0.00047159821471467876,7.555568203247964e-06
0.006315883470040671,0.00047489434764056945,7.792191343836776e-06
0.005806262276942742,0.0004779248840773153,8.030396151766247e-06
0.005339268112933478,0.00048071126667478435,8.270055189454271e-06
0.004913714081425037,0.00048327451222337397,8.51105163417881e-06
0.004527751895703424,0.00048563487871765607,8.753278981914068e-06
0.004178864662163658,0.00048781153285712284,8.996640584807763e-06
0.003863847427397838,0.0004898222108795132,9.241049020741922e-06
0.0035787823811185347,0.0004916828683316423,9.486425290544711e-06
0.003319018415858331,0.0004934073185308865,9.732697837260343e-06
0.0030791660179546863,0.0004950068646393398,9.9798013830529e-06
0.002853117658682558,0.0004964899355584991,1.022767558310236e-05
0.0026341018703375215,0.0004978617404407541,1.0476263502102173e-05
0.0024147767327287488,0.0004991239600915207,1.0725509927235242e-05
0.002187364910857444,0.0005002744955024172,1.0975359541133727e-05
0.0019438273654956847,0.0005013072935715054,1.1225754988402207e-05
0.0016760679071248208,0.0005022122673896606,1.1476634878642498e-05
0.0013761577733046495,0.000502975323809768,1.1727931776442356e-05
0.001036568893874291,0.0005035785054765627,1.1979570233763939e-05
0.0006504056880758844,0.0005040002491220502,1.2231464922413592e-05
0.00021162677680854042,0.0005042157572382714,1.2483518924003672e-05
-0.00028475130697699403,0.0005041974761057292,1.2735622232339673e-05
-0.0008424766125082234,0.000503915669125858,1.298765051864757e-05
-0.0014639189988296694,0.0005033390702230235,1.323946420348479e-05
-0.0021499701127030216,0.0005024355979451403,1.3490907870526831e-05
-0.0028999925253052382,0.0005011731072856382,1.3741810046834525e-05
-0.0037118216267621727,0.0004995201537476213,1.399198336209284e-05
-0.0045818199746281065,0.0004974467433472737,1.4241225086366564e-05
-0.005504979701392058,0.0004949250434282687,1.448931803306045e-05
-0.006475065643671439,0.0004919300320920028,1.4736031801940517e-05
-0.007484790606816503,0.0004884400680293808,1.4981124326970862e-05
-0.008526014059131368,0.0004844373668628938,1.5224343685693932e-05
-0.009589955833788742,0.0004799083743896638,1.546543012100707e-05
-0.01066741663191702,0.00047484403127323735,1.5704118222422795e-05
-0.011748996619911318,0.00046923992796028027,1.5940139212231176e-05
-0.012825301925506849,0.00046309635332392575,1.6173223282552226e-05
-0.013887127697696774,0.00045641824591812483,1.640310193236274e-05
-0.014925607986966736,0.00044921506199695893,1.662951025934151e-05
-0.015932327940151297,0.00044150057801517945,1.6852189169344544e-05
-0.01689940052073493,0.00043329264589995787,1.7070887475323327e-05
-0.01781951449944418,0.00042461291714491307,1.7285363866084545e-05
-0.018685961150300516,0.0004154865482324769,1.7495388732428894e-05
-0.019492645606206626,0.00040594189654335013,1.770074584362285e-05
-0.0202340877597999,0.0003960102132018485,1.790123387105915e-05
-0.020905417574254778,0.00038572533686833483,1.8096667758576696e-05
-0.02150236955362026,0.0003751233900863661,1.828687994031537e-05
-0.022021280168575873,0.00036424247765581705,1.8471721407250916e-05
-0.022459090749578685,0.0003531223849262784,1.865106262289644e-05
-0.022813357480855428,0.00034180427286866985,1.8824794287345177e-05
-0.023082269800289032,0.0003303303660483837,1.899282794707444e-05
-0.023264678476437924,0.00031874362897920197,1.9155096445831334e-05
-0.02336013439398669,0.0003070874257615958,1.9311554209516534e-05
-0.023368937791310145,0.00029540515771527156,1.946217735538575e-05
-0.023292194780693186,0.0002837398745722707,1.9606963613457635e-05
-0.023131874141989143,0.0002721338573416001,1.9745932046436102e-05
-0.02289085446931811,0.00026062817518877326,1.9879122554568694e-05
-0.022572951412783083,0.00024926222371824796,2.000659515429545e-05
-0.022182917205540727,0.000238073256563667,2.0128429024365927e-05
-0.021726408635834558,0.00022709592510332318,2.0244721319782673e-05
-0.021209923536696196,0.0002163618420601905,2.035558576157355e-05
-0.020640708988295557,0.00020589918392894255,2.0461151018070834e-05
-0.020026646629620354,0.00019573234502446356,2.0561558900309187e-05
-0.019376121313256563,0.00018588165303874433,2.0656962399824987e-05
-0.018697878406349136,0.0001763631531088429,2.0747523601361883e-05
-0.018000873202917225,0.0001671884652065263,2.0833411505940724e-05
-0.01729411487662691,0.00015836471818664026,2.0914799801789017e-05
-0.016586507853505447,0.00014989456250410718,2.0991864621961703e-05
-0.015886694660347467,0.00014177626187564395,2.1064782328056643e-05
-0.015202905200031149,0.0001340038619105493,2.113372735900319e-05
-0.014542817329160247,0.00012656743127825146,2.119887018230039e-05
-0.013913432260797063,0.00011945336888076213,2.126037538234014e-05
-0.013320966262420665,0.00011264476924995769,2.1318399916872823e-05
-0.012770758525227093,0.00010612183805304575,2.1373091568698574e-05
-0.012267194475906788,9.986234980276228e-05,2.1424587615662526e-05
-0.01181364386281517,9.384214021808179e-05,2.1473013738167738e-05
-0.01141241331824362,8.80356259228171e-05,2.1518483179702964e-05
-0.011064713777025932,8.241634414899971e-05,2.156109617222092e-05
-0.010770644128216189,7.695750467268918e-05,2.160093963442634e-05
-0.010529193471331319,7.16325452728023e-05,2.1638087146912715e-05
-0.01033826491794321,6.641568067548366e-05,2.1672599203399787e-05
-0.010194723815118637,6.12824334922182e-05,2.1704523731941714e-05
-0.010094472373969241,5.621013444494623e-05,2.1733896873926004e-05
-0.010032550684766536,5.117837868026229e-05,2.1760744002207307e-05
-0.010003261249504656,4.6169425696694486e-05,2.1785080953301546e-05
-0.010000311708032094,4.11685324573103e-05,2.1806915442840047e-05
-0.0100169697760548,3.6164212086288576e-05,2.1826248628975946e-05
-0.010046225684833723,3.114841322106645e-05,2.1843076785302784e-05
-0.010080959229312209,2.6116616992529965e-05,2.1857393042856184e-05
-0.010114109243539417,2.106784987431706e-05,2.1869189159572897e-05
-0.010138842298684243,1.6004611988761145e-05,2.1878457275038665e-05
-0.010148715242799922,1.0932722603390105e-05,2.1885191608686702e-05
-0.010137824176180046,5.861087748645113e-06,2.1889390061274713e-05
-0.0101009321098445,8.013986771389759e-07,2.189105568288116e-05
-0.01003356973726298,-4.232226784637894e-06,2.1890197975854283e-05
-0.009932107496459579,-9.223646093068535e-06,2.1886834007634855e-05
-0.009793800108066622,-1.4155122994200085e-05,2.1880989315363037e-05
-0.009616805610573558,-1.9007774423860132e-05,2.187269859100852e-05
-0.00940018021588957,-2.3762020880475914e-05,2.1862006142182437e-05
-0.009143849755693094,-2.839802837337158e-05,2.1848966129868976e-05
-0.008848559216570776,-3.2896130616437545e-05,2.1833642590121524e-05
-0.008515803641973366,-3.723722133107358e-05,2.1816109252134645e-05
-0.008147745199952183,-4.140310854155497e-05,2.1796449169666487e-05
-0.0077471215263346565,-4.5376825223126683e-05,2.1774754186225317e-05
-0.007317149910286022,-4.914289308228185e-05,2.1751124256648965e-05
-0.0068614311854168,-5.268753835620756e-05,2.1725666648789343e-05
-0.0063838564060121365,-5.5998860254064796e-05,2.1698495049136773e-05
-0.0058885185723038915,-5.90669539986438e-05,2.1669728595573595e-05
-0.005379631069392103,-6.18839914090678e-05,2.1639490859221668e-05
-0.004861453812224103,-6.444426262947185e-05,2.1607908795712033e-05
-0.004338226802206789,-6.674418278307958e-05,2.1575111684358894e-05
-0.003814109195522932,-6.878226678251201e-05,2.1541230071967495e-05
-0.003293120882053636,-7.055907430190615e-05,2.150639473669639e-05
-0.0027790833079489644,-7.20771253494068e-05,2.1470735686783563e-05
-0.0022755568989247456,-7.334078540112524e-05,2.143438120909593e-05
-0.0017857740310777384,-7.435611813362586e-05,2.1397456983212243e-05
-0.0013125683902705688,-7.513070373896294e-05,2.1360085277744097e-05
-0.000858302566341567,-7.567342147811598e-05,2.132238424643983e-05
-0.00042479588675135025,-7.599419609138921e-05,2.128446734204745e-05
-1.3255394607077477e-05,-7.610370891172881e-05,2.124644286579667e-05
0.0003757846112165344,-7.601307660757645e-05,2.1208413669416844e-05
0.0007425063299866362,-7.573350387227565e-05,2.117047702429688e-05
0.0010878266589376987,-7.527592062504457e-05,2.113272466817255e-05
0.001413383088457336,-7.465061818819581e-05,2.1095243033469238e-05
0.0017214841629275988,-7.386690137534958e-05,2.1058113653578354e-05
0.0020150243599885423,-7.293277424462054e-05,2.102141373467336e-05
0.0022973646875900627,-7.185467698272588e-05,2.0985216871866524e-05
0.002572181699719248,-7.063729038589855e-05,2.0949593880024367e-05
0.0028432907960485843,-6.92834222619566e-05,2.0914613701862403e-05
0.0031144539709533564,-6.779398607020611e-05,2.0880344349779363e-05
0.003389185374826552,-6.616807623376113e-05,2.0846853834203373e-05
0.0036705688509383683,-6.44031376773199e-05,2.0814211030725603e-05
0.0039611000055733234,-6.249522046319198e-05,2.0782486441190475e-05
0.004262561982087318,-6.0439304966276816e-05,2.075175280983311e-05
0.0045759403315508125,-5.822967938786728e-05,2.0722085563744572e-05
0.004901379583596088,-5.586034940908056e-05,2.0693563056545334e-05
0.005238182119077862,-5.332545898341207e-05,2.066626660444721e-05
0.005584847376179415,-5.061970160959775e-05,2.0640280314298956e-05
0.005939145885887203,-4.77387032940811e-05,2.0615690713073036e-05
0.006298219379512013,-4.4679361977731294e-05,2.0592586196755083e-05
0.006658696748805899,-4.144013294565182e-05,2.0571056323024237e-05
0.007016816331544767,-3.802125467556415e-05,2.0551190976118932e-05
0.007368547021549841,-3.44249138372905e-05,2.0533079433990718e-05
0.007709703026521361,-3.0655351325272704e-05,2.0516809367700077e-05
0.008036049276045338,-2.671891324963103e-05,2.050246580155635e-05
0.008343396467344116,-2.2624051813783667e-05,2.04901300602905e-05
0.008627686258650864,-1.838128113228492e-05,2.047987872705398e-05
0.008885067806203661,-1.400309261607129e-05,2.047178263361689e-05
0.009111966703969392,-9.503833988528028e-06,2.046590590196574e-05
0.009305146832737822,-4.899555604351225e-06,2.0462305054567522e-05
0.009461765162358174,-2.0782760557722587e-07,2.046102820876504e-05
0.009579419378408451,4.552468529614431e-06,2.046211436899605e-05
0.009656188053322757,9.361370387547233e-06,2.046559282872534e-05
0.009690662825081086,1.4198083107148193e-05,2.0471482692099013e-05
0.009681972132290106,1.904124184649099e-05,2.0479792523337424e-05
0.009629796817497264,2.3869184083937832e-05,2.049052012982003e-05
0.009534378908639788,2.8660228015472097e-05,2.0503652482844884e-05
0.009396525247819766,3.339295405458698e-05,2.05191657783624e-05
0.009217606879618834,3.804648708644663e-05,2.053702563864766e-05
0.00899955377245549,4.2600777249465214e-05,2.0557187454731635e-05
0.008744843734834334,4.703687662628767e-05,2.0579596868200573e-05
0.008456484823447174,5.133720876585805e-05,2.060419038954861e-05
0.00813799120806057,5.548582777373498e-05,2.063089614868351e-05
0.007793351977235666,5.946866357005904e-05,2.065963477151946e-05
0.007426990404652322,6.327374916553105e-05,2.0690320374703356e-05
0.007043708990855395,6.689142401440797e-05,2.0722861667998342e-05
0.0066486150368824555,7.031450502134243e-05,2.075716315025728e-05
0.006247023526642621,7.35384146622237e-05,2.0793126380178172e-05
0.005844338058859242,7.656125505859917e-05,2.0830651297608376e-05
0.0054459149614794235,7.938381831368385e-05,2.0869637565951446e-05
0.005056918866601455,8.200952677070406e-05,2.090998590222254e-05
0.004682178675914719,8.44443011563331e-05,2.09515993592043e-05
0.004326051083471919,8.669635859617975e-05,2.099438452414243e-05
0.0039922961624480075,8.877594540765974e-05,2.103825260014339e-05
0.0036839676613947036,9.069501136362042e-05,2.1083120339336208e-05
0.0034033204097170637,9.246683338139836e-05,2.1128910800522464e-05
0.0031517384959179693,9.410559810780712e-05,2.1175553908394764e-05
0.002929689571637518,9.562595512469599e-05,2.122298679670289e-05
0.002736711013776226,9.704255527104942e-05,2.127115392430183e-05
0.002571432052911503,9.836959103772135e-05,2.1320006960879023e-05
0.0024316335264819,9.96203574325697e-05,2.1369504447996597e-05
0.002314344882751065,0.00010080685203487795,2.1419611250363458e-05
0.002215976319100244,0.00010193943233534077,2.1470297821456013e-05
0.002132481863032409,0.00010302654688087393,2.1521539316260067e-05
0.0020595465730037965,0.00010407455398988299,2.1573314591477754e-05
0.0019927881673814816,0.0001050876376749793,2.162560513939397e-05
0.0019279613134704195,0.00010606782504519228,2.1678394005074015e-05
0.0018611524882623518,0.00010701510349562547,2.173166473720922e-05
0.0017889544809482395,0.00010792763023792811,2.1785400420642606e-05
0.0017086113095421609,0.00010880202168555071,2.1839582833623475e-05
0.0016181263215063364,0.00010963370609331283,2.189419176556819e-05
0.0015163288265914036,0.00011041731988033726,2.1949204522061605e-05
0.001402897647579033,0.00011114712649887988,2.200459563365641e-05
0.0012783427964623776,0.00011181743660989023,2.2060336774433602e-05
0.001143948366034101,0.00011242300940051435,2.2116396885936204e-05
0.001001680626615868,0.00011295941664867684,2.2172742492448503e-05
0.0008540663020214418,0.00011342335338083616,2.222933818495588e-05
0.0007040480118277233,0.00011381288195929845,2.2286147243790914e-05
0.0005548259097599151,0.00011412760043969536,2.2343132364390664e-05
0.0004096946739062919,0.0001143687305856119,2.240025644714699e-05
0.0002718831397697789,0.00011453912503903092,2.2457483411053153e-05
0.00014440194960842437,0.00011464319631137547,2.2514778991390753e-05
2.990413066400278e-05,0.00011468677283144358,2.2572111483676457e-05
-6.943567550433167e-05,0.0001146768899452335,2.2629452399370627e-05
