frame_number,force
0,824.7197206218551
1,824.7669717087836
2,824.8155040081109
3,824.8649539873956
4,824.9149713829
5,824.965223322
6,825.0153966445355
7,825.0651987094911
8,825.1143571447583
9,825.1626190492871
10,825.2097500906086
11,825.2555338003936
12,825.2997712095596
13,825.3422808201087
14,825.3828988165656
15,825.4214793887226
16,825.4578950441095
17,825.4920368004201
18,825.5238141626479
19,825.5531548393351
20,825.5800042741531
21,825.6043252376126
22,825.6260978314522
23,825.6453202252397
24,825.6620103066906
25,825.6762082542821
26,825.6879798557334
27,825.6974202298638
28,825.7046575295889
29,825.7098562346305
30,825.7132197319564
31,825.7149919601667
32,825.7154579145887
33,825.7149427543003
34,825.7138091510324
35,825.7124524730862
36,825.7112935380119
37,825.7107690525265
38,825.7113203654774
39,825.7133815324346
40,825.7173677389432
41,825.723664891476
42,825.7326208500655
43,825.7445384792146
44,825.7596704572525
45,825.7782156365153
46,825.8003167495385
47,825.8260593758077
48,825.855472155984
49,825.8885281561439
50,825.9251471231959
51,825.9651982785995
52,826.008503298208
53,826.0548391580232
54,826.1039405630423
55,826.155501741336
56,826.2091774898819
57,826.2645835053638
58,826.3212962234741
59,826.3788525823143
60,826.4367502329582
61,826.4944486943713
62,826.5513718385693
63,826.6069119797577
64,826.6604357464568
65,826.7112917982438
66,826.7588203045273
67,826.8023639752288
68,826.8412803492912
69,826.8749550139538
70,826.902815452726
71,826.9243452595463
72,826.9390984109582
73,826.9467131201816
74,826.9469246082654
75,826.9395760555146
76,826.9246270707159
77,826.9021591630418
78,826.8723778479291
79,826.8356111252855
80,826.7923041223722
81,826.743009742503
82,826.688375318932
83,826.6291256097135
84,826.5660429028097
85,826.4999453489129
86,826.4316647697573
87,826.3620251157321
88,826.291822572258
89,826.2218081115118
90,826.1526730672218
91,826.0850380807547
92,826.0194455439308
93,825.9563554637041
94,825.8961444954865
95,825.8391077101475
96,825.7854624530016
97,825.7353534531579
98,825.688858239302
99,825.6459920004936
100,825.6067112884167
101,825.5709162685404
102,825.5384514742138
103,825.5091051996363
104,825.4826078635963
105,825.4586299236917
106,825.4367801570164
107,825.4166052304219
108,825.3975914156943
109,825.379169138107
110,825.3607208399362
111,825.3415923390089
112,825.3211074401823
113,825.2985851411781
114,825.2733585226678
115,825.2447943691228
116,825.212312666181
117,825.1754052497338
118,825.1336529408077
119,825.0867404762715
120,825.0344685179793
121,824.9767620660217
122,824.9136747370386
123,824.8453886048627
124,824.7722096290546
125,824.6945590410063
126,824.6129613047827
127,824.5280293749279
128,824.4404479835138
129,824.3509556648344
130,824.2603262080253
131,824.1693502699857
132,824.0788180061828
133,823.9895036727648
134,823.902153019545
135,823.8174738528519
136,823.736129582284
137,823.658735184033
138,823.5858549553743
139,823.5180015595033
140,823.4556359497611
141,823.3991677640614
142,823.3489557900117
143,823.305308181443
144,823.2684822150562
145,823.2386834497879
146,823.2160641791237
147,823.2007210694297
148,823.1926918975565
149,823.1919514092745
150,823.198406565136
151,823.211891763339
152,823.232164874033
153,823.2589049479103
154,823.2917122559871
155,823.3301109836004
156,823.373554572509
157,823.4214334423551
158,823.4730846375486
159,823.5278028752288
160,823.5848525482406
161,823.6434803916553
162,823.7029286085152
163,823.7624482125979
164,823.821312247053
165,823.8788284624478
166,823.9343510441283
167,823.9872910925843
168,824.0371257331591
169,824.0834058655244
170,824.1257626142283
171,824.1639125365099
172,824.1976616124726
173,824.2269079856337
174,824.251643338046
175,824.2719527005163
176,824.2880124505601
177,824.3000862561396
178,824.308518798362
179,824.3137272747022
180,824.3161909240799
181,824.3164390216048
182,824.315037846133
183,824.3125770168266
184,824.3096554420796
185,824.3068670642755
186,824.3047866699349
187,824.3039562178578
188,824.3048723082215
189,824.3079754447245
190,824.3136415582816
191,824.3221759455964
192,824.333809522892
193,824.3486972247819
194,824.3669184369876
195,824.3884793980982
196,824.4133174443679
197,824.4413068218237
198,824.4722656620239
199,824.505963691674
200,824.5421302919541
201,824.5804625826157
202,824.6206332718104
203,824.6622980812235
204,824.7051026064959
205,824.7486885294605
206,824.7926992069565
207,824.8367847960322
208,824.8806071679714
209,824.9238448859394
210,824.9661984685546
211,825.0073960279764
212,825.0471992117645
213,825.0854092932138
214,825.1218732415505
215,825.156489527641
216,825.1892132095104
217,825.220059612654
218,825.2491058608972
219,825.2764896899836
220,825.302405280642
221,825.3270960987477
222,825.3508448518706
223,825.373960789397
224,825.3967648395692
225,825.4195734385012
226,825.4426821751763
227,825.4663504437573
228,825.4907881594849
229,825.5161453095466
230,825.5425047925124
231,825.569878765338
232,825.5982085485393
233,825.627367923973
234,825.6571693622499
235,825.6873724431715
236,825.7176936095916
237,825.7478164533356
238,825.7774019022402
239,825.8060978728853
240,825.8335481368749
241,825.8594003155084
242,825.8833130457297
243,825.9049624179539
244,825.9240477748589
245,825.9402969137554
246,825.9534706962181
247,825.963367054151
248,825.9698243687396
249,825.9727241771265
250,825.9719931688618
251,825.9676044983593
252,825.959578523538
253,825.947983111053
254,825.9329335848449
255,825.9145922821327
256,825.8931676211155
257,825.8689126212491
258,825.8421228731474
259,825.8131339147077
260,825.782317804841
261,825.7500785007185
262,825.7168455974772
263,825.6830661592757
264,825.6491947040123
265,825.6156817734557
266,825.5829617850834
267,825.5514409167706
268,825.5214856271547
269,825.4934121907497
270,825.4674774703332
271,825.4438711284564
272,825.422709586236
273,825.4040321796866
274,825.3877999957622
275,825.3738977336644
276,825.3621387309186
277,825.3522731227574
278,825.3439989567914
279,825.336975910392
280,825.3308410368885
281,825.3252257253713
282,825.3197728842442
283,825.3141533317264
284,825.3080804739442
285,825.3013224944361
286,825.293711446921
287,825.2851488600472
288,825.2756077183392
289,825.2651309209085
290,825.2538264778406
291,825.2418597798502
292,825.2294433595955
293,825.2168247323598
294,825.2042730756343
295,825.1920655177253
296,825.1804736486603
297,825.1697507053768
298,825.1601198444097
299,825.1517639833962
300,825.144817762377
301,825.139362126785
302,825.1354218033404
303,825.1329655984282
304,825.1319091729991
305,825.1321198635504
306,825.1334231877007
307,825.1356107537284
308,825.1384492750659
309,825.1416902769791
310,825.145079960132
311,825.148368605729
312,825.1513188590149
313,825.1537122442342
314,825.1553534350991
315,825.1560721500454
316,825.155722953248
317,825.1541835850212
318,825.1513526508127
319,825.1471475373789
320,825.1415032696111
321,825.1343727126476
322,825.1257282002111
323,825.1155644408593
324,825.1039024013683
325,825.0907937251584
326,825.0763251150676
327,825.060622062436
328,825.0438513866094
329,825.0262222217387
330,825.0079852574266
331,824.9894301571467
332,824.9708811726042
333,824.95269107836
334,824.9352336496128
335,824.9188949598666
336,824.9040637951533
337,824.8911215107041
338,824.8804316981428
339,824.872330039729
340,824.8671146528425
341,824.8650370739286
342,824.8662938902111
343,824.8710190414598
344,824.8792770228147
345,824.8910575067481
346,824.9062721098911
347,824.924754048452
348,824.9462611939412
349,824.9704825879268
350,824.9970479640131
351,825.0255394714809
352,825.0555047119167
353,825.0864703445066
354,825.1179557535847
355,825.1494864922605
356,825.1806073929846
357,825.2108953742239
358,825.2399720133141
359,825.2675158145565
360,825.2932738094502
361,825.3170718404473
362,825.3388227221478
363,825.35853143572
364,825.3762965362076
365,825.3923070286717
366,825.4068341580697
367,825.4202179454048
368,825.4328488829784
369,825.4451458018876
370,825.4575313199018
371,825.4704063778514
372,825.4841252701641
373,825.4989724333543
374,825.5151421528627
375,825.5327222159856
376,825.5516822855463
377,825.5718674249179
378,825.5929968724652
379,825.6146678999784
380,825.6363644242654
381,825.6574700031839
382,825.6772848900372
383,825.6950468254145
384,825.7099551596446
385,825.7211977560257
386,825.7279799446362
387,825.7295545893534
388,825.7252521699808
389,825.7145097384475
390,825.6968976595435
391,825.6721431347338
392,825.6401496097154
393,825.601011262494
394,825.5550218569031
395,825.5026773977875
396,825.4446722987192
397,825.3818890988945
398,825.3153820062925
399,825.2463546687886
400,825.1761326913706
401,825.1061316408859
402,825.0378215965342
403,824.9726895690333
404,824.912201181817
405,824.8577628764497
406,824.8106856821472
407,824.772151392688
408,824.7431818846356
409,824.7246122868305
410,824.7170687074052
411,824.7209511533428
412,824.7364221010737
413,824.7634009412672
414,824.8015643153065
415,824.8503522288705
416,824.9089797364866
417,824.9764538945082
418,825.0515955795054
419,825.1330656785516
420,825.2193950606465
421,825.3090176238932
422,825.4003056157239
423,825.4916063725321
424,825.581279595314
425,825.6677342339589
426,825.7494639922132
427,825.8250803928613
428,825.8933422641268
429,825.9531804847047
430,826.0037169806566
431,826.0442773781908
432,826.0743972786079
433,826.0938225946151
434,826.1025046109629
435,826.100590454573
436,826.0884096126414
437,826.0664570825463
438,826.0353736764033
439,825.9959239495591
440,825.9489722043885
441,825.8954570610042
442,825.8363651926849
443,825.772704968448
444,825.7054808572018
445,825.6356694550033
446,825.5641979011997
447,825.4919253337479
448,825.4196279468059
449,825.347988092378
450,825.277587650299
451,825.2089056360658
452,825.1423198186428
453,825.0781119610037
454,825.0164760909962
455,824.9575289818698
456,824.901321904395
457,824.8478527838071
458,824.7970780972722
459,824.7489240737384
460,824.7032969336286
461,824.6600919948398
462,824.6192014821553
463,824.5805208666495
464,824.5439535740226
465,824.5094139063801
466,824.4768279745239
467,824.4461323950522
468,824.4172706295403
469,824.3901872177954
470,824.3648206453091
471,824.3410959148871
472,824.3189178871328
473,824.2981661526735
474,824.278691799144
475,824.2603161336432
476,824.2428312773418
477,824.2260025152967
478,824.2095723050518
479,824.1932658589232
480,824.1767981224897
481,824.1598817518343
482,824.1422354848427
483,824.1235922879592
484,824.1037068561769
485,824.0823623025012
486,824.059376046699
487,824.034604968101
488,824.0079498919257
489,823.9793595096506
490,823.9488338861813
491,823.9164277115111
492,823.8822533669186
493,823.8464837107177
494,823.8093542935651
495,823.7711645216533
496,823.7322771337043
497,823.6931153458466
498,823.6541572412245
499,823.6159273630288
500,823.5789858164873
501,823.5439153952776
502,823.5113073407069
503,823.4817463496784
504,823.4557954042704
505,823.433980943831
506,823.416778823604
507,823.4046013659774
508,823.3977856646552
509,823.3965832368802
510,823.401151137887
511,823.4115446894949
512,823.4277119608182
513,823.4494900421312
514,823.476603039302
515,823.5086617230108
516,823.5451649574906
517,823.5855032985465
518,823.6289652779826
519,823.6747467675218
520,823.7219635450112
521,823.7696669468759
522,823.8168623133919
523,823.8625297288153
524,823.9056463149998
525,823.9452091723352
526,823.9802580883261
527,824.0098973225744
528,824.0333159726264
529,824.0498065126966
530,824.0587811043903
531,824.059785288541
532,824.0525087121732
533,824.0367926275709
534,824.0126340301038
535,823.9801864477407
536,823.939757478094
537,823.8918031480729
538,823.8369191228791
539,823.7758288488714
540,823.709368916619
541,823.6384721608541
542,823.5641491351116
543,823.4874685815928
544,823.4095374102227
545,823.3314805574458
546,823.2544209713421
547,823.1794599250638
548,823.1076578993311
549,823.0400163196861
550,822.9774604085186
551,822.9208233273671
552,822.8708317297885
553,822.8280928971433
554,822.7930837758089
555,822.7661423731212
556,822.7474620067918
557,822.7370888283735
558,822.734922905725
559,822.7407229940135
560,822.7541149454023
561,822.7746034832438
562,822.8015868246753
563,822.8343734625239
564,822.8722003850518
565,822.9142521074841
566,822.9596800355059
567,823.0076218048002
568,823.0572202925916
569,823.1076419519576
570,823.1580940170569
571,823.2078400497488
572,823.2562132720825
573,823.3026271521419
574,823.346582855112
575,823.387673486698
576,823.4255853992735
577,823.4600969885561
578,823.4910753577598
579,823.5184711245369
580,823.5423116071039
581,823.5626926436096
582,823.5797693468103
583,823.5937461735635
584,823.604866782833
585,823.6134042347744
586,823.6196521057735
587,823.6239170029806
588,823.6265127213208
589,823.6277559587041
590,823.6279632413715
591,823.6274486219345
592,823.6265217790393
593,823.6254862685801
594,823.6246377718871
595,823.6242622367427
596,823.6246338092327
597,823.6260123934866
598,823.6286405887655
599,823.6327397575678
600,823.6385051602348
601,823.646100400354
602,823.6556517176701
603,823.6672427963632
604,823.6809106581343
605,823.6966429676072
606,823.7143768939624
607,823.7339996637182
608,823.7553510025369
609,823.7782276024186
610,823.8023895031632
611,823.8275679726588
612,823.8534742790773
613,823.8798087223663
614,823.906269366223
615,823.9325600164083
616,823.9583971264284
617,823.9835154904379
618,824.0076727648575
619,824.0306529863241
620,824.0522693289624
621,824.072366422044
622,824.090822614688
623,824.1075525018445
624,824.122509735874
625,824.135689770347
626,824.1471319500524
627,824.1569203586732
628,824.1651829751681
629,824.1720888935946
630,824.17784362462
631,824.1826827978335
632,824.1868648415282
633,824.190663350302
634,824.1943598289218
635,824.198237326605
636,824.2025751796469
637,824.2076447582705
638,824.2137059043481
639,824.2210037151906
640,824.2297654123508
641,824.2401971206798
642,824.2524804075807
643,824.2667684105938
644,824.2831813782918
645,824.3018015362418
646,824.3226673994544
647,824.3457679364619
648,824.3710372346438
649,824.3983504445741
650,824.4275218026092
651,824.4583054747407
652,824.4903998260362
653,824.5234554725183
654,824.5570870956859
655,824.5908885346724
656,824.6244502273473
657,824.6573777325468
658,824.6893098630434
659,824.7199349566089
660,824.7490040677449
661,824.7763402960056
662,824.8018438936493
663,824.8254930877404
664,824.8473407178182
665,824.8675069272302
666,824.886168339027
667,824.9035443901049
668,824.919881716934
669,824.9354376242757
670,824.9504637021214
671,824.9651905676611
672,824.9798144926855
673,824.9944863817348
674,825.009303292257
675,825.0243025031084
676,825.03945801305
677,825.0546792256022
678,825.0698114785738
679,825.0846381025269
680,825.0988838633511
681,825.1122198565092
682,825.1242700534624
683,825.1346197154938
684,825.142825818021
685,825.1484295050517
686,825.150970420193
687,825.1500025239492
688,825.1451107361129
689,825.1359275292949
690,825.1221485334306
691,825.1035463098226
692,825.0799816774028
693,825.0514122510958
694,825.0178980990048
695,824.979604603201
696,824.9368027310168
697,824.8898669853805
698,824.8392712752049
699,824.7855828327779
700,824.7294541461122
701,824.6716127348877
702,824.6128485581288
703,824.5539989498727
704,824.4959312035415
705,824.4395231678201
706,824.3856424086711
707,824.3351246560444
708,824.2887524121696
709,824.2472346783372
710,824.211188676296
711,824.1811242385993
712,824.157431344763
713,824.1403711598954
714,824.1300708717862
715,824.1265225808231
716,824.1295864482057
717,824.1389982172367
718,824.1543810377365
719,824.1752612214636
720,824.2010872078055
721,824.2312507582353
722,824.2651092922944
723,824.3020082815152
724,824.3413026618402
725,824.3823762842411
726,824.4246585107028
727,824.4676372162897
728,824.5108677043447
729,824.5539773495838
730,824.5966660794508
731,824.6387030320491
732,824.6799198826553
733,824.7202014474223
734,824.7594742899602
735,824.7976941620449
736,824.8348331697955
737,824.8708675653471
738,824.9057670199501
739,824.9394861300773
740,824.9719587602394
741,825.0030956392729
742,825.0327853616061
743,825.0608986026358
744,825.0872950343343
745,825.1118322238166
746,825.1343757228517
747,825.1548095495726
748,825.1730462754923
749,825.189035978394
750,825.202773460661
751,825.2143033577712
752,825.2237229669126
753,825.2311827099875
754,825.2368841441244
755,825.2410754908705
756,825.2440448458248
757,825.2461114537855
758,825.247615544646
759,825.2489072180118
760,825.2503348737662
761,825.2522337975897
762,825.2549156329909
763,825.2586594290755
764,825.263704698545
765,825.270246600001
766,825.2784331465784
767,825.2883642685575
768,825.3000925415727
769,825.3136253837949
770,825.3289285369765
771,825.3459306847031
772,825.3645290847343
773,825.3845960414452
774,825.4059859086274
775,825.4285421542022
776,825.4521039114293
777,825.4765114058756
778,825.5016096838817
779,825.5272502298693
780,825.5532904018157
781,825.5795910715497
782,825.606013247479
783,825.6324146202256
784,825.6586468794135
785,825.6845544025028
786,825.7099746352444
787,825.7347402309324
788,825.7586828139923
789,825.7816380890595
790,825.8034519088274
791,825.8239868309076
792,825.8431286809135
793,825.8607927324024
794,825.876929258986
795,825.8915283184074
796,825.9046236574025
797,825.9162956005981
798,825.9266727452436
799,825.9359322509314
800,825.9442984872741
801,825.9520397924355
802,825.9594631470367
803,825.9669067153152
804,825.974730425388
805,825.9833049654761
806,825.9929996544801
807,826.0041695945367
808,826.0171424689098
809,826.032205433465
810,826.0495927016481
811,826.0694744713418
812,826.0919477226946
813,826.1170292319484
814,826.1446510250875
815,826.174658458226
816,826.20681109871
817,826.2407865354917
818,826.2761871568875
819,826.3125498145117
820,826.3493581465096
821,826.3860571532958
822,826.4220694462456
823,826.4568125104199
824,826.4897163662985
825,826.5202411078404
826,826.5478938365503
827,826.572244467015
828,826.5929397742502
829,826.6097149597997
830,826.6224020367955
831,826.6309345321451
832,826.6353483145956
833,826.6357786569747
834,826.6324538695012
835,826.62568602874
836,826.6158595098719
837,826.6034181880171
838,826.5888522431757
839,826.5726854260618
840,826.5554634279484
841,826.5377437169741
842,826.5200868990696
843,826.503049337562
844,826.4871764875622
845,826.4729962924607
846,826.4610120938141
847,826.4516947452545
848,826.4454738910136
849,826.4427286134797
850,826.4437778588814
851,826.4488712170726
852,826.4581807685854
853,826.4717948159625
854,826.4897143176038
855,826.5118526261206
856,826.5380386759199
857,826.5680232120768
858,826.6014872351877
859,826.6380517196006
860,826.6772878277088
861,826.7187271005231
862,826.7618712629886
863,826.8062013239079
864,826.8511857070564
865,826.8962873100041
866,826.9409695790323
867,826.9847017852024
868,827.0269636592373
869,827.0672494687454
870,827.1050715869376
871,827.1399636437854
872,827.1714834600821
873,827.1992160930671
874,827.2227773867994
875,827.2418183554639
876,827.2560305335028
877,827.2651521735705
878,827.2689749709767
879,827.2673509171391
880,827.2601989068896
881,827.2475107409264
882,827.2293561136156
883,827.2058861166038
884,827.1773348266448
885,827.144018692177
886,827.1063335886063
887,827.0647495051177
888,827.0198028966852
889,826.9720868632329
890,826.9222395027672
891,826.8709309296612
892,826.818849465372
893,826.7666874151134
894,826.7151267315329
895,826.6648247978001
896,826.6164005438003
897,826.570421136504
898,826.5273895618783
899,826.4877335123197
900,826.4517960403679
901,826.419828383917
902,826.3919852243911
903,826.3683224499454
904,826.3487972756415
905,826.333270340174
906,826.3215092322888
907,826.3131928945554
908,826.3079165257635
909,826.3051968907114
910,826.3044782682614
911,826.3051395537586
912,826.3065031884364
913,826.3078465364108
914,826.3084160896752
915,826.307444575317
916,826.3041707629922
917,826.297861510119
