frame_number,force
0,824.8234363335034
1,824.8455876052469
2,824.8682845787465
3,824.8915207721737
4,824.9152889757844
5,824.9395812440965
6,824.9643888880676
7,824.9897024671567
8,825.015511781251
9,825.0418058624592
10,825.0685729667553
11,825.0958005653963
12,825.1234753359774
13,825.1515831529334
14,825.1801090772798
15,825.2090373453977
16,825.238351356703
17,825.2680336600819
18,825.2980659390249
19,825.3284289954511
20,825.3591027323199
21,825.3900661352571
22,825.4212972535132
23,825.452773180605
24,825.4844700349604
25,825.5163629408345
26,825.548426009718
27,825.5806323224028
28,825.6129539118715
29,825.6453617472145
30,825.6778257188549
31,825.7103146254237
32,825.7427961626497
33,825.7752369146206
34,825.8076023477172
35,825.8398568075087
36,825.8719635189566
37,825.9038845904605
38,825.9355810225184
39,825.9670127219388
40,825.9981385225333
41,826.0289162130647
42,826.0593025730122
43,826.089253416516
44,826.1187236446898
45,826.1476673063606
46,826.1760376672325
47,826.2037872874663
48,826.2308681076364
49,826.2572315429144
50,826.2828285851745
51,826.307609912599
52,826.3315260062905
53,826.3545272733444
54,826.3765641757881
55,826.3975873647582
56,826.4175478192808
57,826.4363969890394
58,826.4540869405586
59,826.470570506283
60,826.4858014360461
61,826.4997345503779
62,826.5123258950223
63,826.5235328959576
64,826.5333145141542
65,826.5416313992506
66,826.5484460412556
67,826.5537229193413
68,826.5574286467709
69,826.5595321110181
70,826.560004608193
71,826.5588199709492
72,826.5559546890836
73,826.5513880220124
74,826.5451021022743
75,826.5370820292457
76,826.5273159523601
77,826.5157951432807
78,826.5025140566107
79,826.4874703788724
80,826.470665065574
81,826.4521023662908
82,826.4317898378303
83,826.4097383457897
84,826.385962055095
85,826.3604784103388
86,826.3333081068542
87,826.3044750534596
88,826.2740063277593
89,826.2419321248072
90,826.2082856998488
91,826.1731033057509
92,826.1364241256218
93,826.0982902010178
94,826.0587463560321
95,826.0178401174544
96,825.975621631061
97,825.9321435739702
98,825.8874610629148
99,825.8416315582953
100,825.7947147639653
101,825.7467725228283
102,825.6978687084087
103,825.648069112619
104,825.5974413300077
105,825.5460546388623
106,825.4939798796394
107,825.4412893312124
108,825.3880565853825
109,825.3343564199879
110,825.2802646708361
111,825.2258581025284
112,825.1712142780301
113,825.1164114266397
114,825.0615283098981
115,825.0066440849776
116,824.9518381651723
117,824.8971900772057
118,824.842779315147
119,824.7886851907563
120,824.7349866801117
121,824.6817622664546
122,824.6290897793009
123,824.5770462300499
124,824.5257076445403
125,824.4751488932328
126,824.4254435198802
127,824.3766635696463
128,824.3288794176871
129,824.2821595992357
130,824.2365706422619
131,824.1921769038196
132,824.1490404112877
133,824.1072207097656
134,824.0667747168227
135,824.0277565855745
136,823.9902175767554
137,823.954205940248
138,823.9197668064623
139,823.8869420879879
140,823.8557703919307
141,823.8262869433009
142,823.7985235197519
143,823.7725083979489
144,823.7482663118178
145,823.7258184228872
146,823.7051823028618
147,823.6863719284813
148,823.6693976886363
149,823.6542664036781
150,823.640981356888
151,823.6295423381475
152,823.6199456998798
153,823.6121844252656
154,823.6062482085455
155,823.6021235469728
156,823.5997938437433
157,823.5992395210268
158,823.6004381420718
159,823.6033645412697
160,823.6079909610609
161,823.6142871946076
162,823.6222207331834
163,823.6317569171913
164,823.6428590896703
165,823.6554887511166
166,823.6696057144652
167,823.6851682591556
168,823.7021332833331
169,823.720456453342
170,823.7400923497428
171,823.7609946091421
172,823.7831160611684
173,823.8064088599688
174,823.8308246096333
175,823.8563144829801
176,823.8828293331948
177,823.9103197978974
178,823.9387363953281
179,823.9680296125048
180,823.9981499854063
181,824.0290481714072
182,824.0606750142981
183,824.0929816022265
184,824.1259193188823
185,824.1594398882723
186,824.193495413521
187,824.2280384102712
188,824.2630218353793
189,824.2983991116366
190,824.3341241491863
191,824.3701513641536
192,824.4064356948894
193,824.4429326161943
194,824.4795981519156
195,824.5163888863261
196,824.5532619746456
197,824.5901751529789
198,824.6270867478532
199,824.6639556855018
200,824.7007415010402
201,824.737404347681
202,824.7739050061388
203,824.8102048943795
204,824.8462660778688
205,824.8820512804695
206,824.917523896164
207,824.9526480018191
208,824.9873883712328
209,825.0217104906837
210,825.055580576158
211,825.088965592336
212,825.1218332733233
213,825.1541521450446
214,825.1858915491954
215,825.2170216685993
216,825.2475135536862
217,825.2773391496885
218,825.3064713241007
219,825.3348838940315
220,825.3625516532151
221,825.3894503985696
222,825.41555695624
223,825.4408492071074
224,825.4653061118722
225,825.4889077359944
226,825.5116352748884
227,825.5334710798005
228,825.5543986847118
229,825.5744028344503
230,825.5934695140262
231,825.6115859790708
232,825.6287407871612
233,825.6449238296954
234,825.6601263638207
235,825.6743410437717
236,825.6875619509067
237,825.6997846217622
238,825.711006073523
239,825.721224826414
240,825.7304409226151
241,825.7386559413945
242,825.7458730102346
243,825.7520968117692
244,825.7573335863656
245,825.7615911301831
246,825.7648787885477
247,825.767207444499
248,825.7685895023997
249,825.7690388665101
250,825.7685709144777
251,825.7672024657577
252,825.7649517450599
253,825.7618383409725
254,825.7578831599228
255,825.7531083756056
256,825.7475373740298
257,825.7411946943743
258,825.7341059659155
259,825.7262978412937
260,825.7177979263287
261,825.7086347065291
262,825.6988374704335
263,825.6884362300224
264,825.6774616386259
265,825.6659449069449
266,825.6539177179365
267,825.6414121413488
268,825.6284605486045
269,825.6150955286109
270,825.6013498049846
271,825.5872561551479
272,825.57284733179
273,825.5581559872339
274,825.5432146012422
275,825.5280554126974
276,825.512710355465
277,825.4972109986234
278,825.4815884911502
279,825.4658735110283
280,825.4500962186044
281,825.4342862138734
282,825.4184724972562
283,825.4026834333915
284,825.386946717499
285,825.3712893439131
286,825.3557375764622
287,825.3403169204539
288,825.3250520961435
289,825.3099670136677
290,825.2950847494994
291,825.2804275245006
292,825.266016683686
293,825.2518726778876
294,825.2380150475874
295,825.224462409182
296,825.2112324438605
297,825.1983418891855
298,825.1858065334442
299,825.17364121286
300,825.1618598117894
301,825.1504752659948
302,825.1394995689665
303,825.128943781085
304,825.1188180412784
305,825.1091315807779
306,825.0998927386144
307,825.0911089785385
308,825.0827869070408
309,825.0749322920947
310,825.067550082189
311,825.0606444251874
312,825.0542186865351
313,825.0482754663554
314,825.0428166150823
315,825.037843247462
316,825.0333557549887
317,825.0293538170265
318,825.0258364110019
319,825.0228018220887
320,825.020247652753
321,825.0181708323954
322,825.0165676271813
323,825.0154336500649
324,825.0147638709524
325,825.0145526269001
326,825.0147936322044
327,825.0154799882275
328,825.0166041928676
329,825.0181581496781
330,825.0201331767452
331,825.0225200154915
332,825.0253088396357
333,825.0284892645863
334,825.0320503575985
335,825.035980649042
336,825.0402681451288
337,825.0449003424509
338,825.0498642446796
339,825.0551463817606
340,825.0607328318749
341,825.0666092463327
342,825.0727608774577
343,825.0791726094978
344,825.0858289926672
345,825.0927142805253
346,825.0998124709754
347,825.1071073511258
348,825.1145825461067
349,825.1222215716639
350,825.1300078900601
351,825.1379249685966
352,825.145956339998
353,825.1540856639455
354,825.162296789141
355,825.1705738153722
356,825.1789011551225
357,825.1872635943288
358,825.195646351901
359,825.2040351375399
360,825.2124162072442
361,825.2207764157586
362,825.229103265138
363,825.237384948602
364,825.2456103888762
365,825.2537692702746
366,825.2618520638958
367,825.269850045522
368,825.2777553061273
369,825.2855607552391
370,825.2932601176159
371,825.3008479237866
372,825.3083194949755
373,825.3156709228957
374,825.32289904487
375,825.3300014147078
376,825.3369762696668
377,825.3438224936975
378,825.3505395770273
379,825.3571275720535
380,825.3635870454683
381,825.3699190265658
382,825.3761249517474
383,825.3822066052961
384,825.3881660564934
385,825.3940055931417
386,825.3997276515149
387,825.4053347427193
388,825.4108293754205
389,825.4162139749365
390,825.4214907987832
391,825.4266618488642
392,825.4317287806075
393,825.4366928094555
394,825.4415546152102
395,825.4463142448598
396,825.4509710146871
397,825.4555234126576
398,825.4599690022267
399,825.4643043287795
400,825.4685248299716
401,825.4726247513378
402,825.476597068671
403,825.480433418762
404,825.4841240400713
405,825.4876577247717
406,825.4910217834013
407,825.4942020231714
408,825.4971827408114
409,825.4999467306997
410,825.502475308905
411,825.5047483535825
412,825.506744361944
413,825.5084405237552
414,825.5098128110591
415,825.5108360836118
416,825.5114842093268
417,825.5117301988325
418,825.5115463530659
419,825.5109044226549
420,825.5097757776786
421,825.5081315862366
422,825.505943000123
423,825.5031813458028
424,825.4998183188201
425,825.4958261797066
426,825.4911779494083
427,825.4858476022104
428,825.4798102541113
429,825.4730423446241
430,825.4655218101045
431,825.4572282469787
432,825.448143063607
433,825.438249619848
434,825.4275333536021
435,825.4159818937351
436,825.4035851588746
437,825.3903354416727
438,825.3762274782192
439,825.361258502393
440,825.3454282850616
441,825.3287391581821
442,825.3111960240378
443,825.2928063500399
444,825.273580149689
445,825.2535299504066
446,825.2326707489967
447,825.2110199555306
448,825.188597326481
449,825.1654248879522
450,825.1415268497963
451,825.1169295113386
452,825.0916611593742
453,825.0657519590534
454,825.0392338381982
455,825.0121403654919
456,824.984506622934
457,824.9563690729983
458,824.927765421022
459,824.898734473462
460,824.8693159927321
461,824.8395505493544
462,824.8094793721401
463,824.779144197085
464,824.7485871156354
465,824.7178504229527
466,824.6869764667439
467,824.6560074971657
468,824.6249855183343
469,824.5939521421229
470,824.5629484451364
471,824.5320148298795
472,824.5011908910961
473,824.4705152880613
474,824.4400256233681
475,824.4097583285679
476,824.3797485569057
477,824.350030083353
478,824.3206352121109
479,824.2915946917395
480,824.2629376379952
481,824.2346914643189
482,824.2068818198017
483,824.1795325344156
484,824.1526655713889
485,824.1263009867206
486,824.1004568959015
487,824.075149447927
488,824.0503928066797
489,824.02619913977
490,824.002578614934
491,823.9795394040885
492,823.9570876950884
493,823.9352277111363
494,823.913961737688
495,823.8932901565842
496,823.8732114870519
497,823.8537224331909
498,823.8348179376565
499,823.8164912414169
500,823.7987339496173
501,823.7815361036495
502,823.7648862595469
503,823.748771572787
504,823.7331778895204
505,823.7180898441724
506,823.7034909632785
507,823.689363775295
508,823.6756899259973
509,823.662450298997
510,823.6496251408581
511,823.6371941902627
512,823.6251368106168
513,823.613432125389
514,823.6020591553673
515,823.5909969569855
516,823.5802247609237
517,823.5697221103
518,823.5594689978052
519,823.549446001056
520,823.5396344153019
521,823.5300163825029
522,823.5205750157149
523,823.5112945176435
524,823.50216029214
525,823.4931590473716
526,823.4842788894706
527,823.475509405629
528,823.4668417357778
529,823.4582686321215
530,823.4497845058983
531,823.4413854608379
532,823.4330693129217
533,823.4248355961997
534,823.4166855546034
535,823.4086221198821
536,823.4006498759495
537,823.3927750100294
538,823.385005251083
539,823.3773497961301
540,823.3698192252838
541,823.362425406529
542,823.3551813914206
543,823.3481013029437
544,823.3412002167898
545,823.3344940372773
546,823.3279993691286
547,823.3217333863129
548,823.3157136991993
549,823.3099582212886
550,823.304485036765
551,823.2993122700354
552,823.2944579583642
553,823.2899399286791
554,823.2857756796456
555,823.2819822700945
556,823.2785762148429
557,823.2755733888059
558,823.2729889401508
559,823.2708372130617
560,823.2691316804954
561,823.2678848870895
562,823.2671084021658
563,823.2668127825808
564,823.2670075450625
565,823.2677011476295
566,823.2689009796736
567,823.2706133602665
568,823.2728435442054
569,823.2755957352236
570,823.2788731056766
571,823.2826778219279
572,823.2870110746069
573,823.2918731128846
574,823.2972632819701
575,823.3031800631702
576,823.309621116024
577,823.316583322106
578,823.324062830074
579,823.3320551014989
580,823.3405549570226
581,823.3495566224186
582,823.3590537741873
583,823.3690395843934
584,823.3795067645392
585,823.3904476083442
586,823.4018540333554
587,823.4137176213085
588,823.4260296570831
589,823.43878116597
590,823.4519629488733
591,823.4655656150678
592,823.4795796122028
593,823.4939952533423
594,823.5088027409078
595,823.523992187453
596,823.5395536332245
597,823.5554770604581
598,823.5717524043365
599,823.5883695605595
600,823.6053183895804
601,823.6225887177378
602,823.6401703356702
603,823.6580529944707
604,823.6762264000031
605,823.6946802056783
606,823.7134040039026
607,823.7323873164057
608,823.7516195836895
609,823.7710901538069
610,823.7907882705609
611,823.8107030610518
612,823.830823522411
613,823.8511385075475
614,823.8716367097679
615,823.8923066461953
616,823.9131366399787
617,823.9341148013843
618,823.9552290079528
619,823.9764668839873
620,823.9978157796778
621,824.0192627502154
622,824.0407945352958
623,824.0623975393843
624,824.0840578129753
625,824.1057610349033
626,824.1274924956449
627,824.1492370815678
628,824.170979260154
629,824.1927030663371
630,824.2143920902266
631,824.2360294666493
632,824.2575978670642
633,824.2790794944734
634,824.3004560819311
635,824.3217088951543
636,824.3428187395768
637,824.3637659720085
638,824.3845305169315
639,824.4050918874311
640,824.4254292107707
641,824.4455212586372
642,824.4653464820614
643,824.4848830509725
644,824.5041088983095
645,824.5230017686132
646,824.5415392710923
647,824.559698937259
648,824.5774582833084
649,824.5947948774436
650,824.6116864123155
651,824.6281107826774
652,824.6440461682481
653,824.659471121611
654,824.674364660751
655,824.6887063655697
656,824.702476477456
657,824.7156560008019
658,824.7282268052187
659,824.7401717271954
660,824.751474670056
661,824.7621207012752
662,824.7720961464242
663,824.7813886791647
664,824.7899874067875
665,824.7978829508672
666,824.8050675227054
667,824.8115349933696
668,824.8172809582534
669,824.8223027961687
670,824.8265997230121
671,824.8301728400204
672,824.8330251765427
673,824.8351617271235
674,824.836589482581
675,824.8373174546934
676,824.837356694075
677,824.8367203007874
678,824.8354234272177
679,824.8334832727982
680,824.8309190702768
681,824.8277520633918
682,824.8240054759132
683,824.8197044720747
684,824.8148761084309
685,824.8095492771664
686,824.8037546408549
687,824.7975245586044
688,824.7908930034512
689,824.7838954708171
690,824.7765688778849
691,824.7689514538542
692,824.7610826212288
693,824.753002868486
694,824.7447536146746
695,824.7363770666362
696,824.7279160696717
697,824.7194139525566
698,824.7109143678508
699,824.7024611284319
700,824.6940980411431
701,824.6858687384097
702,824.6778165086721
703,824.6699841265671
704,824.6624136838981
705,824.655146422559
706,824.6482225706634
707,824.6416811831856
708,824.6355599884757
709,824.6298952420069
710,824.6247215886202
711,824.620071934379
712,824.615977328974
713,824.6124668594889
714,824.6095675562256
715,824.6073043111913
716,824.6056998097312
717,824.6047744756557
718,824.6045464300347
719,824.6050314635796
720,824.6062430222714
721,824.6081922056726
722,824.6108877772217
723,824.6143361857303
724,824.6185415972463
725,824.6235059364109
726,824.6292289364071
727,824.6357081966262
728,824.6429392472415
729,824.6509156199942
730,824.659628924604
731,824.6690689303039
732,824.6792236520448
733,824.690079440964
734,824.7016210787518
735,824.7138318756024
736,824.726693771462
737,824.7401874402996
738,824.7542923971129
739,824.7689871073444
740,824.7842490983306
741,824.8000550723328
742,824.8163810205957
743,824.833202337738
744,824.8504939356499
745,824.8682303560099
746,824.8863858805358
747,824.9049346381204
748,824.9238507080594
749,824.9431082186461
750,824.9626814405237
751,824.9825448743474
752,825.0026733324631
753,825.0230420143944
754,825.043626575975
755,825.0644031920405
756,825.0853486127271
757,825.1064402135813
758,825.1276560397718
759,825.1489748447302
760,825.1703761235796
761,825.1918401417897
762,825.2133479595917
763,825.2348814526706
764,825.256423329551
765,825.2779571459349
766,825.2994673161519
767,825.3209391218514
768,825.3423587180573
769,825.363713136702
770,825.3849902877583
771,825.406178958102
772,825.4272688082407
773,825.4482503670092
774,825.4691150242552
775,825.4898550214466
776,825.5104634400639
777,825.5309341876138
778,825.5512619811044
779,825.5714423278955
780,825.5914715039961
781,825.6113465301094
782,825.6310651459041
783,825.6506257830758
784,825.6700275376991
785,825.6892701422465
786,825.708353937499
787,825.7272798444444
788,825.7460493361522
789,825.7646644095424
790,825.7831275569105
791,825.8014417370296
792,825.8196103456477
793,825.8376371852438
794,825.8555264339911
795,825.8732826139267
796,825.890910558348
797,825.9084153784477
798,825.9258024291806
799,825.9430772743431
800,825.9602456508375
801,825.9773134320841
802,825.994286590576
803,826.0111711596402
804,826.0279731945783
805,826.044698733462
806,826.061353757889
807,826.0779441539729
808,826.0944756738072
809,826.1109538976765
810,826.1273841973514
811,826.1437717008129
812,826.1601212586813
813,826.1764374125125
814,826.192724365049
815,826.2089859524859
816,826.2252256187866
817,826.2414463920519
818,826.2576508628945
819,826.2738411646964
820,826.2900189555588
821,826.3061854016561
822,826.3223411616276
823,826.338486371604
824,826.3546206304974
825,826.3707429852523
826,826.386851915789
827,826.4029453193749
828,826.4190204941262
829,826.4350741213284
830,826.4511022463045
831,826.467100257689
832,826.4830628651597
833,826.4989840758593
834,826.5148571698901
835,826.5306746753876
836,826.5464283438022
837,826.562109126126
838,826.5777071508498
839,826.593211704424
840,826.608611214892
841,826.6238932392398
842,826.6390444548454
843,826.6540506552461
844,826.6688967502914
845,826.6835667706756
846,826.6980438768792
847,826.7123103726341
848,826.7263477231355
849,826.7401365783023
850,826.7536568014522
851,826.7668875037888
852,826.7798070851194
853,826.7923932812105
854,826.8046232181396
855,826.8164734738251
856,826.8279201466298
857,826.8389389305909
858,826.8495051965562
859,826.8595940783939
860,826.8691805634703
861,826.8782395866689
862,826.8867461272587
863,826.894675307899
864,826.9020024950597
865,826.908703400188
866,826.9147541810236
867,826.9201315425024
868,826.9248128366592
869,826.9287761609022
870,826.9320004540232
871,826.9344655893349
872,826.9361524644052
873,826.9370430869478
874,826.9371206564938
875,826.9363696414747
876,826.9347758512961
877,826.9323265028983
878,826.9290102812548
879,826.9248173932749
880,826.9197396146521
881,826.9137703292705
882,826.906904560816
883,826.8991389962787
884,826.8904720011125
885,826.8809036259546
886,826.8704356049501
887,826.8590713458286
888,826.846815911971
889,826.8336759968183
890,826.8196598911134
891,826.8047774435788
892,826.7890400156724
893,826.7724604310442
894,826.755052920279
895,826.7368330614854
896,826.7178177172917
897,826.6980249688202
898,826.6774740472413
899,826.6561852635488
900,826.634179937198
901,826.6114803241994
902,826.5881095451592
903,826.564091513631
904,826.5394508649972
905,826.5142128859462
906,826.4884034444875
907,826.4620489204124
908,826.4351761361565
909,826.4078122881359
910,826.379984878756
911,826.351721649412
912,826.3230505148542
913,826.2939994992499
914,826.2645966741302
915,826.2348700982539
916,826.2048477592743
917,826.1745575169638
918,826.1440270476174
