frame_number,force
0,824.8079493566836
1,824.8325840756697
2,824.8578418890274
3,824.8837070694583
4,824.9101629932316
5,824.9371921453443
6,824.9647761252293
7,824.9928956530018
8,825.0215305762636
9,825.0506598774928
10,825.0802616820434
11,825.1103132667524
12,825.1407910691348
13,825.1716706971293
14,825.2029269393454
15,825.2345337757713
16,825.2664643889079
17,825.2986911753119
18,825.3311857575472
19,825.3639189965576
20,825.396861004512
21,825.4299811582164
22,825.4632481132192
23,825.4966298187396
24,825.5300935335381
25,825.5636058428285
26,825.5971326763121
27,825.6306393273904
28,825.6640904736084
29,825.6974501983973
30,825.7306820142029
31,825.7637488871057
32,825.7966132630439
33,825.8292370957404
34,825.8615818764198
35,825.8936086653871
36,825.9252781255574
37,825.9565505580903
38,825.9873859403586
39,826.0177439665375
40,826.0475840910909
41,826.0768655753781
42,826.1055475375222
43,826.1335890056141
44,826.1609489742578
45,826.187586464417
46,826.2134605864982
47,826.2385306066009
48,826.2627560158508
49,826.2860966026899
50,826.3085125279459
51,826.3299644024546
52,826.3504133669841
53,826.369821174192
54,826.3881502723235
55,826.4053638903504
56,826.4214261242439
57,826.436302024079
58,826.4499576816864
59,826.4623603185804
60,826.4734783739032
61,826.4832815921025
62,826.4917411100361
63,826.4988295431717
64,826.5045210705297
65,826.5087915179982
66,826.5116184396269
67,826.5129811964885
68,826.512861032701
69,826.5112411482011
70,826.5081067678849
71,826.5034452067588
72,826.4972459307533
73,826.4895006128494
74,826.4802031841602
75,826.4693498796232
76,826.4569392780031
77,826.4429723359592
78,826.4274524159874
79,826.4103853080981
80,826.3917792451288
81,826.3716449116348
82,826.3499954463497
83,826.326846438301
84,826.302215916768
85,826.2761243353506
86,826.2485945504673
87,826.2196517946063
88,826.1893236446404
89,826.157639985492
90,826.1246329694161
91,826.0903369711289
92,826.0547885389836
93,826.0180263423656
94,825.980091115439
95,825.9410255973588
96,825.9008744690134
97,825.8596842863303
98,825.817503410151
99,825.7743819326894
100,825.7303716006264
101,825.68552573494
102,825.6398991476061
103,825.5935480553293
104,825.5465299904868
105,825.4989037095079
106,825.450729098947
107,825.402067079518
108,825.3529795083441
109,825.3035290796469
110,825.2537792240573
111,825.2037940066851
112,825.153638024005
113,825.1033762995538
114,825.0530741783955
115,825.0027972203113
116,824.9526110917005
117,824.9025814562151
118,824.852773864173
119,824.8032536408086
120,824.754085773431
121,824.7053347975844
122,824.6570646823492
123,824.6093387149793
124,824.5622193851527
125,824.5157682691829
126,824.4700459146052
127,824.4251117255816
128,824.3810238495885
129,824.3378390658521
130,824.2956126760087
131,824.2543983974765
132,824.214248260054
133,824.1752125062744
134,824.1373394960259
135,824.1006756158569
136,824.065265193281
137,824.0311504163164
138,823.9983712584703
139,823.9669654093777
140,823.9369682113046
141,823.9084126016949
142,823.8813290619186
143,823.8557455723638
144,823.8316875740014
145,823.8091779365287
146,823.7882369331734
147,823.7688822221972
148,823.7511288351116
149,823.7349891715926
150,823.7204730010948
151,823.7075874711788
152,823.696337122575
153,823.6867239109738
154,823.6787472354662
155,823.6724039734621
156,823.6676885218294
157,823.6645928439191
158,823.6631065220877
159,823.6632168152918
160,823.6649087213216
161,823.6681650432532
162,823.6729664597044
163,823.6792915984611
164,823.6871171130174
165,823.6964177615587
166,823.7071664879227
167,823.7193345040953
168,823.7328913738374
169,823.7478050970763
170,823.7640421947161
171,823.7815677935442
172,823.8003457109171
173,823.8203385389265
174,823.8415077277534
175,823.8638136679284
176,823.8872157712344
177,823.9116725500144
178,823.9371416946875
179,823.9635801493345
180,823.9909441852787
181,824.0191894726552
182,824.0482711499903
183,824.0781438918203
184,824.1087619743715
185,824.1400793393342
186,824.1720496557947
187,824.2046263804368
188,824.2377628161704
189,824.2714121693549
190,824.3055276057692
191,824.3400623054255
192,824.3749695162874
193,824.4102026069398
194,824.4457151182754
195,824.4814608142602
196,824.5173937318361
197,824.553468229984
198,824.5896390379418
199,824.6258613025678
200,824.6620906348332
201,824.6982831554361
202,824.7343955395302
203,824.770385060568
204,824.8062096332592
205,824.8418278556444
206,824.877199050299
207,824.9122833046988
208,824.9470415107866
209,824.9814354037769
210,825.0154276002231
211,825.0489816353415
212,825.0820619995545
213,825.1146341741944
214,825.1466646663089
215,825.178121042487
216,825.2089719615889
217,825.2391872062196
218,825.2687377127729
219,825.297595599904
220,825.3257341953372
221,825.3531280609647
222,825.3797530162054
223,825.4055861596178
224,825.4306058887993
225,825.4547919186768
226,825.4781252983279
227,825.5005884264865
228,825.5221650658655
229,825.5428403563642
230,825.5626008271848
231,825.5814344078285
232,825.5993304379125
233,825.6162796757145
234,825.6322743052889
235,825.647307941957
236,825.6613756359513
237,825.6744738740019
238,825.6866005786842
239,825.6977551053905
240,825.7079382368182
241,825.7171521749035
242,825.7254005301584
243,825.7326883083851
244,825.7390218947503
245,825.7444090351984
246,825.7488588151937
247,825.7523816357816
248,825.7549891869763
249,825.7566944184875
250,825.7575115078146
251,825.7574558257601
252,825.7565438994461
253,825.7547933729355
254,825.7522229655616
255,825.7488524280634
256,825.7447024966293
257,825.7397948449683
258,825.7341520345525
259,825.7277974631744
260,825.7207553119458
261,825.7130504908403
262,825.7047085828809
263,825.6957557871073
264,825.6862188605224
265,825.6761250592881
266,825.6655020794784
267,825.654377997717
268,825.6427812119915
269,825.6307403828949
270,825.6182843755134
271,825.6054422021685
272,825.5922429662298
273,825.5787158072353
274,825.5648898475489
275,825.5507941407508
276,825.5364576219071
277,825.5219090598295
278,825.5071770113913
279,825.4922897779279
280,825.4772753637001
281,825.462161436341
282,825.4469752891714
283,825.4317438052483
284,825.4164934230213
285,825.4012501034878
286,825.386039298759
287,825.3708859219764
288,825.3558143185605
289,825.3408482388074
290,825.3260108118674
291,825.3113245211501
292,825.2968111812103
293,825.2824919161914
294,825.268387139932
295,825.254516537833
296,825.240899050555
297,825.227552859582
298,825.2144953746753
299,825.2017432232512
300,825.189312241723
301,825.1772174688334
302,825.1654731409659
303,825.1540926893507
304,825.1430887390393
305,825.1324731094973
306,825.1222568166799
307,825.112450076463
308,825.1030623093021
309,825.0941021459709
310,825.08557743421
311,825.0774952461039
312,825.0698618859968
313,825.0626828987671
314,825.055963078311
315,825.0497064761546
316,825.0439164101874
317,825.0385954735805
318,825.0337455439915
319,825.0293677931757
320,825.0254626971011
321,825.0220300466195
322,825.0190689586926
323,825.0165778881453
324,825.0145546398967
325,825.0129963815972
326,825.0118996565914
327,825.0112603971227
328,825.0110739377112
329,825.0113350286775
330,825.0120378498178
331,825.0131760242565
332,825.0147426325257
333,825.0167302269359
334,825.0191308463232
335,825.0219360312632
336,825.0251368398463
337,825.0287238641043
338,825.0326872471861
339,825.0370167013702
340,825.0417015269838
341,825.0467306322604
342,825.0520925541349
343,825.0577754799654
344,825.063767270197
345,825.0700554820222
346,825.0766273941146
347,825.0834700325046
348,825.090570197616
349,825.0979144923853
350,825.1054893512894
351,825.1132810700348
352,825.1212758356318
353,825.1294597566008
354,825.1378188930885
355,825.1463392867074
356,825.1550069899386
357,825.1638080949554
358,825.1727287617355
359,825.1817552453051
360,825.1908739219053
361,825.2000713138268
362,825.2093341126329
363,825.2186492004914
364,825.22800366935
365,825.2373848377017
366,825.2467802647391
367,825.2561777617651
368,825.2655654008462
369,825.2749315208058
370,825.2842647307374
371,825.2935539112432
372,825.3027882136013
373,825.311957057047
374,825.321050124349
375,825.3300573558462
376,825.3389689420865
377,825.3477753151508
378,825.3564671387088
379,825.3650352968126
380,825.3734708814255
381,825.3817651786869
382,825.3899096539418
383,825.3978959355778
384,825.4057157977152
385,825.4133611417899
386,825.4208239770554
387,825.4280964000119
388,825.4351705727646
389,825.4420387003254
390,825.4486930068985
391,825.4551257112297
392,825.4613290011341
393,825.4672950073491
394,825.4730157768953
395,825.4784832461671
396,825.4836892140329
397,825.4886253152904
398,825.4932829948723
399,825.4976534832203
400,825.5017277732611
401,825.5054965994508
402,825.508950419401
403,825.5120793986249
404,825.5148733989347
405,825.5173219709734
406,825.5194143512917
407,825.5211394643136
408,825.5224859294705
409,825.5234420737419
410,825.523995949791
411,825.5241353598207
412,825.5238478851958
413,825.5231209217847
414,825.5219417208774
415,825.5202974354722
416,825.5181751716474
417,825.5155620446692
418,825.5124452394266
419,825.5088120747188
420,825.5046500708673
421,825.4999470200694
422,825.4946910588594
423,825.488870742015
424,825.4824751172173
425,825.475493799758
426,825.467917046566
427,825.4597358288144
428,825.4509419023644
429,825.4415278753048
430,825.4314872718957
431,825.4208145923221
432,825.4095053677902
433,825.3975562106103
434,825.3849648589959
435,825.3717302163462
436,825.357852384818
437,825.3433326930267
438,825.3281737177555
439,825.3123792995856
440,825.2959545524085
441,825.2789058668357
442,825.2612409075834
443,825.2429686049836
444,825.2240991408335
445,825.2046439288384
446,825.1846155899219
447,825.1640279226931
448,825.1428958693806
449,825.1212354775429
450,825.099063857857
451,825.0763991382619
452,825.0532604147188
453,825.0296676988379
454,825.0056418625904
455,824.9812045803044
456,824.95637826812
457,824.931186021099
458,824.9056515482191
459,824.8797991055208
460,824.8536534277058
461,824.8272396584929
462,824.8005832800313
463,824.7737100416656
464,824.7466458883357
465,824.7194168888848
466,824.6920491645309
467,824.6645688177321
468,824.6370018616906
469,824.6093741507879
470,824.5817113123181
471,824.5540386799282
472,824.5263812291596
473,824.4987635154174
474,824.4712096146077
475,824.4437430666204
476,824.4163868217929
477,824.3891631904692
478,824.3620937957633
479,824.3351995296244
480,824.3085005122726
481,824.2820160550259
482,824.2557646264924
483,824.2297638220891
484,824.2040303368733
485,824.1785799417124
486,824.1534274628402
487,824.1285867648492
488,824.1040707371637
489,824.0798912840378
490,824.0560593181219
491,824.0325847576399
492,824.0094765271937
493,823.9867425621809
494,823.9643898167659
495,823.9424242753021
496,823.920850967071
497,823.8996739841907
498,823.8788965025748
499,823.8585208058792
500,823.838548312422
501,823.818979605087
502,823.7998144642196
503,823.7810519035125
504,823.7626902088505
505,823.7447269800597
506,823.7271591754727
507,823.7099831591756
508,823.6931947507586
509,823.6767892773622
510,823.66076162779
511,823.6451063084472
512,823.6298175008462
513,823.6148891203778
514,823.6003148760162
515,823.5860883306096
516,823.5722029614269
517,823.5586522206715
518,823.5454295956856
519,823.5325286685364
520,823.5199431746353
521,823.5076670599956
522,823.4956945367122
523,823.4840201362152
524,823.4726387598251
525,823.4615457261222
526,823.4507368146695
527,823.4402083056898
528,823.429957015353
529,823.4199803263856
530,823.4102762137447
531,823.400843265138
532,823.3916806962209
533,823.382788360359
534,823.374166752905
535,823.3658170100123
536,823.3577409020597
537,823.34994082181
538,823.3424197674489
539,823.3351813207078
540,823.3282296203428
541,823.3215693313222
542,823.3152056101267
543,823.3091440665918
544,823.3033907227269
545,823.2979519689472
546,823.2928345181414
547,823.288045358006
548,823.2835917020919
549,823.2794809400154
550,823.2757205872812
551,823.2723182351428
552,823.2692815009074
553,823.2666179790785
554,823.2643351937434
555,823.26244055261
556,823.2609413030814
557,823.2598444907087
558,823.2591569203161
559,823.2588851200269
560,823.2590353083561
561,823.2596133644602
562,823.2606248015586
563,823.2620747434805
564,823.2639679042445
565,823.2663085705695
566,823.2691005872091
567,823.2723473449955
568,823.2760517714618
569,823.2802163238833
570,823.2848429845344
571,823.2899332579318
572,823.2954881698139
573,823.3015082675981
574,823.3079936220746
575,823.3149438301463
576,823.3223580184828
577,823.3302348479818
578,823.3385725189243
579,823.3473687766998
580,823.3566209179766
581,823.3663257971997
582,823.3764798333242
583,823.3870790167082
584,823.398118916126
585,823.4095946858854
586,823.4215010730481
587,823.4338324247542
588,823.4465826956182
589,823.459745455123
590,823.4733138949043
591,823.4872808358147
592,823.5016387346772
593,823.5163796906755
594,823.5314954513506
595,823.5469774181942
596,823.5628166518381
597,823.5790038768328
598,823.5955294860007
599,823.6123835443589
600,823.6295557926335
601,823.6470356504543
602,823.6648122193677
603,823.6828742858332
604,823.7012103243477
605,823.7198085008022
606,823.7386566761429
607,823.7577424104057
608,823.777052967203
609,823.7965753187278
610,823.8162961513
611,823.8362018714165
612,823.8562786122418
613,823.8765122404593
614,823.8968883634258
615,823.9173923365812
616,823.9380092710966
617,823.9587240417676
618,823.9795212952016
619,824.0003854583607
620,824.0213007475437
621,824.0422511779035
622,824.0632205736111
623,824.084192578764
624,824.10515066909
625,824.1260781644311
626,824.1469582419537
627,824.1677739500324
628,824.188508222781
629,824.2091438952402
630,824.2296637192754
631,824.2500503802955
632,824.2702865149399
633,824.2903547299094
634,824.3102376221054
635,824.3299178002061
636,824.3493779077518
637,824.3686006477488
638,824.3875688087568
639,824.40626529241
640,824.4246731423265
641,824.4427755743652
642,824.4605560081849
643,824.4779981000391
644,824.4950857767343
645,824.5118032706729
646,824.5281351559328
647,824.5440663853648
648,824.559582328725
649,824.574668811862
650,824.5893121569742
651,824.6034992239274
652,824.6172174525836
653,824.6304549060415
654,824.6432003146092
655,824.6554431202385
656,824.6671735210648
657,824.6783825156326
658,824.6890619463375
659,824.6992045416152
660,824.7088039564571
661,824.7178548108925
662,824.726352726165
663,824.7342943583762
664,824.7416774294068
665,824.7485007549483
666,824.7547642695218
667,824.760469048404
668,824.7656173264313
669,824.77021251368
670,824.7742592080414
671,824.7777632046975
672,824.7807315024818
673,824.783172307063
674,824.7850950308576
675,824.7865102895523
676,824.7874298951127
677,824.7878668451463
678,824.7878353084827
679,824.787350606857
680,824.7864291926275
681,824.7850886225164
682,824.7833475274005
683,824.7812255782044
684,824.7787434479554
685,824.7759227700594
686,824.7727860928484
687,824.7693568304326
688,824.7656592098682
689,824.761718214635
690,824.7575595244334
691,824.7532094513551
692,824.7486948725418
693,824.7440431595212
694,824.7392821044787
695,824.7344398437745
696,824.729544779062
697,824.7246254963925
698,824.7197106837011
699,824.7148290470735
700,824.7100092261694
701,824.7052797091718
702,824.7006687476272
703,824.6962042715686
704,824.6919138053491
705,824.687824384661
706,824.6839624752366
707,824.6803538937502
708,824.6770237314554
709,824.6739962810899
710,824.671294967543
711,824.6689422827275
712,824.666959725034
713,824.6653677436982
714,824.6641856883701
715,824.6634317641348
716,824.6631229921936
717,824.6632751763635
718,824.6639028754843
719,824.6650193817352
720,824.6666367047662
721,824.6687655614702
722,824.6714153711672
723,824.6745942559438
724,824.6783090458667
725,824.6825652887684
726,824.6873672642952
727,824.6927180019103
728,824.6986193025618
729,824.7050717637643
730,824.7120748078742
731,824.7196267133658
732,824.7277246489284
733,824.7363647102172
734,824.7455419591015
735,824.7552504652673
736,824.7654833500407
737,824.7762328322939
738,824.7874902762964
739,824.7992462413514
740,824.8114905330391
741,824.8242122558596
742,824.8373998670315
743,824.8510412311514
744,824.8651236753716
745,824.8796340447302
746,824.8945587572674
747,824.9098838585732
748,824.9255950754283
749,824.941677868227
750,824.9581174819075
751,824.9748989951717
752,824.9920073678302
753,825.0094274861359
754,825.0271442059892
755,825.045142393923
756,825.0634069658238
757,825.0819229233966
758,825.1006753884196
759,825.1196496348433
760,825.1388311187993
761,825.158205506621
762,825.1777587010057
763,825.1974768654501
764,825.2173464470518
765,825.2373541977211
766,825.2574871938143
767,825.2777328541925
768,825.2980789567088
769,825.3185136531262
770,825.3390254824753
771,825.3596033828654
772,825.3802367017697
773,825.4009152047938
774,825.4216290829129
775,825.4423689581363
776,825.4631258875364
777,825.4838913655697
778,825.5046573246283
779,825.5254161337843
780,825.5461605957479
781,825.5668839421432
782,825.5875798272739
783,825.6082423205762
784,825.6288658979472
785,825.6494454320881
786,825.6699761819538
787,825.6904537813618
788,825.7108742267795
789,825.731233864279
790,825.7515293756404
791,825.7717577635677
792,825.7919163359854
793,825.8120026894015
794,825.8320146913507
795,825.851950461956
796,825.8718083546561
797,825.8915869361373
798,825.9112849655158
799,825.9309013728017
800,825.9504352366805
801,825.9698857616467
802,825.9892522545321
803,826.0085341004979
804,826.0277307386003
805,826.0468416370726
806,826.0658662684763
807,826.084804084869
808,826.1036544931203
809,826.1224168305166
810,826.1410903408233
811,826.1596741509721
812,826.1781672485146
813,826.1965684599447
814,826.2148764299704
815,826.2330896017961
816,826.2512061984728
817,826.2692242053583
818,826.2871413537121
819,826.3049551054223
820,826.3226626388355
821,826.340260835622
822,826.3577462685871
823,826.3751151903164
824,826.3923635225575
825,826.4094868462587
826,826.426480392197
827,826.4433390321245
828,826.4600572703511
829,826.4766292356735
830,826.4930486735676
831,826.509308938608
832,826.5254029871439
833,826.5413233703167
834,826.5570622275567
835,826.5726112807366
836,826.5879618291967
837,826.6031047458933
838,826.6180304749381
839,826.6327290307845
840,826.6471899992808
841,826.661402540764
842,826.67535539531
843,826.6890368901933
844,826.7024349495564
845,826.7155371062626
846,826.7283305159119
847,826.7408019730306
848,826.752937929477
849,826.7647245151363
850,826.7761475609932
851,826.7871926246811
852,826.7978450186123
853,826.8080898407896
854,826.8179120083802
855,826.8272962940678
856,826.836227365104
857,826.8446898248524
858,826.8526682565266
859,826.8601472687906
860,826.8671115428825
861,826.8735458809675
862,826.8794352554228
863,826.8847648587621
864,826.8895201538961
865,826.8936869244483
866,826.8972513248685
867,826.9001999301008
868,826.9025197845533
869,826.9041984501064
870,826.9052240528912
871,826.9055853285831
872,826.9052716659834
873,826.9042731486942
874,826.9025805947186
875,826.900185593819
876,826.897080542451
877,826.8932586760681
878,826.8887140985702
879,826.8834418086856
880,826.8774377231005
881,826.8706986961769
882,826.8632225361168
883,826.855008017443
884,826.8460548897023
885,826.8363638823446
886,826.825936705783
887,826.8147760486794
888,826.802885571535
889,826.7902698967064
890,826.7769345950212
891,826.7628861692073
892,826.7481320343676
893,826.7326804957262
894,826.7165407238632
895,826.6997227276503
896,826.6822373250995
897,826.6640961123468
898,826.6453114310028
899,826.6258963341206
900,826.6058645510337
901,826.585230451301
902,826.564009007961
903,826.5422157602605
904,826.519866775968
905,826.4969786133358
906,826.4735682827318
907,826.4496532079488
908,826.4252511872226
909,826.4003803540251
910,826.375059137748
911,826.3493062244371
912,826.3231405177511
913,826.2965811003079
914,826.2696471955326
915,826.2423581300661
916,826.2147332967425
917,826.1867921180977
