acceleration,velocity,displacement
-0.004179220846562169,0.0,0.0
-0.0038863482573277455,-2.016392275972479e-06,-5.040980689931197e-10
-0.0035860679414941765,-3.884496325677959e-06,-1.9793202194057293e-09
-0.00327856687479714,-5.600655029750788e-06,-4.350608058262916e-09
-0.002964042690301859,-7.161307421025537e-06,-7.541098670956997e-09
-0.002642703617060359,-8.562993997866091e-06,-1.1472174025679904e-08
-0.002314768412246001,-9.802362005192682e-06,-1.6063513026444598e-08
-0.001980466286889647,-1.0876170679976594e-05,-2.123314619773692e-08
-0.001640036824998495,-1.178129645794863e-05,-2.6897512982218225e-08
-0.0012937298956926576,-1.2514738138121419e-05,-3.2971521631235735e-08
-0.0009418055581135001,-1.3073622001572959e-05,-3.936861166615933e-08
-0.0005845339591010321,-1.3455206880876592e-05,-4.6000818886771714e-08
-0.00022219522386066276,-1.3656889176617016e-05,-5.277884290114511e-08
0.00014492065990087422,-1.3676207817606964e-05,-5.96121171497011e-08
0.0005165139637973517,-1.3510849161682408e-05,-6.640888139452345e-08
0.0008922753460493139,-1.3158651834220741e-05,-7.307625664349924e-08
0.0012718859838617364,-1.261761150174298e-05,-7.952032247749017e-08
0.0016550177106700735,-1.1885885578110027e-05,-8.564619674745342e-08
0.0020413331582019795,-1.0961797860892013e-05,-9.135811760720392e-08
0.002430485903570957,-9.843843095448778e-06,-9.655952784628912e-08
0.0028221206219912185,-8.530691464058235e-06,-1.0115316148616588e-07
0.003215873246238283,-7.0211929970008594e-06,-1.0504113260143066e-07
0.0036113711343420288,-5.314381901855782e-06,-1.0812502632614482e-07
0.004008233247053019,-3.4094808065070197e-06,-1.1030599200323553e-07
0.004406070336512055,-1.3059049106157513e-06,-1.1148483843251622e-07
0.004804485147325877,9.967339603437316e-07,-1.1156213117008422e-07
0.005203072630958611,3.498623404914854e-06,-1.1043829182876958e-07
0.0056014201741363834,6.199746606188603e-06,-1.0801369932599372e-07
0.005999107841908457,9.099878610199813e-06,-1.0418879302189661e-07
0.006395708636142037,1.2198582729712438e-05,-9.886417768691855e-08
0.006790788770491478,1.5495207081370816e-05,-9.194073023414773e-08
0.007183907963081264,1.8988881264764002e-05,-8.331970814761403e-08
0.007574619748259781,2.2678513192599265e-05,-7.290285953327321e-08
0.007962471808621347,2.6562786081819545e-05,-6.059253471466851e-08
0.008347006328299395,3.064015561604973e-05,-4.629179929020119e-08
0.008727760368384992,3.4908847290220825e-05,-2.9904548563633554e-08
0.00910426626555872,3.936685394870675e-05,-1.1335623253901658e-08
0.009476052055732171,4.401193352902948e-05,9.5090736155324e-09
0.009842641925445459,4.884160702432389e-05,3.2722458753870745e-08
0.010203556694407798,5.38531566792872e-05,5.839614967977352e-08
0.01055831433249389,5.904362443601262e-05,8.662034495859848e-08
0.0109064305138276,6.4409810647593e-05,1.1748370372949989e-07
0.011247419209654627,6.994827307846356e-05,1.5107322466101401e-07
0.011580793320856925,7.565532621109144e-05,1.8747412448340276e-07
0.011906065350202227,8.152704087885623e-05,2.2676971625588967e-07
0.012222748113844734,8.755924424486798e-05,2.690412875368207e-07
0.012530355491295796,9.374752014615311e-05,3.14367978634576e-07
0.012828403213042815,0.00010008720982223777,3.6282666112667376e-07
0.013116409684824306,0.00010657341304670454,4.144918168439093e-07
0.013393896847066279,0.00011320098967967719,4.6943541752550474e-07
0.013660391067340386,0.00011996456165827885,5.277268053599937e-07
0.013915424063185283,0.00012685851544091026,5.89432574634791e-07
0.01415853385230421,0.00013387700491978265,6.546164547249642e-07
0.014389265726915297,0.00014101395481458753,7.233391946585567e-07
0.014607173248817485,0.00014826306455852073,7.956584495018338e-07
0.014811819261566115,0.00015561781268611663,8.716286688129931e-07
0.015002776916134542,0.0001630714617305418,9.513009874171577e-07
0.015179630706458504,0.00017061706363619006,1.0347231187588405e-06
0.015341977511492392,0.00017824746569067778,1.1219392510905575e-06
0.015489427640566078,0.0001859553169786924,1.2129899467579001e-06
0.015621605878903926,0.00019373307535855988,1.3079120448422132e-06
0.015738152529993284,0.0002015730149607842,1.4067385674220493e-06
0.01583872445114777,0.00020946723420606946,1.5094986297137626e-06
0.015922996078299834,0.00021740766433843135,1.6162173543498879e-06
0.015990660435859706,0.00022538607846697123,1.7269157900512385e-06
0.01604143012720357,0.00023339410110773706,1.8416108349449156e-06
0.01607503830114007,0.00024142321821482297,1.9603151647755557e-06
0.01609123958948417,0.000249464787687479,2.083037166251131e-06
0.01608981101083882,0.00025751005033755977,2.209780875757391e-06
0.01607055283577689,0.0002655501412992137,2.340545923666584e-06
0.016033289408836145,0.0002735761018603669,2.475327484456479e-06
0.015977869923062944,0.00028157889169334166,2.614116232844906e-06
0.015904169143006776,0.0002895494014598591,2.7568983061332063e-06
0.015812088071987855,0.0002974784657636078,2.903655272939073e-06
0.01570155455938434,0.00030535687642145083,3.0543641084853378e-06
0.015572523843849337,0.00031317539602225927,3.2089971765962655e-06
0.015424979028892215,0.00032092477174044465,3.3675222185369417e-06
0.015258931487879112,0.00032859574936963746,3.5299023488144623e-06
0.015074421196229341,0.0003361790875406646,3.6960960580420378e-06
0.014871516989133027,0.00034366557208700515,3.866057222948955e-06
0.0146503167436101,0.0003510460305201909,4.039735123600754e-06
0.014410947484184823,0.00035831134657713965,4.217074467875086e-06
0.014153565412154212,0.00036545247480122443,4.398015423219677e-06
0.013878355859415421,0.00037246045511911684,4.582493655699762e-06
0.013585533169064582,0.00037932642737623686,4.7704403763236005e-06
0.01327534050600551,0.0003860416457950044,4.96178239461641e-06
0.012948049601321582,0.00039259749332183614,5.15644217939562e-06
0.012603960434265525,0.0003989854958307329,5.3543379266837625e-06
0.012243400855562301,0.00040519733615318985,5.555383634679743e-06
0.011866726155449994,0.00041122486790594293,5.759489185694526e-06
0.011474318579598436,0.00041706012908970504,5.966560434943438e-06
0.011066586795662752,0.00042269535543352035,6.176499306074244e-06
0.010643965312831743,0.00042812299346064396,6.389203893297785e-06
0.010206913856403795,0.0004333357132529528,6.604568569976184e-06
0.00975591669903258,0.0004383264208918119,6.822484103512375e-06
0.009291481949912939,0.0004430882705540483,7.04283777637384e-06
0.008814140802759876,0.0004476146762422165,7.265513513072906e-06
0.008324446742900917,0.0004518993231286317,7.490392012915619e-06
0.007822974713579199,0.00045593617849275177,7.717350888320965e-06
0.007310320241648368,0.0004597195022315587,7.946264808502042e-06
0.006787098523270227,0.0004632438569227883,8.177005648290629e-06
0.006253943470815303,0.0004665041174213097,8.409442641876654e-06
0.005711506722549065,0.00046949547996965083,8.643442541224394e-06
0.005160456617006787,0.0004722134708045398,8.878869778917942e-06
0.004601477134252045,0.0004746539542423545,9.115586635179665e-06
0.004035266806635483,0.0004768131402275764,9.353453408797148e-06
0.00346253760211924,0.00047868759132976504,9.592328591686483e-06
0.002884013783383791,0.0004802742291761408,9.832069046812959e-06
0.0023004307457204147,0.0004815703403084168,1.0072530189184098e-05
0.0017125338363489105,0.00048257358145393413,1.0313566169624686e-05
0.0011210771573798672,0.0004832819842023663,1.0555030061038761e-05
0.0005268223539920131,0.0004836939590802093,1.0796774046859404e-05
-6.946261145496104e-05,0.00048380829901584357,1.1038649611383418e-05
-0.0006670046994315759,0.00048362418218812195,1.128050773168441e-05
-0.0012650270479089571,0.0004831411742512868,1.1522199070794262e-05
-0.0018627502421750199,0.0004823592299287658,1.1763574171839274e-05
-0.002459393599973499,0.0004812786939682287,1.2004483652813522e-05
-0.0030541764717117283,0.00047990030145030743,1.2244778401668156e-05
-0.003646319555177618,0.0004782251774435851,1.2484309771391629e-05
-0.0042350462240805745,0.00047625483599877055,1.2722929774752218e-05
-0.004819583869590554,0.00047399117847535276,1.2960491278370749e-05
-0.005399165253729109,0.00047143649119452287,1.3196848195788217e-05
-0.00597302987298242,0.00046859344241284497,1.3431855679190058e-05
-0.006540425329799442,0.0004654650786121495,1.3665370309446307e-05
-0.007100608708716498,0.0004620548201025205,1.3897250284124974e-05
-0.007652847952913034,0.00045836645593711313,1.4127355603134882e-05
-0.008196423236323375,0.000454404138139804,1.4355548251654112e-05
-0.008730628326006311,0.0004501723752492216,1.4581692380001368e-05
-0.009254771929270218,0.0004456760251854025,1.4805654480110025e-05
-0.009768179020009562,0.0004409202874480825,1.5027303558268396e-05
-0.01027019213860857,0.00043591069465842797,1.5246511303795025e-05
-0.010760172659597592,0.0004306531034588764,1.5463152253324353e-05
-0.011237502020966529,0.0004251536847887354,1.5677103950386255e-05
-0.011701582908795072,0.00041941891355629497,1.5888247099972514e-05
-0.012151840391204163,0.00041345555773129514,1.609646571779441e-05
-0.01258772299658725,0.0004072706668843473,1.630164727394832e-05
-0.013008703732400498,0.00040087156020210033,1.650368283071993e-05
-0.01341428104172225,0.0003942658140085696,1.67024671742726e-05
-0.013803979695092153,0.00038746124882436603,1.689789893998083e-05
-0.01417735161510519,0.00038046591599681667,1.7089880731186127e-05
-0.014533976631318331,0.00037328808393521077,1.7278319231169134e-05
-0.014873463163278871,0.0003659362239865615,1.7463125308149577e-05
-0.015195448829837683,0.00035841899598828235,1.7644214113143288e-05
-0.015499600983041676,0.0003507452335350625,1.7821505170524123e-05
-0.01578561716507548,0.0003429239289980332,1.7994922461157398e-05
-0.016053225486985935,0.00033496421833501786,1.8164394497990662e-05
-0.016302184928248656,0.0003268753657312092,1.8329854394007218e-05
-0.01653228555664961,0.00031866674810998466,1.8491239922467516e-05
-0.016743348668389738,0.0003103478395537248,1.8648493569383445e-05
-0.01693522684853838,0.0003019281956744928,1.88015625781905e-05
-0.017107803951843536,0.00029341743797439734,1.8950398986602722e-05
-0.0172609950037247,0.00028482523823550527,1.9094959655655198e-05
-0.0173947460211941,0.0002761613029792756,1.9235206290958892e-05
-0.017509033753790173,0.0002674353580355295,1.9371105456212594e-05
-0.017603865345470718,0.0002586571332607143,1.9502628579036654e-05
-0.017679277919484992,0.00024983634744447534,1.9629751949212953e-05
-0.017735338089287442,0.00024098269344228224,1.975245670943464e-05
-0.017772141399468037,0.00023210582357009336,1.9870728838687734e-05
-0.01778981170133107,0.0002232153352948936,1.998455912840398e-05
-0.017788500468181388,0.0002143207572525155,2.0093943151540833e-05
-0.01776838605545543,0.0002054315356216063,2.0198881224759365e-05
-0.017729672910692443,0.00019655702088006933,2.0299378363884782e-05
-0.01767259073828867,0.00018770645496782404,2.0395444232846757e-05
-0.01759739362418802,0.00017888895887720486,2.0487093086308016e-05
-0.017504359125927734,0.00017011352068967592,2.0574343706199735e-05
-0.01739378733362783,0.00016138898407478704,2.065721933239085e-05
-0.017265999907477927,0.0001527240372645106,2.0735747587725676e-05
-0.017121339096983157,0.00014412720251339532,2.0809960397670154e-05
-0.01696016674676056,0.0001356068260524594,2.0879893904811616e-05
-0.01678286329323795,0.00012717106854245977,2.0945588378460347e-05
-0.016589826756362808,0.00011882789603005959,2.1007088119603476e-05
-0.016381471730200117,0.00011058507140841886,2.1064441361463097e-05
-0.016158228376127997,0.00010245014638183684,2.111770016591066e-05
-0.015920541422222153,9.44304539322493e-05,2.1166920315989182e-05
-0.015668869172287943,8.653310128362177e-05,2.121216120479315e-05
-0.015403682527897308,7.876496335857545e-05,2.1253485720953697e-05
-0.015125464026573013,7.113267671995787e-05,2.129096013097333e-05
-0.014834706898932846,6.364263398858141e-05,2.1324653958650464e-05
-0.014531914147123869,5.630097872706723e-05,2.1354639861829377e-05
-0.0142175976462281,4.911360077872924e-05,2.1380993506705827e-05
-0.013892277269472208,4.208613204980416e-05,2.1403793439912962e-05
-0.013556480037375,3.522394272309236e-05,2.1423120958606187e-05
-0.013210739290543495,2.8532137891112734e-05,2.1439059978759737e-05
-0.012855593885782357,2.201555459703127e-05,2.1451696901881772e-05
-0.012491587415250477,1.567875927177306e-05,2.1461120480348974e-05
-0.012119267448274022,9.526045555891934e-06,2.146742168155589e-05
-0.011739184795057808,3.5614324950589765e-06,2.147069355106863e-05
-0.011351892790970366,-2.2113369014480663e-06,2.1471031074967034e-05
-0.010957946599544337,-7.788796749076743e-06,2.1468531041554404e-05
-0.010557902532156686,-1.3167759032001998e-05,2.1463291902609134e-05
-0.010152317382629002,-1.834531401069842e-05,2.145541363434846e-05
-0.009741747775567937,-2.3318830300247653e-05,2.1444997598270725e-05
-0.009326749527737575,-2.808595462607403e-05,2.1432146402039144e-05
-0.00890787702187172,-3.2644611263476353e-05,2.1416963760566757e-05
-0.008485682592213837,-3.699300116699774e-05,2.1399554357459137e-05
-0.008060715920969642,-4.1129600795293613e-05,2.1380023706968563e-05
-0.007633523445038437,-4.505316063679563e-05,2.1358478016610542e-05
-0.00720464777273127,-4.876270344123806e-05,2.1335024050591032e-05
-0.006774627110505636,-5.225752216204728e-05,2.130976899419021e-05
-0.00634399469989649,-5.5537177614647816e-05,2.1282820319246037e-05
-0.00591327826478143,-5.860149585581729e-05,2.1254285650878422e-05
-0.005482999469098988,-6.14505652892874e-05,2.1224272635592147e-05
-0.005053673385084904,-6.408473350283337e-05,2.1192888810894116e-05
-0.0046258079720372025,-6.65046038421139e-05,2.116024147655788e-05
-0.004199903565607357,-6.871103172652504e-05,2.112643756766572e-05
-0.0037764523775932206,-7.070512071232518e-05,2.1091583529556006e-05
-0.003355938006076944,-7.248821830824273e-05,2.1055785194800866e-05
-0.0029388349555375375,-7.406191154864635e-05,2.1019147662336643e-05
-0.002525608166458278,-7.54280223291453e-05,2.0981775178867193e-05
-0.0021167125539923904,-7.658860250925796e-05,2.094377102265759e-05
-0.001712592555397773,-7.75459287866055e-05,2.0905237389833625e-05
-0.0013136816863083467,-7.830249734703203e-05,2.0866275283300214e-05
-0.000920402106294797,-7.886101829518282e-05,2.082698440438966e-05
-0.0005331641943824032,-7.922440987035212e-05,2.0787463047348274e-05
-0.00015236613527066028,-7.939579245276539e-05,2.0747807996767495e-05
0.00022160648282216832,-7.937848236587752e-05,2.0708114428062836e-05
0.0005883810572663592,-7.917598548085538e-05,2.066847581110115e-05
0.0009475983451957977,-7.879199063023984e-05,2.0628983817073377e-05
0.0012989128206869452,-7.823036283876915e-05,2.0589728228706126e-05
0.0016419930132589918,-7.749513638028267e-05,2.0550796853901363e-05
0.0019765218265909512,-7.659050767032018e-05,2.0512275442888712e-05
0.0023021968369002035,-7.552082800444739e-05,2.047424760897002e-05
0.0026187305706581038,-7.429059615255782e-05,2.043679475293077e-05
0.002925850761523717,-7.290445081951236e-05,2.039999599118775e-05
0.00322330058693765,-7.136716298239701e-05,2.0363928087737272e-05
0.0035108388855599557,-6.96836281142726e-05,2.0328665389963105e-05
0.0037882403572470002,-6.785885830357086e-05,2.0294279768358642e-05
0.004055295747404074,-6.58979742774081e-05,2.02608405602134e-05
0.004311812017241045,-6.380619733624681e-05,2.0228414517309986e-05
0.004557612500804163,-6.15888412067355e-05,2.0197065757674242e-05
0.004792537049020547,-5.9251303819279324e-05,2.016685572141774e-05
0.005016442160425567,-5.679905901691779e-05,2.013784313070869e-05
0.005229201097883822,-5.4237648202340445e-05,2.0110083953903876e-05
0.0054307039901589135,-5.157267193032976e-05,2.0083631373870707e-05
0.005620857916518216,-4.880978145366048e-05,2.005853576052471e-05
0.005799586972010062,-4.595467023152841e-05,2.0034844647603414e-05
0.005966832310777782,-4.301306541083145e-05,2.0012602713692825e-05
0.006122552164920987,-3.999071929190676e-05,1.999185176751714e-05
0.006266721836753724,-3.689340079148808e-05,1.997263073749629e-05
0.006399333662795716,-3.372688691660072e-05,1.995497566556927e-05
0.006520396948251894,-3.0496954263838814e-05,1.993891970527416e-05
0.006629937871108432,-2.720937055899873e-05,1.992449312406845e-05
0.006727999355368191,-2.3869886252379577e-05,1.9911723309865605e-05
0.006814640913105248,-2.0484226185261217e-05,1.9900634781756194e-05
0.006889938455107388,-1.705808134320806e-05,1.9891249204874076e-05
0.006953984069922736,-1.3597100711950529e-05,1.9883585409360286e-05
0.007006885771118622,-1.0106883251690189e-05,1.9877659413369377e-05
0.0070487672126945435,-6.592970005736897e-06,1.987348445005502e-05
0.007079767372693843,-3.060836359389801e-06,1.9871070998463737e-05
0.0071000402051843835,4.841155350797556e-07,1.987042681825766e-05
0.0071097542609420816,4.036564151611372e-06,1.987155698817933e-05
0.007109092277459,7.591275786211643e-06,1.9874463948163785e-05
0.007098250739264027,1.1143111540392399e-05,1.9879147544995434e-05
0.007077439409757683,1.4687034077647827e-05,1.9885605081399946e-05
0.007046880835804506,1.8218114139038374e-05,1.989383136845412e-05
0.007006809826250785,2.1731536804552197e-05,1.9903818781190017e-05
0.006957472905567845,2.5222607487506855e-05,1.9915557317263033e-05
0.006899127744050845,2.8686757649911528e-05,1.9929034658547386e-05
0.006832042566265271,3.211955022749056e-05,1.9944236235516738e-05
0.006756495539469793,3.551668475392432e-05,1.9961145294262093e-05
0.006672774143496821,3.887400217466597e-05,1.997974296599424e-05
0.006581174523324733,4.218748934137136e-05,2.000000833887325e-05
0.006482000825537949,4.545328317858703e-05,2.002191853200324e-05
0.006375564520300776,4.8667674515046715e-05,2.004544877142665e-05
0.006262183711199486,5.182711157292178e-05,2.007057246794864e-05
0.006142182436116674,5.492820310975082e-05,2.0097261296619308e-05
0.006015889962884464,5.7967721209501106e-05,2.012548527769912e-05
0.005883640083536127,6.0942603721106256e-05,2.015521285893177e-05
0.00574577041067157,6.384995634465819e-05,2.0186410998948213e-05
0.005602621678904766,6.668705436705228e-05,2.021904525162614e-05
0.005454537053996245,6.945134405027754e-05,2.0253079851230473e-05
0.005301861452129198,7.21404436768089e-05,2.0288477798162244e-05
0.00514494087193096,7.475214425782394e-05,2.03252009451459e-05
0.004984121742026831,7.728440991131339e-05,2.0363210083688186e-05
0.004819750286867245,7.973537791853691e-05,2.040246503064565e-05
0.004652171913152993,8.210335846854197e-05,2.044292471474242e-05
0.0044817306186290765,8.438683410148749e-05,2.0484547262884927e-05
0.004308768424498739,8.658445886226945e-05,2.0527290086125868e-05
0.004133624832306486,8.869505717647076e-05,2.0571109965135552e-05
0.003956636305606344,9.071762246094896e-05,2.0615963135044908e-05
0.0037781357761464155,9.265131548138715e-05,2.0661805369530493e-05
0.003598452173647925,9.449546246883574e-05,2.0708592064018047e-05
0.003417909977779902,9.624955300669269e-05,2.0756278317886928e-05
0.00323682879074408,9.791323769882369e-05,2.080481901556331e-05
0.0030555229289805793,9.948632562875485e-05,2.08541689063952e-05
0.002874301032687392,0.00010096878161917185,2.0904282683207183e-05
0.0026934656921007976,0.0001023607233003689,2.0955115059437067e-05
0.0025133130898663198,0.00010366241799586069,2.1006620844761125e-05
0.0023341326592258536,0.00010487427943313374,2.1058755019118373e-05
0.0021562067582115425,0.00010599686428749309,2.111147280504853e-05
0.0019798103602978218,0.00010703086856712043,2.116472973826218e-05
0.0018052107620022623,0.00010797712384769546,2.1218481736365885e-05
0.0016326673080880203,0.00010883659336521803,2.1272685165669114e-05
0.0014624311352923742,0.00010961036797606313,2.1327296906004435e-05
0.0012947449358126375,0.00011029966199383938,2.138227441349691e-05
0.0011298427417320784,0.00011090580891322556,2.1437575781223676e-05
0.0009679497312008493,0.00011143025703145879,2.1493159797709847e-05
0.0008092820568111872,0.0001118745649784618,2.1548986003212327e-05
0.0006540466964453106,0.00011224039716677592,2.1605014743748635e-05
