acceleration,velocity,displacement
0.23640401062671132,0.0,0.0
0.2391567167272277,0.00011889018183848475,2.9722545459621188e-08
0.24187805623483646,0.0002391488750790008,1.192323096889926e-07
0.24457007433076047,0.00036076090772040005,2.692097553888428e-07
0.24723486032183584,0.00048371214138354915,4.803280176648301e-07
0.24987453282893954,0.000607989489671243,7.532534254285281e-07
0.2524912348894022,0.0007335809316008284,1.088646030746546e-06
0.25508713572643915,0.0008604755242547888,1.4871601447104503e-06
0.25766443449439447,0.0009886634168099972,1.949444879976647e-06
0.26022536149693987,0.0011181358658078307,2.4761447006311038e-06
0.26277217370240197,0.0012488852496076663,3.067899979484978e-06
0.2653071426526885,0.0013809050786964389,3.725347561561004e-06
0.2678325332603429,0.0015141899976746967,4.449121330653788e-06
0.2703505717972996,0.0016487357739391074,5.239852773557239e-06
0.2728634017195557,0.0017845392673183213,6.098171533871596e-06
0.2753730277317633,0.001921598374681151,7.024705944371464e-06
0.2778812513953994,0.0020599119444629417,8.020083524157488e-06
0.28038960423270537,0.0021994796583699678,9.084931424865716e-06
0.28289928527610847,0.0023403018807471713,1.0219876809645e-05
0.285411109069883,0.0024823794793336694,1.142554714966521e-05
0.2879254680787579,0.0026257136236208295,1.2702570425403835e-05
0.29044231136706183,0.0027703055684822845,1.4051575223429613e-05
0.2929611399099984,0.0029161564313015496,1.5473190723375572e-05
0.2954810181604572,0.0030632669708191636,1.696804657390575e-05
0.29800060139038637,0.0032116373757068743,1.853677266053726e-05
0.3005181783335103,0.0033612670706378482,2.017999877212344e-05
0.30303172808032586,0.0035121545472413074,2.189835417659323e-05
0.30553898881946445,0.003664297226466255,2.3692467120020124e-05
0.3080375343088007,0.0038176913572483214,2.556296426594877e-05
0.310524852414132,0.003972331953929055,2.7510470093743113e-05
0.3129984190040628,0.004128212771783603,2.9535606275171276e-05
0.31545576010548426,0.00428532631656099,3.163899104725743e-05
0.3178944956689371,0.004443663880504595,3.3821238596523825e-05
0.32031236000278107,0.004603215594422525,3.6082958465255606e-05
0.3227071972737344,0.004763970483741654,3.842475498479665e-05
0.3250769348688599,0.004925916516777302,4.084722673492639e-05
0.3274195414408237,0.0050890406358547234,4.33509660230844e-05
0.3297329789145606,0.00525332876594357,4.593655837353397e-05
0.3320151582640409,0.00541876580023822,4.860458201507942e-05
0.33426390768572045,0.005585335566725661,5.135560735682039e-05
0.33647695935897026,0.005753020783486833,5.419019644437351e-05
0.3386519579082215,0.005921803012803631,5.710890239344613e-05
0.34078649054594395,0.006091662624917173,6.011226880287633e-05
0.34287813608032786,0.006262578781573741,6.320082915449905e-05
0.3449245279018336,0.006434529447569282,6.637510621178481e-05
0.3469234251826709,0.006607491435840408,6.963561143263723e-05
0.34887278702520175,0.006781440488892376,7.298284441382043e-05
0.35077084558472865,0.006956351397044858,7.641729238530474e-05
0.3526161750616556,0.007132198152206454,7.993942977261757e-05
0.3544077532354459,0.007308954134280729,8.354971784423937e-05
0.3561450114171698,0.007486592325443883,8.724860445917052e-05
0.35782786818781165,0.007665085545345129,9.103652392686777e-05
0.35945674243385556,0.007844406698000546,9.491389698770418e-05
0.36103254219691394,0.008024529019158238,9.888113091699388e-05
0.36255662796727445,0.008205426311699284,0.00010293861974970827
0.3640307518755052,0.00838707315665998,0.00010708674461679808
0.3654569766559356,0.00856944508879284,0.00011132587417816129
0.36683757970171416,0.008752518727882252,0.00011565636513233007
0.36817494860009276,0.008936271859957703,0.00012007856277929006
0.3694714757032687,0.009120683466033544,0.00012459280161078787
0.37072945983212485,0.009305733699917393,0.0001291994059022756
0.3719510222654224,0.00949140382044178,0.00013389869028236542
0.37313804222785024,0.009677676086565097,0.00013869096025911714
0.37429211543952395,0.00986453362598194,0.0001435765126872539
0.37541453820417525,0.010051960289392864,0.0001485556361660976
0.37650631792616956,0.01023994050342545,0.00015362861136430217
0.37756820796124474,0.010428459134897304,0.00015879571127388285
0.3786007610098379,0.010617501377140076,0.00016405720140189218
0.379604392739862,0.0108070526655775,0.00016941333991257157
0.38057944716687575,0.010997098625554185,0.0001748643777353545
0.38152625694422554,0.01118762505158196,0.00018041055865463854
0.38244519378096753,0.01137861791426326,0.00018605211939609986
0.38333670590068875,0.011570063389183673,0.00019178928972196158
0.38420134052671673,0.011761947900790526,0.00019762229254445513
0.3850397497833987,0.011954258173368055,0.00020355134406299479
0.38585267845842947,0.012146981280428511,0.00020957665392644392
0.3866409324540825,0.01234010468315664,0.0002156984254173402
0.38740532796434807,0.012533616248261248,0.00022191685565019467
0.38814662342083467,0.012727504236107544,0.00022823213577128688
0.38886543859401157,0.012921757251611255,0.0002346444511432166
0.389562167235617,0.013116364153068662,0.00024115398149438658
0.39023689065115796,0.013311313917540356,0.0002477609010120388
0.39088929934679967,0.013506595465039845,0.0002544653783576839
0.3915186287582779,0.013702197447066114,0.00026126757658571036
0.3921236136259733,0.013898108007662177,0.00026816765294939245
0.39270246414599674,0.01409431452710517,0.0002751657585830843
0.3932528658684935,0.014290803359608794,0.00028226203805476277
0.3937720047985981,0.014487559577275566,0.0002894566287889839
0.39425661898558134,0.014684566733221611,0.0002967496603666082
0.3947030769635933,0.014881806657208905,0.00030414125371421583
0.39510748126221995,0.015079259296765358,0.0003116315202027094
0.39546579276096155,0.015276902615271154,0.00031922056068071854
0.39577396998558023,0.015474712555957788,0.00032690846447352577
0.39602811667436727,0.015672663077622776,0.0003346953083819209
0.396224630830485,0.01587072626449899,0.0003425811557174513
0.39636034882671256,0.01606887250941329,0.0003505660554109294
0.3964326783596634,0.016267070766209885,0.00035865004122983516
0.39643971349144314,0.016465288864172662,0.0003668331311374308
0.3963803240802067,0.016663493873565575,0.00037511532682186534
0.3962542121440683,0.016861652507621644,0.00038349661341716216
0.39606193036343706,0.01705973154324852,0.0003919769594298797
0.39580486267027987,0.017257698241506948,0.00040055631687606856
0.39548517192038624,0.017455520750154614,0.00040923462162398397
0.39510572304638586,0.017653168473896308,0.0004180117939299967
0.394669991023588,0.017850612402413802,0.00042688773914907423
0.39418196181137194,0.01804782539062254,0.0004358623485973333
0.39364603180488883,0.018244782389026607,0.0004449355005422456
0.3930669079117194,0.01844146062395576,0.0004541070612954912
0.3924495074067624,0.01863783972778538,0.00046337688638342645
0.3917988558385161,0.0188339018185967,0.00047274482177002197
0.3911199829269189,0.01902963152828806,0.0004822107051067432
0.3904178189516981,0.019225015978757715,0.0004917743669835046
0.38969709519326584,0.019420044707293957,0.0005014356321550175
0.3889622508456817,0.019614709543803694,0.0005111943207177919
0.3882173468856808,0.019809004443236536,0.000521050249214552
0.3874659862722846,0.020002925276526026,0.0005310032316444926
0.38671123975863597,0.020196469583033755,0.0005410530803593826
0.38595557683833903,0.020389636287183,0.0005511996068269367
0.38520080198108037,0.020582425381887853,0.0005614426222442044
0.38444799829918996,0.02077483758195792,0.0005717819379851658
0.38369748413535193,0.020966873952566557,0.000582217365868797
0.3829487906298896,0.02115853552125787,0.000592748718237253
0.3822006677241689,0.021349822885846383,0.000603375807839029
0.3814511224215552,0.021540735833382816,0.0006140984475188363
0.3806974888102945,0.021731272986190778,0.0006249164497237297
0.37993652621491636,0.02192143148994708,0.0006358296258427642
0.37916454001711575,0.02211120675650509,0.0006468377854043772
0.3783775186041031,0.022300592271160394,0.0006579407351612936
0.37757127942218294,0.022489579470666966,0.0006691382780967504
0.3767416176080979,0.022678157694924535,0.0006804302123881483
0.3758844522812436,0.02286631421239687,0.0006918163303649787
0.3749959674924612,0.023054034317340297,0.000703296417497413
0.3740727457695198,0.023241301495655793,0.000714870251450662
0.3731118916977856,0.023428097655022618,0.0007265376012383316
0.3721111415911484,0.02361440341334485,0.0007382982265054234
0.3710689539618677,0.023800198437233105,0.0007501518769680679
0.3699845750697493,0.02398546181949101,0.000762098292032249
0.3688580751499933,0.024170172482045945,0.0007741372006076332
0.3676903544032826,0.024354309589434263,0.0007862683211255033
0.36648312257115684,0.024537852958677872,0.0007984913617625313
0.36523885944263174,0.02472078345418132,0.000810806020865746
0.3639607636703885,0.024903083359959576,0.0008232119875692813
0.3626526939739556,0.02508473672437066,0.0008357089425903638
0.36131910265902856,0.025265729673528907,0.0008482965591898388
0.3599649589696016,0.025446050688936066,0.000860974504280455
0.3585956599598216,0.025625690843668423,0.0008737424396636061
0.3572169282373155,0.025804643990717708,0.0008866000233722027
0.35583469722570604,0.025982906897083463,0.000899546911094153
0.3544549845817174,0.026160479317535318,0.0009125827576478077
0.3530837539075712,0.02633736400215764,0.0009257072184777309
0.35172676567818567,0.02651356663205408,0.0009389199511362839
0.3503894212826908,0.0266890956787943,0.000952220616713996
0.3490766081141168,0.026863962186143505,0.0009656088811802304
0.3477925560316277,0.02703817947717994,0.0009790844165960613
0.34654071445100326,0.027211762794800597,0.0009926469021640564
0.3453236558761808,0.027384728887382394,0.0010062960250846022
0.3441430086067259,0.027557095553503122,0.0010200314811948236
0.34299941989457844,0.02772888116062845,0.0010338529753733566
0.3418925501441772,0.027900104153138136,0.0010477602217017982
0.3408210980929198,0.02807078256519741,0.0010617529433813821
0.3397828563043013,0.028240933553796713,0.0010758308724111306
0.3387747952603345,0.02841057296668787,0.0010899937490412518
0.3377931720675942,0.028579714958519853,0.0011042413210225538
0.33683365699827306,0.02874837166578632,0.0011185733426786304
0.33589146972553274,0.028916552947467273,0.0011329895738319438
0.33496151814544944,0.029084266194435018,0.0011474897786174195
0.3340385351507533,0.02925151620775907,0.001162073724217968
0.333117210823863,0.029418305144252723,0.0011767411795559708
0.3321923180622794,0.02958463252647426,0.0011914919139736527
0.33125882889468783,0.029750495313213502,0.0012063256959335745
0.33031201782063374,0.029915888024892333,0.001221242291768101
0.3293475481885914,0.030080802916394637,0.0012362414645034228
0.3283615382731306,0.030245230188010067,0.001251322972779524
0.3273506055862133,0.030409158223974903,0.0012664865698825203
0.32631189060524984,0.03057257384802277,0.0012817320029005197
0.3252430633874715,0.030735462586520948,0.0012970590120091558
0.32414231785540926,0.03089780893183167,0.0013124673298887438
0.3230083588209789,0.03105959660100077,0.001327956681271952
0.3218403856007259,0.031220808787106195,0.0013435267826189788
0.32063807299052444,0.03138142840175401,0.0013591773419161938
0.31940154649622354,0.031541438306625695,0.0013749080585932886
0.318131346271607,0.03170082152981765,0.0013907186235523994
0.31682837465226704,0.03185956146004862,0.001406608719299866
0.31549382518310587,0.03201764201000746,0.00142257802016738
0.31412909528999167,0.03217504774012574,0.0014386261926049133
0.312735688716928,0.03233176393612747,0.0014547528955239765
0.3113151159518498,0.032487776637294664,0.001470957780667332
0.3098688002124409,0.032643072616335735,0.0014872404929807395
0.3083979940527406,0.03279763931490203,0.001503600670963549
0.3069037093014046,0.032951464740740566,0.0015200379469774597
0.3053866620867781,0.03310453733358761,0.0015365519474960416
0.30384723486285364,0.03325684580782502,0.0015531422932813948
0.30228545767056086,0.03340837898095837,0.0015698085994785907
0.30070101058375703,0.033559125598021954,0.0015865504756233358
0.2990932479884837,0.03370907416266501,0.0016033675255635075
0.29746124302240484,0.033858212785417736,0.0016202593473005282
0.2958038477663421,0.03400652905811492,0.0016372255327614113
0.29411976267513945,0.0341540099607253,0.0016542656675161214
0.2924076080185769,0.03430064180339873,0.0016713793304571525
0.2906659907223154,0.03444641020308395,0.0016885660934587731
0.28889356136689415,0.03459130009110625,0.0017058255210323206
0.2870890578730329,0.03473529574591624,0.0017231571699915763
0.2852513347605063,0.03487838084407462,0.001740560589139074
0.2833793797595045,0.035020538522704626,0.001758035318980769
0.28147232186705284,0.03516175144811127,0.0017755808914734729
0.2795294352009708,0.035302001887378275,0.0017931968298073452
0.27755014100942405,0.035441271781430875,0.0018108826482245474
0.2755340075553177,0.03557954281857206,0.001828637851874548
0.27348074639851866,0.03571679650706052,0.0018464619367059563
0.2713902044309738,0.035853014244767896,0.0018643543893939133
0.2692623524295873,0.035988177383983036,0.001882314687301101
0.26709727108282455,0.03612226728986114,0.001900342298469562
0.26489513413718685,0.03625526539116614,0.0019184366816398187
0.2626561865733035,0.03638715322134377,0.0019365972862929461
0.26038071474839075,0.03651791244667419,0.001954823552709951
0.25806900607987526,0.036647524876881256,0.0019731149120408398
0.255721298394558,0.036775972452999864,0.00199147078637331
0.2533377225244946,0.036903237208229626,0.0020098905887886175
0.25091824409111996,0.03702930119988353,0.002028373723390646
0.2484626106359261,0.037154146413565285,0.002046919585294008
0.245970309024414,0.03727775464348037,0.0020655275605582697
0.24344053622193837,0.037400107354791955,0.0020841970260578376
0.2408721840392101,0.03752118553485724,0.0021029273492802498
0.23826383540134405,0.03764096953971738,0.0021217178880488935
0.23561376751670982,0.03775943894044689,0.0021405679901689346
0.23291995752814856,0.037876572371708106,0.0021594769929969733
0.23018008859713543,0.03799234738323943,0.00217844422293571
0.22739155720716006,0.0381067402946905,0.0021974689948551927
0.2245514845677138,0.03821972605513422,0.002216550611442649
0.22165673642450287,0.038331278110382276,0.002235688362484028
0.21870395651527832,0.038441368283617224,0.002254881524082528
0.21568961880458754,0.03854996667744719,0.002274129357822794
0.21261010205883402,0.03865704160766304,0.0022934311098940716
0.20946178778849633,0.038762559580124874,0.0023127860101910184
0.20624117998137143,0.03886648532206734,0.0023321932714165665
0.20294504297633678,0.038968781877806766,0.002351652088216535
0.19957055242351898,0.03906941077665673,0.002371161636380151
0.1961154531088789,0.03916833227803983,0.002390721072143825
0.19257821583248583,0.03926550569527517,0.0024103295316371537
0.18895818368457917,0.03936088979515444,0.0024299861305097613
0.18525569717169063,0.039454443265368504,0.002449689963774892
0.18147218872349183,0.0395461252368423,0.002469440105900445
0.1776102400349651,0.03963589584403191,0.0024892356111706634
0.1736735995746914,0.03972371680393433,0.002509075514332655
0.16966716132992976,0.03980955199416048,0.0025289588315321786
0.16559690837384264,0.039893368011586425,0.002548884561533615
0.16146982545429217,0.039975134695043456,0.0025688516872102727
0.15729378376014766,0.04005482559734706,0.0025888591772833705
0.15307739938206547,0.04013241839313261,0.0026089059882809904
0.14882986598983458,0.04020789520947559,0.0026289910666816426
0.14456076273866295,0.04028124286665771,0.002649113351200676
0.14027984049426873,0.04035245301746595,0.0026692717751717067
0.13599679233931125,0.040421522175674345,0.002689465268969992
0.13172101675406558,0.04048845162794769,0.0027096927624208973
0.12746138312305058,0.04055324722791697,0.0027299531871348634
0.12322600937491177,0.04061591907604146,0.002750245478710853
0.11902206096168444,0.04067648109362561,0.00277056857875327
0.11485557938104181,0.04073495050371129,0.0027909214366526043
0.1107313471478052,0.0407913472353435,0.002811303011087368
0.10665279391885718,0.04084569327061017,0.002831712271213856
0.10262194481542852,0.04089801195529374,0.0028521481975203322
0.0986394078527593,0.04094832729346078,0.0028726097823325207
0.0947043947860693,0.04099666324412049,0.002893096029966916
0.09081476958263622,0.04104304303521267,0.002913605956536749
0.0869671204149366,0.04108748850771206,0.00293413858942248
0.08315685318622587,0.04113001950111235,0.0029546929664246865
0.07937830607496231,0.041170653290927645,0.0029752681346226963
0.07562488489430468,0.04120940408866996,0.0029958631489675957
0.0718892182944722,0.04124628261446715,0.00301647707064338
0.06816333049470649,0.04128129575166445,0.003037108965234913
0.06443882781928366,0.041314446291242944,0.00305775790074564
0.060707094093744376,0.041345732771721204,0.003078422945511381
0.05695948908606643,0.041375149417516154,0.0030991031660586904
0.053187543889731084,0.0414026861757601,0.0031197976249570094
0.04938314763700818,0.04142832884864179,0.00314050537871311
0.04553872099336511,0.04145205931579938,0.0031612254757542205
0.041647373050578744,0.04147385583931037,0.0031819569545429977
0.03770303943041299,0.04149369344243062,0.003202698841863433
0.03370060087516419,0.041511544352507014,0.0032234501513121673
0.02963598310526792,0.041527378498502125,0.0032442098820249197
0.025506239601613807,0.04154116405417885,0.00326497701766309
0.0213096189165258,0.041552868018808385,0.0032857505256813366
0.017045617271660356,0.041562456827855435,0.0033065293568930025
0.012715015732782867,0.041569896986106546,0.003327312445346493
0.008319899489381163,0.04157515571491208,0.0033480987085217477
0.0038636553260635465,0.041578201603615944,0.0033688870478513796
-0.0006490573059182538,0.04157900525312098,0.003389676349565564
-0.005212366120195235,0.04157753989726445,0.0034104654858531603
-0.009819280531241707,0.04157378198560159,0.003431253316323877
-0.014461823283117488,0.041567711709648,0.0034520386897476892
-0.019131198890960707,0.041559313454104484,0.003472820446038627
-0.02381799439357018,0.04154857615578335,0.0034935974184410992
-0.028512403259922086,0.04153549355636998,0.0035143684358691376
-0.03320446036454047,0.04152006434046386,0.003535132325343346
-0.03788427601571432,0.041502292156368796,0.003555887914467554
-0.04254225962871749,0.041482185522457686,0.0035766340338872606
-0.04716932757480621,0.041459757625656804,0.0035973695196742893
-0.051757093795068494,0.04143502602031433,0.003618093215585782
-0.05629804465087171,0.04140801223570285,0.0036388039751497864
-0.06078570016197825,0.04137874129949964,0.003659500663533587
-0.06521476217135008,0.041347241183916306,0.003680182159154441
-0.06958124681591983,0.04131354218166949,0.0037008473549958376
-0.07388259507810123,0.041277676221195984,0.003721495159596554
-0.07811775247504717,0.0412396761343077,0.0037421244976854296
-0.08228720818969985,0.041199574894141514,0.003762734310442542
-0.08639298519042139,0.04115740484579648,0.0037833235553775264
-0.09043857539958779,0.04111319695564898,0.003803891205827888
-0.09442881741065443,0.04106698010744642,0.003824436250093662
-0.09836971875338801,0.04101878047340541,0.003844957690238875
-0.10226822978296982,0.04096862098627132,0.0038654545406037943
-0.10613198043118384,0.04091652093371778,0.003885925826083792
-0.10996899311937201,0.040862495690330146,0.003906370580239803
-0.11378738555505895,0.040806556595661535,0.003926787843311301
-0.11759507732249813,0.04074871097994215,0.003947176660205202
-0.12139951457017441,0.04068896233196898,0.00396753607853318
-0.12520742690432193,0.04062731059660036,0.003987865146765322
-0.12902462925157743,0.04056375258256138,0.0040081629125601126
-0.13285587907518115,0.04049828245547969,0.004028428421319623
-0.13670479582928347,0.040430892286753575,0.004048660715005182
-0.14057384455057167,0.04036157262665861,0.004068858831233535
-0.14446437936333836,0.04029031307068014,0.00408902180265787
