acceleration,velocity,displacement
0.2356827008586544,0.0,0.0
0.23857269916793306,0.00011856385000664687,2.9640962501661717e-08
0.24143480059459174,0.00023856572494727806,1.1892335624014295e-07
0.24426950935150193,0.00035999180243380147,2.6856273808541284e-07
0.24707745643577997,0.00048282854388062194,4.792678246640187e-07
0.24985938308962963,0.0006070627537619743,7.517406490746678e-07
0.2526161239745769,0.000732681630528026,1.0866767451471679e-06
0.2553485901159214,0.0008596728090506506,1.484765355041837e-06
0.2580577516111363,0.0009880243944824152,1.9466896559251033e-06
0.260744620104458,0.0011177249874113138,2.4731270013985355e-06
0.26341023108764605,0.00124876370020934,3.064749173303699e-06
0.2660556261398623,0.001381130164516217,3.7222226394850883e-06
0.26868183523068795,0.0015148145298588545,4.446208813078856e-06
0.2712898591926288,0.0016498074534646837,5.23736430890974e-06
0.27388065247379256,0.001786100081381289,6.096341192621233e-06
0.2764551063482216,0.0019236840210867924,7.023787218238254e-06
0.2790140328781447,0.002062551305893384,8.020346049983298e-06
0.28155815002627366,0.0022026943516194886,9.086657464361517e-06
0.28408806834398215,0.0023441059062120524,1.0223357528819401e-05
0.28660427959995693,0.002486778993198037,1.1431078753671923e-05
0.28910714760147044,0.0026307068499983937,1.271045021447103e-05
0.29159690134570737,0.002775882862235188,1.4062097642529426e-05
0.2940736305501547,0.0029223004952091537,1.548664348189051e-05
0.2965372835571874,0.003069953223735989,1.6984706911626795e-05
0.2989876675830146,0.0032188344615210395,1.8556903832941053e-05
0.301424451261747,0.00336893749123223,2.020384682112937e-05
0.3038471693901659,0.0035202553963952082,2.192614504303623e-05
0.30625522969916474,0.003672780996167541,2.3724404141176916e-05
0.30864792138330455,0.0038265067839381582,2.559922608620334e-05
0.31102442503432126,0.003981424870542565,2.7551208999823522e-05
0.31338382356274297,0.004137526932691831,2.958094695063212e-05
0.31572511366196,0.004294804166998007,3.168902972555458e-05
0.3180472173785481,0.004453247249758134,3.387604257974362e-05
0.3203489934213517,0.004612846302458109,3.614256596779768e-05
0.322629247986257,0.004773590862810011,3.848917525911471e-05
0.32488674506794946,0.004935469861073563,4.0916440440085607e-05
0.32712021640942046,0.005098471601442905,4.342492580571472e-05
0.3293283713503869,0.005262583748382857,4.601518964317116e-05
0.3315099068607532,0.0054277933179356416,4.868778390975079e-05
0.333663517994557,0.005594086674149469,5.144325390777207e-05
0.33578790889422816,0.005761449530871665,5.428213795902735e-05
0.33788180434203974,0.005929866959180732,5.7204967081540455e-05
0.3399439617218388,0.006099323400696702,6.021226467150981e-05
0.3419731831372659,0.006269802686911478,6.330454619341186e-05
0.34396832735020005,0.006441288064533345,6.648231888127306e-05
0.3459283211759734,0.006613762226664888,6.974608145407262e-05
0.3478521700085387,0.006787207349461016,7.30963238481041e-05
0.3497389672221386,0.0069616051337686845,7.653352696891152e-05
0.3515879022512247,0.007136936851137025,8.005816246513795e-05
0.35339826715672207,0.007313183393489012,8.367069252629447e-05
0.3551694614675637,0.007490325325645084,8.7371569706078e-05
0.356900995080359,0.0076683429397820645,9.116123677243478e-05
0.3585924890235643,0.007847216310808045,9.50401265850823e-05
0.3602436739547701,0.008026925351552628,9.900866200067247e-05
0.36185438637151607,0.008207449866634199,0.00010306725580521918
0.36342456265932166,0.008388769603891908,0.00010721631067285071
0.36495423122444876,0.008570864302362851,0.0001114562191494144
0.3664435030374244,0.00875371373592832,0.0001157873636589872
0.3678925609732859,0.008937297751930997,0.00012021011653095202
0.36930164839723617,0.009121596304273628,0.00012472484004500317
0.37067105747720125,0.009306589480742238,0.00012933188649125714
0.3720011176682648,0.009492257524528605,0.00013403159824257484
0.3732921847306265,0.009678580850128328,0.00013882430783623907
0.3745446305704513,0.009865540053953598,0.00014371033806225955
0.3757588341445811,0.010053115920132355,0.00014869000205578104
0.376935173597055,0.010241289422067765,0.00015376360339133108
0.378074019657217,0.010430041720381334,0.00015893143617694335
0.37917573015722694,0.010619354157834944,0.0001641937851464974
0.3802406454063802,0.010809208251725846,0.0001695509257488876
0.3812690841450308,0.010999585684113699,0.00017500312423284747
0.38226133986557,0.01119046829011635,0.000180550637726405
0.3832176773715782,0.011381838044425637,0.00018619371431004048
0.38413832951199683,0.01157367704614653,0.00019193259308268351
0.38502349406386255,0.011765967502040495,0.00019776750421973026
0.3858733307426042,0.011958691708242111,0.00020369866902230092
0.3866879583081712,0.012151832030504805,0.00020972629995698767
0.38746745173863917,0.012345370883016507,0.000215850600685368
0.3882118394835941,0.012539290705822066,0.00022207176608257765
0.38892110088609916,0.012733573940914488,0.0002283899822442618
0.38959516395378635,0.01292820300712446,0.00023480542648127153
0.39023390373603717,0.013123160274046915,0.00024131826730156437
0.39083714159571403,0.013318428035379854,0.0002479286643789211
0.39140464563954147,0.013513988482188667,0.0002546367685083132
0.3919361325071525,0.01370982367672534,0.0002614427215480417
0.3924312706418386,0.013905915527512589,0.0002683466563491012
0.39288968509069117,0.01410224576644572,0.0002753486966725908
0.3933109638204626,0.01429879592867351,0.0002824489570963706
0.3936946655048136,0.014495547336004827,0.0002896475429125402
0.3940403287255187,0.014692481084562411,0.000296944550017682
0.394347482485085,0.014889578037365063,0.00030434006479816385
0.3946156578297753,0.015086818822443778,0.00031183416401311606
0.39484440027235557,0.015284183836969311,0.0003194269146779693
0.39503328263129833,0.015481653257695224,0.00032711837395163544
0.395181917873999,0.01567920705782155,0.00033490858903051466
0.39528997155445217,0.015876825030178662,0.00034279759705251473
0.39535717346178223,0.016074486816432722,0.0003507854250141676
0.3953833281186091,0.01627217194182782,0.0003588720897037327
0.3953683237566984,0.016469859854796647,0.00036705759765288883
0.3953121393702264,0.01666752997057838,0.0003753419451092326
0.39521484947443225,0.016865161717789543,0.0003837251180313246
0.39507662633517615,0.017062734586741946,0.00039220709210745745
0.3948977396673894,0.017260228178242586,0.0004007878327987036
0.39467855404658686,0.01745762225167108,0.000409467295406182
0.39441952444881284,0.01765489677129493,0.0004182454251619235
0.3941211903927808,0.01785203195000533,0.00042712215734224855
0.39378416911973,0.018049008289883456,0.00043609741740222073
0.39340914814062233,0.018245806619198543,0.0004451711211294912
0.3929968773364235,0.018442408125567803,0.0004543431748156828
0.3925481606717938,0.018638794385069858,0.0004636134754433422
0.3920638475489816,0.018834947387125052,0.0004729819108863909
0.3915448239078608,0.019030849554989262,0.0004824483601219195
0.39099200329481504,0.019226483761789932,0.0004920126934511142
0.3904063181694066,0.019421833342155987,0.0005016747727271008
0.38978871166124557,0.01961688209961365,0.0005114344515875431
0.38914012989438235,0.019811614310002557,0.0005212915756899472
0.3884615149363762,0.020006014721210247,0.0005312459829477504
0.38775379841284824,0.02020006854954755,0.0005412975037654399
0.38701789582517593,0.020393761473107057,0.0005514459612711035
0.3862547016219594,0.02058707962246884,0.0005616911715449975
0.38546508514800853,0.020780009569161335,0.0005720329438429051
0.38464988772871334,0.020972538312380516,0.0005824710808132905
0.3838099212460197,0.0211646532646242,0.0005930053787075416
0.38294596851711915,0.021356342237064983,0.0006036356275829639
0.38205878560508827,0.021547593425595535,0.0006143616114986291
0.3811491059788608,0.02173839539849152,0.0006251831087046508
0.38021764628317045,0.02192873708655703,0.0006360998918259129
0.3792651133837403,0.022118607776473755,0.0006471117280416706
0.37829221229346194,0.022307997107893055,0.0006582183792627623
0.37729965455580455,0.022496895074605373,0.0006694196023083868
0.37628816667915516,0.022685292029914112,0.0006807151490845167
0.3752584982867825,0.022873178696155596,0.0006921047667660342
0.3742114297349975,0.023060546178161043,0.0007035881979846133
0.37314777899906176,0.023247385980344558,0.0007151651810242397
0.37206840761091264,0.02343369002699705,0.0007268354500260751
0.37097422538026226,0.023619450685244844,0.0007385987352041356
0.3698661935823881,0.023804660789985506,0.0007504547630729432
0.3687453262915726,0.023989313669953997,0.000762403256687928
0.36761268961601534,0.024173403173930894,0.0007744439358988993
0.36646939876656875,0.02435692369602654,0.0007865765176163886
0.3653166131260967,0.024539870198999707,0.0007988007160901452
0.36415552966621767,0.024722238234697786,0.0008111162431985695
0.3629873750800968,0.024904023960884366,0.0008235228087474651
0.36181339687034886,0.025085224153871977,0.0008360201207761542
0.36063485346231344,0.025265836216455142,0.0008486078858687359
0.3594530033213624,0.025445858180651062,0.0008612858094680125
0.3582690930764296,0.02562528870475051,0.0008740535961893629
0.3570843447411516,0.025804127064204905,0.0008869109501316017
0.35589994219372534,0.025982373135938625,0.0008998575751816377
0.3547170170842573,0.02616002737575812,0.0009128931753095618
0.3535366343210681,0.026337090788609453,0.0009260174548506537
0.3523597773245819,0.026513564891520864,0.0009392301187706863
0.35118733337105035,0.026689451669194772,0.0009525308729108653
0.35002007952646197,0.02686475352241915,0.0009659194242087688
0.34885866977143487,0.027039473209743627,0.0009793954808918095
0.3477036238586105,0.02721361378315114,0.0009929587526400331
0.34655531827444813,0.027387178518684403,0.001006608950715492
0.3454139795217571,0.027560170843133454,0.0010203457880559464
0.3442796798550699,0.02773259425797766,0.0010341689793312242
0.3431523355503821,0.027904452261829023,0.001048078240961176
0.34203170774021996,0.028075748272651673,0.0010620732910947962
0.340917405796091,0.02824648555103575,0.001076153849550718
0.3398088931712672,0.02841666712577759,0.0010903196377199213
0.3387054954925612,0.028586295722943546,0.0011045703784321017
0.3376064105426619,0.02875537369945235,0.0011189057957877006
0.33651071969363816,0.028923902982011425,0.0011333256149580666
0.3354174003813023,0.02909188501203016,0.001147829561956577
0.33432533930668035,0.029259320696952154,0.0011624173633838226
0.33323334613280425,0.029426210368312024,0.0011770887461501386
0.3321401674590219,0.029592553746709983,0.0011918434371788942
0.33104450081282866,0.029758349913777946,0.0012066811630940162
0.3299450083520325,0.02992359729106916,0.001221601649895228
0.32884032995340257,0.03008829362564552,0.0012366046226244068
0.32772909539364176,0.03025243598198228,0.0012516898050263137
0.3266099354166288,0.03041602073968485,0.0012668569192067305
0.32548149160659895,0.030579043596440657,0.0012821056852907618
0.32434242509864486,0.03074149957561697,0.0012974358210837763
0.3231914242276769,0.03090338303794855,0.0013128470417371676
0.322027211241832,0.03106468769681593,0.0013283390594208586
0.3208485481648117,0.03122540663666759,0.0013439115830042295
0.3196542417665671,0.03138553233415044,0.001359564317746934
0.31844314744185886,0.03154505668145254,0.0013752969650008347
0.3172141717015812,0.031703971011238403,0.0013911092219240073
0.31596627301780855,0.03186226612241825,0.0014070007812074215
0.3146984609160948,0.03201993230590173,0.0014229713308145015
0.31340979341696706,0.032176959369484996,0.0014390205537333483
0.3120993731236449,0.03233333666112015,0.0014551481277409995
0.31076634236247963,0.03248905308999168,0.0014713537251787774
0.3094098777661138,0.03264409714502382,0.0014876370127375313
0.3080291845874843,0.03279845691061222,0.0015039976512514403
0.3066234909367222,0.032952120079493274,0.0015204352954989668
0.30519204209877915,0.03310507396275215,0.001536949594009528
0.3037340951042975,0.033257305497052914,0.0015535401888744794
0.30224891374670987,0.033408801249265666,0.001570206715561059
0.3007357642302099,0.0335595474187599,0.0015869488027280654
0.2991939115773402,0.033709529837711784,0.0016037660720421834
0.29762261682142804,0.033858733969811476,0.0016206581379940642
0.29602113488555065,0.03400714490773822,0.0016376246077134517
0.29438871295356733,0.034154747369698,0.0016546650807828108
0.2927245891043152,0.03430152569521247,0.0016717791490490385
0.2910279910050941,0.03444746384023982,0.0016889663964329016
0.28929813451865477,0.03459254537162076,0.0017062263987358667
0.28753422215321295,0.03473675346078872,0.001723558723443969
0.28573544138628143,0.034880070876673594,0.0017409629295283347
0.2839009630176427,0.03502247997777457,0.0017584385672419467
0.2820299398044385,0.035163962703480094,0.0017759851779122603
0.2801215056352882,0.035304500564840025,0.0017936022937293404
0.2781747754013167,0.035444074635099174,0.0018112894375293253
0.2761888455932919,0.03558266554034783,0.001829046122573187
0.2741627955899984,0.03572025345064365,0.001846871852320935
0.2720956896303119,0.03585681807194872,0.001864766120201583
0.2699865795143861,0.0359923386392349,0.0018827284093793789
0.2678345080765291,0.03612679391113263,0.0019007581925169707
0.2656385134011519,0.036260162166502054,0.0019188549315363793
0.2633976336621603,0.03639242120326788,0.0019370180773788219
0.26111091240952317,0.03652354833978581,0.0019552470697645854
0.2587774041428546,0.036653520418923904,0.0019735413369542628
0.2563961801144762,0.03678231381498824,0.0019919002955127406
0.2539663344483103,0.03690990444362894,0.002010323350077395
0.25148699075525066,0.037036267774929826,0.002028809893132035
0.24895730942327918,0.03716137884997446,0.002047359304788261
0.24637649569316514,0.03728521230125357,0.002065970952576068
0.2437438085369263,0.03740774237731109,0.002084644191245709
0.24105857023311178,0.037528942972003605,0.0021033783625830377
0.23832017638655426,0.03764878765865852,0.0021221727952407034
0.23552810603452512,0.03776724972926379,0.002141026804587684
0.23268193148530794,0.03788430223864375,0.002159939692579661
0.22978132763924622,0.03799991805342489,0.0021789107476526785
0.22682608066974058,0.03811406990550214,0.0021979392446424104
0.22381609603790256,0.03822673044967905,0.0022170244447312056
0.22075140588300546,0.038337872325159277,0.002236165595424915
0.21763217587979203,0.038447468220599974,0.002255361930561355
0.214458711658253,0.038555490942484484,0.002274612670352126
0.21123146482253047,0.03866191348660468,0.002293917021459398
0.20795103850580657,0.038766709112436765,0.002313274177109158
0.2046181922979342,0.0388698514201377,0.0023326833172423018
0.20123384630912736,0.03897131442978947,0.0023521436087047837
0.19779908409231253,0.03907107266238983,0.0023716542054778287
0.19431515411902328,0.039169101221942663,0.002391214248948912
0.19078346945867009,0.039265375877837086,0.002410822868223857
0.18720560525585686,0.03935987314651572,0.002430479180479945
0.1835832935894101,0.039452570371227035,0.0024501822913593806
0.17991841537543946,0.039543445798468246,0.0024699312954018044
0.1762129891390367,0.03963247864959687,0.002489725276513821
0.17246915668373555,0.03971964918605256,0.0025095633084727333
0.16868916588494692,0.03980493876669473,0.00252944445546092
0.16487535097310768,0.03988832989590924,0.002549367772626571
0.16103011072303364,0.03996980626133328,0.0025693323066658816
0.15715588493835297,0.040049352760248624,0.002589337096421277
0.15325512956152237,0.040126955513873595,0.0026093811734898076
0.1493302907063955,0.04020260186894058,0.002629463562835511
0.1453837779394402,0.04027628038610204,0.002649583283399272
0.14141793723158022,0.04034798081489479,0.002669739348699521
0.13743502412937408,0.04041769405523503,0.0026899307674170536
0.13343717779550748,0.04048541210571625,0.0027101565439572916
0.12942639661140098,0.040551127999317975,0.0027304156789835503
0.1254045160222209,0.04061483572747638,0.0027507071699152488
0.12137318925293941,0.040676530153795167,0.002771030011385567
0.11733387144946054,0.040736206918970765,0.002791383195653758
0.11328780770681278,0.04079386233875983,0.002811765712968191
0.10923602530983774,0.040849493297014,0.0028321765518771343
0.10517933030620434,0.040903097135918005,0.0028526146994853675
0.10111830830246891,0.04095467154557017,0.0028730791416557394
0.09705332921297226,0.041004214454949034,0.0028935688631558693
0.09298455564332293,0.04105172392616311,0.002914082847751147
0.08891195462349344,0.041097198053729814,0.0029346200782461203
0.0848353124597162,0.04114063487050062,0.002955179536477178
0.08075425250156126,0.041182032261740935,0.002975760203260238
0.07666825559809295,0.04122138788876585,0.0029963610582978647
0.07257668294930046,0.0412586991234027,0.003016981080050907
0.06847880096993354,0.04129396299438251,0.0030376192455803534
0.06437380769556021,0.041327176146548884,0.0030582745303655862
0.060260860187694165,0.0413583348135197,0.0030789459081056033
0.05613910234363851,0.04138743480415253,0.0030996323505100213
0.052007692498031,0.04141447150286295,0.0031203328270867753
0.047865830226199196,0.041439439883544,0.003141046304933377
0.04371278181473967,0.041462334536554235,0.0031617717485384017
0.039547903931073415,0.04148314970799069,0.003182508119599538
0.035370665097308476,0.04150187935024779,0.0032032543768640977
0.031180664665140467,0.0415185171826884,0.0032240094759973317
0.02697764908702639,0.04153305676112644,0.0032447723694832855
0.022761525353433728,0.04154549155473655,0.0032655420065622514
0.018532371502250993,0.04155581502895047,0.0032863173332081733
0.014290444110047467,0.04156402073285354,0.0033070972921486245
0.010036182652496785,0.04157010238954418,0.003327880822929224
0.005770210587135165,0.04157405398785409,0.0033486668620235733
0.0014933329924322306,0.041575869873748984,0.003369454342988974
-0.0027934693877456666,0.041575544839650154,0.003390242196667324
-0.007089049796618675,0.041573074209854066,0.0034110293514297
-0.011392108842158424,0.04156845392019437,0.003431814733462212
-0.01570121152474197,0.041561680590102644,0.0034525972670897864
-0.02001480768307127,0.04155275158530069,0.0034733758751336373
-0.0243312554042739,0.04154166506952885,0.0034941494792973446
-0.02864884670702589,0.04152842004400103,0.003514917000575727
-0.032965834653469056,0.04151301637366091,0.0035356773596801425
-0.037280461034239966,0.04149545479973898,0.0035564294774734924
-0.041590983880801194,0.04147573693851022,0.003577172275408055
-0.04589570423566332,0.0414538652664811,0.0035979046759593027
-0.050192991799207685,0.041429843092472385,0.003618625603049041
-0.05448130921275513,0.041403674517219394,0.003639333982451464
-0.05875923478444111,0.041375364381220095,0.003660028742176074
-0.06302548341294625,0.04134491820167075,0.003680708812821797
-0.06727892534726326,0.041312342099480696,0.003701373127897085
-0.07151860228801561,0.04127764271757187,0.003722020624101348
-0.07574374024679806,0.04124082713193817,0.0037426502415637253
-0.07995375858270286,0.0412019027572308,0.0037632609240360174
-0.08414827473030331,0.04116087724890254,0.003783851619037551
-0.08832710428703028,0.04111775840414821,0.0038044212779508135
-0.09249025632370121,0.04107255406399553,0.0038249688560678496
-0.09663792402525753,0.041025272018908286,0.0038454933125885754
-0.10077047103656457,0.04097591992014283,0.0038659936105733383
-0.1048884141125186,0.04092450519885556,0.003886468716853088
-0.10899240279791397,0.04087103499462795,0.0039069176019014586
-0.1130831969110657,0.0408155160947007,0.0039273392396737905
-0.11716164263928659,0.04075795488481311,0.003947732607418669
-0.1212286480933741,0.040698357312129944,0.003968096685467905
-0.12528515917644278,0.04063672886031249,0.003988430457011015
-0.12933213657373105,0.040573074536374945,0.004008732907860187
-0.13337053457009376,0.040507398868588985,0.004029003026211429
-0.13740128224676398,0.04043970591438477,0.0040492398024071724
-0.14142526738239533,0.04036999927697748,0.004069442228705013
-0.14544332310129768,0.04029828212935656,0.0040896092990565965
