frame_number,force
0,858.9980400718157
1,859.2451614429963
2,859.4898973747589
3,859.7322909819303
4,859.9723962205533
5,860.2102764736371
6,860.4460031124004
7,860.6796540378648
8,860.911312202265
9,861.141064110465
10,861.3689983065109
11,861.5952038549775
12,861.819768827714
13,862.0427788050823
14,862.2643154011527
15,862.4844548280331
16,862.7032665244949
17,862.9208118829372
18,863.1371431111043
19,863.3523022597308
20,863.5663204376765
21,863.7792172263017
22,863.9910002972748
23,864.2016652333948
24,864.4111955498788
25,864.619562911903
26,864.826727540324
27,865.032638790699
28,865.2372358826415
29,865.4404487492267
30,865.6421989708905
31,865.8424007557124
32,866.0409619287846
33,866.2377848992417
34,866.4327675858789
35,866.6258042989015
36,866.8167865906989
37,867.0056040979753
38,867.192145399702
39,867.3762989110264
40,867.5579538242368
41,867.7370010965175
42,867.9133344727862
43,868.0868515219137
44,868.2574546575696
45,868.4250521126185
46,868.5895588391177
47,868.7508973122467
48,868.9089982212142
49,869.063801030734
50,869.2152543950205
51,869.363316405737
52,869.5079546573396
53,869.649146118581
54,869.7868768085008
55,869.9211412874771
56,870.051941984506
57,870.1792883885857
58,870.3031961372099
59,870.4236860403361
60,870.5407830810027
61,870.6545154306422
62,870.7649135100156
63,870.8720091205124
64,870.9758346664195
65,871.0764224825216
66,871.1738042695791
67,871.2680106255249
68,871.3590706499259
69,871.447011598007
70,871.5318585660602
71,871.6136341972215
72,871.6923584022115
73,871.7680480927817
74,871.8407169260664
75,871.9103750571311
76,871.9770288972891
77,872.040680879241
78,872.1013292366292
79,872.1589678134458
80,872.2135859252663
81,872.2651682969766
82,872.313695099574
83,872.3591421031473
84,872.4014809565558
85,872.4406795978857
86,872.4767027945139
87,872.5095128089893
88,872.5390701858199
89,872.5653346503989
90,872.588266102879
91,872.6078256804317
92,872.6239768551171
93,872.6366865320965
94,872.6459261131679
95,872.6516724928222
96,872.6539089559499
97,872.6526259453415
98,872.6478216648063
99,872.639502486081
100,872.6276831394772
101,872.6123866880961
102,872.5936443064892
103,872.5714948992827
104,872.5459846002767
105,872.5171661892604
106,872.4850984547288
107,872.4498455183848
108,872.4114761265831
109,872.3700629110093
110,872.3256816276511
111,872.278410393106
112,872.228328941222
113,872.1755179182339
114,872.1200582264288
115,872.0620304212264
116,872.001514165165
117,871.938587742012
118,871.8733276353295
119,871.8058081820748
120,871.7361013232879
121,871.6642764823243
122,871.5904005972362
123,871.5145383183535
124,871.4367523639996
125,871.3571040138745
126,871.275653711483
127,871.1924617418957
128,871.1075889486078
129,871.0210974547521
130,870.9330513599957
131,870.8435173919631
132,870.7525654950441
133,870.6602693381238
134,870.5667067182802
135,870.4719598333692
136,870.376115396046
137,870.2792645683433
138,870.1815027110209
139,870.0829289619512
140,869.9836456731897
141,869.8837577382569
142,869.7833718300723
143,869.6825955555483
144,869.5815365250209
145,869.4803013367015
146,869.3789944839681
147,869.2777171992686
148,869.1765662490701
149,869.0756326928044
150,868.9750006219408
151,868.8747459067395
152,868.774934993472
153,868.6756238034816
154,868.5768567803877
155,868.478666117237
156,868.3810711820978
157,868.2840781533955
158,868.1876798719596
159,868.0918559124295
160,867.9965728724851
161,867.9017848724583
162,867.8074342472542
163,867.7134523999323
164,867.6197607793762
165,867.5262719469657
166,867.4328907054241
167,867.3395152700193
168,867.2460384634956
169,867.1523489125035
170,867.058332219261
171,866.9638720807528
172,866.8688513303151
173,866.7731528839867
174,866.6766605847561
175,866.5792599473897
176,866.4808388124878
177,866.3812879205428
178,866.2805014132227
179,866.1783772584105
180,866.0748175818563
181,865.969728880209
182,865.8630220932748
183,865.754612526401
184,865.6444196317001
185,865.5323666735136
186,865.4183803128755
187,865.3023901443222
188,865.1843282096881
189,865.0641285053074
190,864.9417264961188
191,864.8170586514256
192,864.6900620188114
193,864.5606738520024
194,864.4288313036825
195,864.2944711854211
196,864.1575297863053
197,864.0179427336479
198,863.875644876199
199,863.7305701724264
200,863.5826515714009
201,863.431820880258
202,863.2780086208701
203,863.1211438890107
204,862.961154237642
205,862.7979656062943
206,862.631502310038
207,862.4616870905439
208,862.2884412262516
209,862.1116847009993
210,861.9313364350003
211,861.747314581806
212,861.559536888808
213,861.3679211110505
214,861.1723854632803
215,860.9728490965396
216,860.7692325943805
217,860.561458496087
218,860.3494518623496
219,860.1331408986374
220,859.9124576457442
221,859.6873387389786
222,859.4577262269385
223,859.2235684282916
224,858.984820795945
225,858.7414467583327
226,858.4934185164514
227,858.2407177861649
228,857.9833364835308
229,857.721277356752
230,857.454554572539
231,857.1831942650601
232,856.907235050613
233,856.6267285026186
234,856.3417395729783
235,856.0523469395577
236,855.7586432560734
237,855.4607352782963
238,855.158743836626
239,854.8528036203779
240,854.5430627381837
241,854.2296820256281
242,853.9128340851264
243,853.5927020605318
244,853.2694781658162
245,852.9433619990984
246,852.6145586776341
247,852.2832768270187
248,851.9497264528653
249,851.6141167203517
250,851.2766536695186
251,850.9375379024043
252,850.5969622889342
253,850.2551097471446
254,849.9121511569823
255,849.5682434658492
256,849.2235280396486
257,848.8781293067065
258,848.5321537340714
259,848.1856891640226
260,847.8388045210314
261,847.4915498798313
262,847.1439568714923
263,846.7960394002858
264,846.4477946469722
265,846.0992043387735
266,845.7502362686222
267,845.4008460443501
268,845.0509790426954
269,844.7005725353885
270,844.3495579471123
271,843.9978631988924
272,843.6454150860935
273,843.2921416386048
274,842.9379744127729
275,842.5828506693699
276,842.2267153975579
277,841.8695231511007
278,841.5112396708923
279,841.1518432762916
280,840.7913260141302
281,840.4296945573634
282,840.0669708456421
283,839.7031924581686
284,839.3384127062824
285,838.9727004315793
286,838.6061394966581
287,838.2388279597451
288,837.8708769307806
289,837.5024091153985
290,837.1335570666124
291,836.7644611830376
292,836.395267512748
293,836.0261254349585
294,835.6571852927015
295,835.2885960402692
296,834.9205029541151
297,834.5530454398146
298,834.1863549556399
299,833.8205530692895
300,833.4557496687171
301,833.0920413579992
302,832.7295100805248
303,832.3682220194041
304,832.008226824762
305,831.6495572094525
306,831.2922289415872
307,830.9362412455279
308,830.5815776021897
309,830.2282069166001
310,829.8760850014744
311,829.525156314773
312,829.1753558850586
313,828.8266113555522
314,828.4788450744488
315,828.1319761583534
316,827.7859224598637
317,827.4406023788692
318,827.0959364704001
319,826.7518488212362
320,826.408268191605
321,826.0651289416327
322,825.7223717780174
323,825.3799443604485
324,825.0378018000165
325,824.6959070685907
326,824.3542313273206
327,824.0127541799716
328,823.6714638602327
329,823.3303573638481
330,822.9894405330901
331,822.6487280953128
332,822.3082436517569
333,821.9680196087583
334,821.6280970428448
335,821.2885254939506
336,820.9493626837664
337,820.6106741570187
338,820.2725328448515
339,819.9350185540866
340,819.5982173902352
341,819.2622211192846
342,818.9271264641533
343,818.5930343249412
344,818.2600489142144
345,817.9282768071928
346,817.5978259144592
347,817.2688043865174
348,816.9413194564569
349,816.6154762247868
350,816.2913763933262
351,815.9691169621606
352,815.6487889112228
353,815.3304758921444
354,815.0142529554998
355,814.7001853358639
356,814.388327315392
357,814.0787211874567
358,813.7713963454802
359,813.4663685271648
360,813.1636392463495
361,812.8631954389886
362,812.5650093368654
363,812.2690385686464
364,811.9752264791783
365,811.6835026572645
366,811.3937836677611
367,811.1059739907998
368,810.8199671735208
369,810.5356471938535
370,810.252890022074
371,809.9715653495607
372,809.6915384423825
373,809.4126720740144
374,809.1348284956648
375,808.8578714098737
376,808.5816679181048
377,808.3060904141103
378,808.0310183940672
379,807.7563401545265
380,807.481954349792
381,807.2077713799856
382,806.9337145805582
383,806.6597211861778
384,806.385743048151
385,806.1117470932063
386,805.8377155194526
387,805.5636457305982
388,805.2895500125611
389,805.0154549595253
390,804.7414006616598
391,804.4674396750822
392,804.1936358037817
393,803.9200627284966
394,803.6468025162516
395,803.3739440370973
396,803.1015813049778
397,802.8298117531451
398,802.5587344559491
399,802.2884483180319
400,802.019050263989
401,801.7506334713871
402,801.4832856960464
403,801.217087741141
404,800.9521121204168
405,800.6884219589388
406,800.4260701616737
407,800.1650988633417
408,799.9055391569536
409,799.6474110864399
410,799.3907238796917
411,799.1354763897278
412,798.8816577043126
413,798.6292478804387
414,798.3782187590373
415,798.1285348154306
416,797.8801540027399
417,797.6330285496624
418,797.3871056814892
419,797.142328245171
420,796.8986352356756
421,796.6559622392897
422,796.4142418254694
423,796.1734039269097
424,795.9333762442081
425,795.6940846989961
426,795.4554539445345
427,795.217407931596
428,794.9798705214604
429,794.7427661346622
430,794.5060204216372
431,794.269560940218
432,794.0333178255571
433,793.7972244382278
434,793.5612179737726
435,793.325240013505
436,793.0892369953293
437,792.8531605856755
438,792.6169679380432
439,792.3806218286746
440,792.1440906634374
441,791.9073483500615
442,791.6703740279993
443,791.4331516493106
444,791.1956694109967
445,790.9579190502557
446,790.7198950253513
447,790.4815936129065
448,790.2430119565175
449,790.0041471036733
450,789.7649950705827
451,789.5255499776218
452,789.2858032996489
453,789.0457432740552
454,788.8053545056769
455,788.5646178028768
456,788.3235102732148
457,788.0820056986814
458,787.8400751987143
459,787.5976881752915
460,787.3548135194342
461,787.1114210429389
462,786.8674830853013
463,786.6229762367641
464,786.3778831148467
465,786.1321941325492
466,785.8859092015208
467,785.6390393215311
468,785.3916080146464
469,785.1436525656336
470,784.8952250302754
471,784.6463929743003
472,784.3972399118876
473,784.1478654262802
474,783.8983849723272
475,783.6489293737886
476,783.3996440322885
477,783.1506878641032
478,782.9022319841592
479,782.6544581676634
480,782.4075571347788
481,782.1617267153566
482,781.9171699539173
483,781.6740932088746
484,781.4327042866819
485,781.193210635358
486,780.9558176070225
487,780.7207267882371
488,780.4881343907108
489,780.2582296929824
490,780.0311935264539
491,779.8071968071629
492,779.5863991264514
493,779.3689474247453
494,779.1549747773962
495,778.9445993168058
496,778.7379233036469
497,778.5350323487678
498,778.3359947808394
499,778.1408611527343
500,777.9496638803315
501,777.7624170105182
502,777.5791161208997
503,777.3997383608013
504,777.2242426474514
505,777.0525700288142
506,776.884644215846
507,776.7203722765184
508,776.5596454755397
509,776.4023402380953
510,776.2483192135189
511,776.0974324172553
512,775.9495184376277
513,775.8044057049575
514,775.6619138282654
515,775.5218550039768
516,775.3840354926535
517,775.2482571489446
518,775.1143189799824
519,774.9820186992124
520,774.8511542396752
521,774.721525198304
522,774.5929342001555
523,774.4651881902043
524,774.3380996715435
525,774.2114879099017
526,774.0851801181065
527,773.959012623666
528,773.8328320097818
529,773.7064962073424
530,773.5798755056345
531,773.4528534435972
532,773.3253275418979
533,773.1972098413487
534,773.0684272271219
535,772.9389215372123
536,772.8086494686228
537,772.6775822981547
538,772.5457054267526
539,772.4130177452188
540,772.2795308142405
541,772.1452678572831
542,772.0102625787817
543,771.8745578355349
544,771.7382041982476
545,771.6012584386976
546,771.4637819693819
547,771.3258392544848
548,771.1874962092033
549,771.0488186092464
550,770.9098705394063
551,770.7707129131117
552,770.6314020899476
553,770.4919886066773
554,770.352516024185
555,770.2130198833843
556,770.0735267615663
557,769.9340534275193
558,769.7946061054956
559,769.6551798692515
560,769.5157581935574
561,769.376312690729
562,769.2368030563307
563,769.0971772434659
564,768.9573718782736
565,768.817312919973
566,768.6769165592239
567,768.5360903401534
568,768.3947344827632
569,768.2527433729291
570,768.1100071799145
571,767.9664135598325
572,767.8218494066076
573,767.6762026148576
574,767.5293638199719
575,767.3812280826587
576,767.231696490397
577,767.0806776534008
578,766.9280890734879
579,766.7738583603679
580,766.6179242655768
581,766.4602375045463
582,766.3007613441124
583,766.1394719440844
584,765.9763584532501
585,765.8114228692914
586,765.6446796782362
587,765.4761552946969
588,765.3058873320407
589,765.1339237416039
590,764.9603218681116
591,764.7851474702974
592,764.6084737502214
593,764.4303804240594
594,764.2509528543443
595,764.0702812514205
596,763.8884599412007
597,763.7055866867983
598,763.5217620450704
599,763.337088741061
600,763.1516710565282
601,762.9656142469569
602,762.7790240146044
603,762.5920060683573
604,762.4046657954041
605,762.2171080575824
606,762.0294371109173
607,761.8417566361735
608,761.6541698648929
609,761.4667797883905
610,761.2796894424124
611,761.0930022637256
612,760.9068225152974
613,760.721255774028
614,760.5364094687199
615,760.3523934463639
616,760.169320536072
617,759.987307077485
618,759.8064733835357
619,759.6269441099303
620,759.4488485032882
621,759.2723205010699
622,759.0974986626312
623,758.9245259190936
624,758.7535491362643
625,758.5847184895388
626,758.4181866537459
627,758.2541078139374
628,758.0926365046048
629,757.9339262864424
630,757.7781282755907
631,757.6253895516494
632,757.4758514825245
633,757.329648009733
634,757.1869039361593
635,757.0477332521657
636,756.9122375268119
637,756.7805043809309
638,756.6526060529893
639,756.5285980687916
640,756.4085180273785
641,756.2923845141528
642,756.180196151311
643,756.0719307992628
644,755.9675449303114
645,755.8669732041841
646,755.7701282817536
647,755.6769009161927
648,755.5871603568319
649,755.5007550896202
650,755.4175139223659
651,755.3372474058443
652,755.2597495656859
653,755.1847999087847
654,755.1121656649673
655,755.0416042274884
656,754.9728657592442
657,754.9056959327411
658,754.8398387706496
659,754.7750395494824
660,754.711047722614
661,754.6476198155865
662,754.5845222499322
663,754.5215340582329
664,754.4584494567359
665,754.3950802400926
666,754.331257957221
667,754.2668358211911
668,754.2016903031777
669,754.1357223640454
670,754.0688582867393
671,754.0010500845224
672,753.9322754718551
673,753.8625373988243
674,753.7918631693518
675,753.7203031850534
676,753.6479293725614
677,753.5748333563122
678,753.5011244327779
679,753.4269273921009
680,753.3523802230362
681,753.2776317285206
682,753.2028390741268
683,753.1281652913328
684,753.0537767612785
685,752.9798407125584
686,752.9065227777556
687,752.8339846624713
688,752.7623819814851
689,752.6918623085086
690,752.6225634714267
691,752.5546121073367
692,752.4881224750511
693,752.4231955112729
694,752.3599181131846
695,752.2983626347192
696,752.238586592612
697,752.1806325854795
698,752.1245284300857
699,752.0702875137189
700,752.017909354457
701,751.9673803564749
702,751.9186747463622
703,751.8717556752886
704,751.8265764657496
705,751.783081969117
706,751.7412099867378
707,751.7008927015045
708,751.6620580728011
709,751.6246311610503
710,751.5885353601478
711,751.5536935222326
712,751.520028961171
713,751.4874663225073
714,751.455932310753
715,751.425356270442
716,751.395670625719
717,751.3668111954381
718,751.3387174155783
719,751.3113325111466
720,751.2846036583977
721,751.2584821672475
722,751.2329237023387
723,751.2078885546051
724,751.1833419705275
725,751.1592545388182
726,751.1356026235776
727,751.1123688224654
728,751.0895424220769
729,751.06711982264
730,751.045104908813
731,751.0235093480172
732,751.0023527989556
733,750.9816630115422
734,750.9614757985662
735,750.9418348624905
736,750.9227914707084
737,750.9044039879096
738,750.8867372872528
739,750.8698620659638
740,750.8538540879498
741,750.8387933733607
742,750.8247633554848
743,750.8118500257679
744,750.8001410852725
745,750.7897251159181
746,750.78069077896
747,750.773126043045
748,750.7671174410241
749,750.7627493528969
750,750.760103310627
751,750.7592573205452
752,750.7602852032447
753,750.7632559588703
754,750.7682331742195
755,750.7752744940184
756,750.7844311805223
757,750.7957477829384
758,750.8092619317118
759,750.825004263869
760,750.8429984761291
761,750.8632614938094
762,750.8858037370884
763,750.9106294636606
764,750.937737167887
765,750.9671200179482
766,750.9987663114623
767,751.0326599273532
768,751.0687807510523
769,751.1071050540028
770,751.1476058156611
771,751.1902529836426
772,751.2350136745699
773,751.2818523256569
774,751.3307308146522
775,751.3816085714766
776,751.4344427074806
777,751.4891881876471
778,751.5457980680136
779,751.6042238169125
780,751.6644157362563
781,751.7263234974265
782,751.7898968015264
783,751.8550861620848
784,751.9218437905498
785,751.990124546013
786,752.0598868953865
787,752.1310938226766
788,752.2037136301124
789,752.2777205894838
790,752.3530954219256
791,752.4298256003176
792,752.5079054776853
793,752.5873362494139
794,752.6681257594512
795,752.7502881630539
796,752.8338434633948
797,752.918816948109
798,753.0052385617188
799,753.0931422535652
800,753.1825653340121
801,753.2735478578987
802,753.3661320402067
803,753.4603616981861
804,753.5562817087148
805,753.6539374717482
806,753.7533743799507
807,753.8546373071173
808,753.9577701400042
809,754.0628153868937
810,754.169813898916
811,754.2788047356221
812,754.3898251959224
813,754.5029110208321
814,754.6180967561372
815,754.7354162440943
816,754.854903200197
817,754.976591829114
818,755.1005174416609
819,755.2267170452253
820,755.3552298869859
821,755.4860979299912
822,755.619366237644
823,755.7550832356184
824,755.8933008154193
825,756.0340742430764
826,756.1774618412666
827,756.3235244243111
828,756.472324481591
829,756.6239251216506
830,756.7783888020981
831,756.9357758787045
832,757.0961430144132
833,757.2595414979604
834,757.4260155302846
835,757.5956005405981
836,757.7683215906699
837,757.9441919160879
838,758.1232116398726
839,758.3053666817483
840,758.490627880312
841,758.6789503459205
842,758.8702730648005
843,759.0645187729571
844,759.261594107947
845,759.4613900290545
846,759.6637824779311
847,759.8686332390783
848,760.0757909566196
849,760.2850922703518
850,760.496363045787
851,760.7094196835477
852,760.924070499059
853,761.1401171653201
854,761.3573562141088
855,761.5755805957822
856,761.7945813012525
857,762.0141490479762
858,762.2340760261716
859,762.454157695804
860,762.6741946201138
861,762.8939943154782
862,763.1133730891834
863,763.3321578290723
864,763.5501877071191
865,763.7673157650348
866,763.9834103599482
867,764.1983564545098
868,764.412056735316
869,764.6244325411384
870,764.8354245846698
871,765.0449934586505
872,765.2531199241103
873,765.4598049811879
874,765.6650697220481
875,765.8689549636332
876,766.0715206586599
877,766.272845088507
878,766.4730238503264
879,766.6721686584349
880,766.8704059826413
881,767.0678755437558
882,767.2647286833915
883,767.4611266248776
884,767.6572386434797
885,767.8532401634684
886,768.0493107956578
887,768.2456323239254
888,768.442386645308
889,768.6397536664014
890,768.8379091591645
891,769.0370225823821
892,769.2372548803694
893,769.4387562753116
894,769.6416640720045
895,769.8461004945714
896,770.0521705754142
897,770.2599601177018
898,770.4695337553135
899,770.6809331407002
900,770.8941753014855
901,771.1092512154729
902,771.3261246550035
903,771.5447313449299
904,771.764978468267
905,771.9867445433798
906,772.2098796873566
907,772.4342062720058
908,772.6595199710041
909,772.8855911879472
910,773.1121668458767
911,773.3389725112731
912,773.5657148195709
913,773.7920841627288
914,774.0177575911687
915,774.2424018744056
916,774.4656766601327
