frame_number,force
0,889.153320011506
1,889.0675833501497
2,888.9821136690753
3,888.8971756203478
4,888.8130292413391
5,888.7299277482115
6,888.6481154418689
7,888.567825752634
8,888.489279443989
9,888.4126829906263
10,888.338227142116
11,888.266085680533
12,888.1964143778415
13,888.1293501562855
14,888.065010452472
15,888.0034927832269
16,887.944874508517
17,887.8892127836796
18,887.8365446900843
19,887.7868875306567
20,887.7402392748124
21,887.6965791366555
22,887.6558682708072
23,887.6180505715748
24,887.583053562497
25,887.5507893640543
26,887.521155727666
27,887.4940371245573
28,887.4693058791901
29,887.4468233387074
30,887.4264410716663
31,887.4080020903997
32,887.3913420912421
33,887.3762907060045
34,887.3626727573187
35,887.3503095103682
36,887.3390199140875
37,887.328621825792
38,887.3189332138336
39,887.3097733328485
40,887.3009638653217
41,887.2923300218214
42,887.2837015911894
43,887.2749139321785
44,887.2658088994312
45,887.2562356983503
46,887.246051664747
47,887.2351229663723
48,887.2233252246659
49,887.2105440559629
50,887.1966755318566
51,887.1816265588424
52,887.1653151779635
53,887.1476707856293
54,887.1286342766999
55,887.1081581104678
56,887.086206299759
57,887.0627543233967
58,887.037788962813
59,887.0113080645012
60,886.9833202307201
61,886.9538444410023
62,886.9229096069372
63,886.8905540633702
64,886.8568250010218
65,886.8217778479009
66,886.7854756087112
67,886.7479881723096
68,886.7093915974386
69,886.6697673866677
70,886.6292017577452
71,886.5877849202595
72,886.5456103637684
73,886.5027741618619
74,886.4593742952488
75,886.4155099957068
76,886.371281111264
77,886.3267874914874
78,886.2821283910283
79,886.2374018902493
80,886.1927043334775
81,886.148129787305
82,886.103769522474
83,886.0597115227803
84,886.0160400232079
85,885.9728350778253
86,885.930172156741
87,885.8881217712092
88,885.8467491267106
89,885.8061138048038
90,885.7662694749878
91,885.727263637665
92,885.6891373989649
93,885.6519252779977
94,885.6156550470015
95,885.5803476048602
96,885.5460168846868
97,885.5126697964554
98,885.4803062058711
99,885.4489189507586
100,885.4184938961273
101,885.3890100284258
102,885.3604395884481
103,885.3327482415671
104,885.3058952838437
105,885.2798338829042
106,885.2545113530188
107,885.2298694644319
108,885.2058447874309
109,885.1823690718462
110,885.1593696627513
111,885.1367699529552
112,885.1144898721705
113,885.0924464114947
114,885.0705541803768
115,885.0487259920494
116,885.0268734729262
117,885.00490769163
118,884.9827398036149
119,884.9602817072387
120,884.9374467066856
121,884.914150176816
122,884.890310225039
123,884.865848345439
124,884.8406900605395
125,884.8147655466179
126,884.788010239455
127,884.7603654181017
128,884.7317787637288
129,884.7022048890876
130,884.6716058325632
131,884.6399515099099
132,884.607220116497
133,884.573398473069
134,884.5384823084485
135,884.5024764729865
136,884.465395076929
137,884.4272615486167
138,884.3881086090811
139,884.347978162181
140,884.3069211023724
141,884.2649970448487
142,884.2222739848218
143,884.1788278939543
144,884.1347422620607
145,884.0901075910655
146,884.045020846373
147,883.9995848689947
148,883.9539077506319
149,883.908102173791
150,883.86228471991
151,883.8165751496555
152,883.7710956602275
153,883.725970124724
154,883.6813233190667
155,883.6372801430025
156,883.5939648429819
157,883.5515002459009
158,883.5100070133627
159,883.4696029257196
160,883.4304022035927
161,883.3925148724849
162,883.3560461742603
163,883.3210960278375
164,883.2877585401993
165,883.2561215676315
166,883.226266326055
167,883.1982670485596
168,883.1721906878333
169,883.1480966611333
170,883.1260366356744
171,883.1060543528415
172,883.0881854905338
173,883.0724575642288
174,883.0588898686306
175,883.0474934622988
176,883.0382711970232
177,883.031217792262
178,883.0263199536405
179,883.0235565339158
180,883.0228987349108
181,883.024310349181
182,883.0277480403489
183,883.0331616610948
184,883.0404946077103
185,883.0496842098592
186,883.0606621537753
187,883.0733549365257
188,883.087684348082
189,883.1035679770928
190,883.1209197358457
191,883.139650399869
192,883.159668157434
193,883.1808791637588
194,883.2031880942453
195,883.2264986908262
196,883.2507142955907
197,883.2757383664099
198,883.3014749703649
199,883.3278292523696
200,883.3547078782027
201,883.382019452644
202,883.4096749141463
203,883.4375879074747
204,883.4656751352926
205,883.4938566890105
206,883.5220563584646
207,883.5502019189793
208,883.5782253928869
209,883.6060632810105
210,883.6336567587349
211,883.6609518317131
212,883.6878994479645
213,883.7144555655583
214,883.7405811774606
215,883.7662422969087
216,883.7914099076288
217,883.8160598833489
218,883.8401728805865
219,883.8637342079245
220,883.8867336742009
221,883.9091654171993
222,883.9310277134459
223,883.9523227689319
224,883.9730564906035
225,883.993238239181
226,884.0128805644684
227,884.0319989242928
228,884.0506113877908
229,884.0687383234027
230,884.0864020718996
231,884.1036266051148
232,884.1204371719842
233,884.1368599350866
234,884.1529216027262
235,884.1686490629503
236,884.1840690261888
237,884.1992076824264
238,884.2140903772992
239,884.22874130988
240,884.243183253675
241,884.2574373015341
242,884.2715226342575
243,884.2854563111665
244,884.2992530790095
245,884.3129251943216
246,884.326482254612
247,884.339931035339
248,884.3532753316235
249,884.3665158053492
250,884.37964983952
251,884.3926714025008
252,884.4055709248495
253,884.4183351907885
254,884.4309472455333
255,884.4433863195338
256,884.455627771508
257,884.4676430535839
258,884.4793997033294
259,884.4908613683739
260,884.5019878693428
261,884.5127353057965
262,884.5230562079832
263,884.5328997350031
264,884.5422119180323
265,884.5509359458915
266,884.5590124895151
267,884.5663800616906
268,884.5729754084238
269,884.5787339280482
270,884.5835901136148
271,884.5874780135078
272,884.590331705122
273,884.5920857769094
274,884.5926758147239
275,884.5920388886926
276,884.5901140368009
277,884.5868427412332
278,884.5821693932783
279,884.5760417420659
280,884.5684113215638
281,884.5592338497692
282,884.5484695947168
283,884.5360837036507
284,884.5220464933301
285,884.5063337000717
286,884.4889266878398
287,884.4698126121391
288,884.4489845371666
289,884.426441503907
290,884.4021885476917
291,884.3762366650892
292,884.3486027315465
293,884.3193093727481
294,884.2883847941409
295,884.255862574287
296,884.2217814283222
297,884.1861849478512
298,884.1491213233596
299,884.110643054896
300,884.0708066563178
301,884.029672357758
302,883.9873038103809
303,883.9437677972918
304,883.8991339545389
305,883.853474506155
306,883.8068640168934
307,883.7593791656333
308,883.7110985413233
309,883.6621024620291
310,883.6124728165075
311,883.5622929269448
312,883.5116474308969
313,883.4606221797967
314,883.4093041505182
315,883.3577813655166
316,883.3061428162285
317,883.2544783839289
318,883.2028787521211
319,883.1514353046841
320,883.1002400044925
321,883.0493852483299
322,882.9989636957393
323,882.9490680717138
324,882.8997909453417
325,882.8512244881805
326,882.8034602166241
327,882.7565887217647
328,882.7106993890269
329,882.665880109187
330,882.6222169825613
331,882.5797940187521
332,882.5386928350296
333,882.4989923570945
334,882.4607685264791
335,882.4240940189457
336,882.3890379778354
337,882.3556657656117
338,882.3240387359399
339,882.2942140275494
340,882.2662443799277
341,882.2401779696448
342,882.2160582648315
343,882.193923894302
344,882.1738085273432
345,882.1557407603422
346,882.1397440070722
347,882.1258363904893
348,882.1140306349536
349,882.1043339586678
350,882.0967479670011
351,882.091268548464
352,882.0878857761542
353,882.086583818091
354,882.0873408600545
355,882.0901290447406
356,882.0949144314699
357,882.1016569812388
358,882.1103105719923
359,882.1208230479833
360,882.1331363049134
361,882.1471864100131
362,882.1629037542406
363,882.1802132327223
364,882.1990344494346
365,882.2192819427546
366,882.2408654296968
367,882.2636900681852
368,882.2876567382966
369,882.3126623445746
370,882.3386001417414
371,882.3653600856419
372,882.3928292108726
373,882.4208920368118
374,882.4494310043048
375,882.4783269451281
376,882.5074595850597
377,882.5367080793084
378,882.5659515771351
379,882.5950698113537
380,882.6239437077029
381,882.6524560080239
382,882.6804918995499
383,882.7079396410098
384,882.7346911753322
385,882.7606427187545
386,882.7856953169764
387,882.8097553601689
388,882.8327350496818
389,882.8545528101149
390,882.8751336414567
391,882.8944094075392
392,882.9123190589247
393,882.9288087900281
394,882.9438321314875
395,882.9573499796654
396,882.969330566083
397,882.9797493706112
398,882.9885889829467
399,882.995838917011
400,883.0014953825449
401,883.005561017582
402,883.0080445850359
403,883.0089606368325
404,883.0083291499982
405,883.0061751403528
406,883.0025282603109
407,882.9974223876484
408,882.9908952118607
409,882.982987823691
410,882.9737443117094
411,882.9632113681726
412,882.951437905371
413,882.9384746832283
414,882.9243739487528
415,882.9091890878904
416,882.8929742902567
417,882.8757842269473
418,882.8576737411935
419,882.8386975513939
420,882.8189099662649
421,882.7983646124907
422,882.7771141761561
423,882.7552101602399
424,882.7327026613949
425,882.7096401700144
426,882.6860693981466
427,882.6620351399984
428,882.6375801691502
429,882.6127451750092
430,882.5875687389779
431,882.5620873491056
432,882.5363354508165
433,882.5103455303826
434,882.4841482270966
435,882.4577724697318
436,882.4312456326476
437,882.4045937065729
438,882.3778414788185
439,882.35101271787
440,882.3241303580137
441,882.2972166805829
442,882.2702934893891
443,882.2433822789507
444,882.21650439534
445,882.1896811907133
446,882.1629341734485
447,882.1362851560041
448,882.1097564024033
449,882.0833707771704
450,882.0571518975806
451,882.0311242908152
452,882.0053135569096
453,881.9797465375048
454,881.9544514893901
455,881.9294582603037
456,881.9047984622227
457,881.8805056348093
458,881.8566153896144
459,881.8331655249108
460,881.8101961018203
461,881.7877494740815
462,881.7658702655611
463,881.7446052911237
464,881.7240034180692
465,881.7041153675605
466,881.6849934582862
467,881.66669129737
468,881.649263425673
469,881.6327649263485
470,881.6172510071157
471,881.6027765680365
472,881.5893957671068
473,881.5771615952606
474,881.5661254702707
475,881.5563368559464
476,881.5478429100551
477,881.5406881626486
478,881.534914226148
479,881.530559538709
480,881.5276591420254
481,881.5262444937852
482,881.5263433141643
483,881.5279794654177
484,881.5311728635589
485,881.5359394209513
486,881.5422910183028
487,881.5502355040293
488,881.5597767182484
489,881.570914538034
490,881.5836449403392
491,881.5979600791803
492,881.6138483741659
493,881.6312946083157
494,881.6502800343694
495,881.6707824903333
496,881.6927765265922
497,881.7162335481925
498,881.7411219765843
499,881.7674074351083
500,881.7950529618621
501,881.8240192523017
502,881.854264931951
503,881.8857468569992
504,881.9184204378216
505,881.9522399782398
506,881.9871590221708
507,882.0231306994506
508,882.0601080635887
509,882.0980444150605
510,882.1368936039443
511,882.1766103057753
512,882.217150265235
513,882.2584705038392
514,882.3005294896944
515,882.3432872693023
516,882.3867055633948
517,882.430747830904
518,882.4753793069734
519,882.5205670216119
520,882.5662798048812
521,882.6124882826892
522,882.6591648649127
523,882.7062837254759
524,882.7538207728172
525,882.8017536090209
526,882.8500614764816
527,882.898725192175
528,882.9477270714968
529,882.9970508458771
530,883.0466815800525
531,883.0966055952506
532,883.1468104037834
533,883.1972846597023
534,883.2480181297815
535,883.2990016888015
536,883.3502273423137
537,883.4016882784402
538,883.4533789475234
539,883.5052951648
540,883.5574342277473
541,883.6097950373235
542,883.6623782112537
543,883.7151861776706
544,883.7682232386093
545,883.8214955948292
546,883.8750113260438
547,883.9287803238985
548,883.9828141788809
549,884.0371260260148
550,884.0917303566521
551,884.1466428044341
552,884.2018799129893
553,884.2574588919902
554,884.313397367405
555,884.369713131153
556,884.426423894267
557,884.4835470457676
558,884.5410994175893
559,884.5990970553947
560,884.6575549960081
561,884.7164870531858
562,884.7759056135704
563,884.8358214442227
564,884.8962435128147
565,884.9571788214797
566,885.0186322546189
567,885.0806064389407
568,885.1431016112914
569,885.206115488501
570,885.2696431349666
571,885.3336768273224
572,885.3982059190561
573,885.4632167096422
574,885.5286923228124
575,885.5946125981789
576,885.6609540003491
577,885.727689549848
578,885.7947887802027
579,885.8622177250902
580,885.9299389383659
581,885.9979115483386
582,886.0660913464554
583,886.134430909881
584,886.2028797571309
585,886.2713845356876
586,886.3398892404998
587,886.408335462774
588,886.4766626694142
589,886.5448085142349
590,886.6127091819218
591,886.6802997646291
592,886.7475146698627
593,886.81428805759
594,886.8805543041782
595,886.946248490143
596,887.0113069076323
597,887.0756675825976
598,887.139270806449
599,887.2020596727831
600,887.2639806158785
601,887.3249839480651
602,887.385024392178
603,887.4440616031998
604,887.5020606706098
605,887.5589925910555
606,887.6148347006884
607,887.6695710578803
608,887.7231927690023
609,887.7756982513972
610,887.8270934285823
611,887.8773918539147
612,887.9266147606519
613,887.9747910377816
614,888.0219571317059
615,888.0681568745049
616,888.1134412406399
617,888.1578680352118
618,888.2015015179034
619,888.2444119680447
620,888.2866751983436
621,888.3283720271331
622,888.3695877202316
623,888.410411413096
624,888.4509355224208
625,888.4912551546256
626,888.5314675172272
627,888.571671337702
628,888.6119662928422
629,888.6524524499221
630,888.6932297195526
631,888.734397319036
632,888.7760532442245
633,888.818293747339
634,888.8612128181445
635,888.904901666312
636,888.9494482032429
637,888.994936521805
638,889.041446372527
639,889.0890526351319
640,889.1378247849733
641,889.1878263553017
642,889.2391143985225
643,889.2917389522298
644,889.3457425180503
645,889.4011595628644
646,889.4580160527362
647,889.5163290298947
648,889.5761062425673
649,889.6373458365416
650,889.7000361162359
651,889.7641553820781
652,889.8296718503045
653,889.8965436606117
654,889.9647189758086
655,890.034136175612
656,890.1047241446489
657,890.1764026531202
658,890.2490828271046
659,890.3226677035809
660,890.3970528631096
661,890.4721271314364
662,890.547773340472
663,890.6238691389117
664,890.7002878425191
665,890.776899313315
666,890.853570855961
667,890.9301681195121
668,891.0065559938901
669,891.0825994920366
670,891.1581646095536
671,891.2331191535045
672,891.3073335317222
673,891.3806814942329
674,891.4530408193436
675,891.524293938228
676,891.594328493064
677,891.66303782463
678,891.7303213858735
679,891.7960850788046
680,891.860241513482
681,891.9227101896743
682,891.9834176034379
683,892.042297282011
684,892.0992897512662
685,892.1543424408137
686,892.207409532428
687,892.2584517572359
688,892.307436146005
689,892.3543357357208
690,892.3991292354885
691,892.4418006558685
692,892.4823389073196
693,892.5207373743466
694,892.5569934717793
695,892.5911081888923
696,892.6230856265264
697,892.6529325320776
698,892.6806578370192
699,892.7062722016345
700,892.7297875721391
701,892.7512167561691
702,892.7705730230218
703,892.787869734633
704,892.8031200123683
705,892.8163364439991
706,892.8275308351233
707,892.8367140095187
708,892.8438956629575
709,892.8490842744778
710,892.852287077918
711,892.8535100946913
712,892.8527582265782
713,892.8500354052306
714,892.8453447936183
715,892.8386890340331
716,892.8300705374634
717,892.8194918099301
718,892.8069558122841
719,892.7924663505171
720,892.7760284934893
721,892.7576490142255
722,892.7373368501137
723,892.7151035766914
724,892.6909638889013
725,892.6649360823026
726,892.6370425248433
727,892.6073101080523
728,892.5757706653833
729,892.5424613447865
730,892.5074249222765
731,892.4707100436802
732,892.4323713830015
733,892.3924697073799
734,892.3510718403421
735,892.308250517571
736,892.264084133071
737,892.2186563777043
738,892.1720557755805
739,892.1243751261756
740,892.0757108615114
741,892.0261623288209
742,891.9758310100414
743,891.9248196901341
744,891.8732315865872
745,891.8211694527048
746,891.7687346674904
747,891.7160263250968
748,891.6631403368692
749,891.6101685588364
750,891.5571979571722
751,891.5043098239232
752,891.4515790552509
753,891.3990735041847
754,891.3468534187834
755,891.2949709744368
756,891.2434699063077
757,891.1923852453714
758,891.1417431594854
759,891.0915608993829
760,891.0418468482222
761,890.9926006723396
762,890.9438135700768
763,890.8954686147681
764,890.8475411867955
765,890.7999994878278
766,890.7528051280987
767,890.7059137754778
768,890.6592758535625
769,890.6128372748786
770,890.5665401941737
771,890.5203237659025
772,890.4741248898697
773,890.4278789299408
774,890.381520392721
775,890.334983555775
776,890.2882030377812
777,890.2411143057843
778,890.193654117664
779,890.1457609012173
780,890.0973750744088
781,890.0484393136584
782,889.998898778169
783,889.9487012983441
784,889.8977975355101
785,889.8461411186265
786,889.7936887618048
787,889.7404003648525
788,889.6862390982237
789,889.6311714735767
790,889.5751674010525
791,889.5182002338986
792,889.4602468001278
793,889.4012874199057
794,889.3413059068826
795,889.280289552059
796,889.2182290897367
797,889.1551186461562
798,889.0909556722908
799,889.0257408629923
800,888.9594780654082
801,888.8921741803517
802,888.82383906095
803,888.7544854130115
804,888.6841287009146
805,888.6127870616826
806,888.5404812288132
807,888.467234466762
808,888.3930725167369
809,888.3180235542909
810,888.2421181587459
811,888.1653892936696
812,888.0878722967188
813,888.0096048766097
814,887.9306271152443
815,887.8509814741401
816,887.7707128053856
817,887.6898683674514
818,887.6084978453448
819,887.5266533735321
820,887.4443895591222
821,887.3617635021179
822,887.2788348092955
823,887.1956655987159
824,887.1123204928124
825,887.0288665987865
826,886.9453734752087
827,886.8619130834471
828,886.7785597226322
829,886.6953899481315
830,886.6124824758693
831,886.529918077
832,886.4477794680568
833,886.3661512005497
834,886.2851195517918
835,886.2047724162956
836,886.1251991950796
837,886.0464906792163
838,885.9687389240397
839,885.8920371111891
840,885.8164793963547
841,885.7421607408962
842,885.6691767254381
843,885.5976233433879
844,885.5275967723417
845,885.459193121641
846,885.392508154942
847,885.3276369875581
848,885.2646737596103
849,885.2037112874227
850,885.1448406967628
851,885.088151042643
852,885.0337289219643
853,884.9816580871149
854,884.9320190697987
855,884.8848888241565
856,884.8403403968516
857,884.798442630099
858,884.759259902248
859,884.7228519097542
860,884.6892734943957
861,884.6585745201988
862,884.6307998047333
863,884.6059891081628
864,884.5841771808583
865,884.5653938675837
866,884.549664264162
867,884.5370089212863
868,884.5274440895713
869,884.5209819997715
870,884.5176311719221
871,884.5173967466551
872,884.5202808311969
873,884.5262828520922
874,884.5353999068769
875,884.5476271073871
876,884.562957907493
877,884.5813844077973
878,884.6028976301244
879,884.6274877562003
880,884.6551443274985
881,884.685856405589
882,884.7196126934832
883,884.7564016185287
884,884.7962113770728
885,884.839029941061
886,884.8848450271888
887,884.9336440301337
888,884.9854139225558
889,885.0401411258139
890,885.0978113565161
891,885.1584094550718
892,885.2219192032555
893,885.2883231383656
894,885.3576023718284
895,885.4297364203487
896,885.5047030581057
897,885.582478198618
898,885.6630358140096
899,885.7463478972783
900,885.8323844704333
901,885.9211136391758
902,886.0125016938556
903,886.1065132563059
904,886.2031114718023
905,886.3022582443197
906,886.4039145117171
907,886.508040556003
908,886.6145963427958
909,886.7235418836102
910,886.8348376143362
911,886.9484447829068
912,887.0643258387342
913,887.1824448164609
914,887.3027677071689
915,887.4252628111096
916,887.5499010665515
917,887.6766563491254
918,887.8055057355311
