acceleration,velocity,displacement
0.016314238194804133,0.0,0.0
0.015081837195174017,7.849018847494538e-06,1.9622547118736344e-09
0.013862907262895742,1.5085204962011978e-05,7.695810664250264e-09
0.012670436221860381,2.171854083320101e-05,1.6896747113053512e-08
0.011516471534785076,2.776526777236237e-05,2.9267699264444356e-08
0.010411712165686472,3.324731369748026e-05,4.452084463190501e-08
0.009365166632293396,3.8191533396975224e-05,6.238055640551889e-08
0.008383888467735526,4.2628797171982457e-05,8.258563904775831e-08
0.007472795968178773,4.659296828096103e-05,1.0489108041099419e-07
0.006634580490288407,5.0119812395577824e-05,1.290692755801289e-07
0.00586970495322007,5.324588375645494e-05,1.5491069961813709e-07
0.0051764902869849755,5.60074325665062e-05,1.8222402869887738e-07
0.004551283062008923,5.843937590375468e-05,2.108357308164426e-07
0.003988694497514256,6.057437029363547e-05,2.4058916736579013e-07
0.0034819005786183724,6.244201906266862e-05,2.7134326470486617e-07
0.0030229932102711333,6.4068242509891e-05,3.0297083009800607e-07
0.002603369508470407,6.547483318957639e-05,3.353565990228729e-07
0.0022141394867339526,6.667921043837747e-05,3.6839510992986137e-07
0.0018465255221797852,6.76943766906059e-05,4.019885067121072e-07
0.0014922254412780625,6.852906443147037e-05,4.360443669926263e-07
0.0011437164410250458,6.918804990204615e-05,4.704736455760054e-07
0.0007944865689607028,6.967260065454259e-05,5.051888082151526e-07
0.00043919052303621243,6.998101992754181e-05,5.401022133606737e-07
7.373510265710253e-05,7.010925133396514e-05,5.751247811760505e-07
-0.00030469445341668706,7.005151149627525e-05,6.101649718836106e-07
-0.0006976539287973138,6.980092440072176e-05,6.451280808578598e-07
-0.0011054938712240468,6.935013745071642e-05,6.799158463207193e-07
-0.0015274400089928788,6.869190398066219e-05,7.14426356678564e-07
-0.0019616962660069233,6.781961991191223e-05,7.485542376517076e-07
-0.0024055676319698215,6.672780393741805e-05,7.821910936140402e-07
-0.002855598929222849,6.541251229711988e-05,8.152261726726747e-07
-0.003307723034104146,6.387168180628813e-05,8.475472211985268e-07
-0.0037574104559541435,6.210539843377355e-05,8.790414912585422e-07
-0.004199812513539223,6.011609269140021e-05,9.095968640398356e-07
-0.0046298922608816965,5.790866649779498e-05,9.391030538371344e-07
-0.005042539888788198,5.54905584603775e-05,9.674528600766776e-07
-0.005432671733359591,5.287175555484056e-05,9.94543438580482e-07
-0.00579531342679673,5.0064759264801476e-05,1.0202775672853925e-06
-0.0061256680533121124,4.708451389477427e-05,1.0445648855752865e-06
-0.00641917038459283,4.394830428529803e-05,1.0673230901203046e-06
-0.006671529075234826,4.0675629420341116e-05,1.0884790735467143e-06
-0.00687875975809041,3.728805721200981e-05,1.1079699952048021e-06
-0.007037212664439545,3.380906410637732e-05,1.1257442755343989e-06
-0.007143598777038722,3.0263861246007753e-05,1.1417625068724951e-06
-0.007195019299057272,2.6679206726983754e-05,1.155998273865743e-06
-0.007189004398473942,2.308320080260095e-05,1.1684388757481393e-06
-0.007123567414660165,1.9505057849317422e-05,1.179085940411119e-06
-0.006997278887077273,1.5974846273883063e-05,1.1879559164419192e-06
-0.00680936148908499,1.2523186179842497e-05,1.1950804245553505e-06
-0.006559803341882099,9.180894972100725e-06,1.2005064448433363e-06
-0.006249483540882307,5.978573251409624e-06,1.204296311899214e-06
-0.005880300386657266,2.9461272695247303e-06,1.2065274870294474e-06
-0.005455291049382307,1.1222941051483692e-07,1.2072920761994573e-06
-0.004978732330470203,-2.496276434448291e-06,1.206696064443474e-06
-0.004456215123398415,-4.855013297915446e-06,1.204858242010383e-06
-0.003894687829024886,-6.942739036021271e-06,1.2019088039268988e-06
-0.003302464710498796,-8.742027170902191e-06,1.197987612375168e-06
-0.002689194456241884,-1.0239941962587361e-05,1.1932421200917957e-06
-0.0020657836171867573,-1.1428686480944521e-05,1.1878249629809127e-06
-0.0014442702332539393,-1.2306199943554694e-05,1.1818912413747879e-06
-0.0008376451588840581,-1.2876678791589194e-05,1.1755955216910018e-06
-0.00025962156379341107,-1.315099547225856e-05,1.1690886031250399e-06
0.00027564465391732065,-1.3146989699727583e-05,1.1625141068320432e-06
0.0007538798944088095,-1.2889608562646051e-05,1.1560049572664498e-06
0.0011610592809014654,-1.2410873768818482e-05,1.1496798366835836e-06
0.0014838090536092538,-1.1749656685190802e-05,1.1436397040700814e-06
0.001709835644468297,-1.0951245510671415e-05,1.137964478521116e-06
0.0018283655834068328,-1.0066695203702633e-05,1.1327099933425225e-06
0.0018305735225305775,-9.15196042721828e-06,1.1279053294347922e-06
0.0017099720198818329,-8.266824041615178e-06,1.1235506333175839e-06
0.0014627375525753802,-7.473646648500876e-06,1.1196155156450549e-06
0.0010879510154583071,-6.835974506492454e-06,1.1160381103563065e-06
0.0005877360011729756,-6.4170527523346336e-06,1.1127248535415996e-06
-3.271594102229469e-05,-6.278297737296963e-06,1.1095510159191917e-06
-0.0007652368881003049,-6.477785944577613e-06,1.106361994998723e-06
-0.0015988868381829984,-7.068816876148439e-06,1.1029753442935416e-06
-0.002520258515126171,-8.09860321447573e-06,1.0991834892708855e-06
-0.003513863740019511,-9.607133778262151e-06,1.094757055022701e-06
-0.004562578288692778,-1.1626244285440223e-05,1.0894487105067753e-06
-0.005648120960444091,-1.417891909772444e-05,1.0829974196609842e-06
-0.006751543845686831,-1.727883529925717e-05,1.0751329810617387e-06
-0.007853713655794958,-2.093014967462762e-05,1.0655807348182675e-06
-0.008935767515944137,-2.5127519967562393e-05,1.05406631740772e-06
-0.009979530174682519,-2.9856344390219057e-05,1.0403203513182746e-06
-0.010967883389844888,-3.509319778135091e-05,1.024082965775382e-06
-0.011885082809836547,-4.080643933127127e-05,1.0051080564972265e-06
-0.012717022126917391,-4.695696556545975e-05,9.831672052730437e-07
-0.0134514466398129,-5.349908275714232e-05,9.580531931923933e-07
-0.014078117875935065,-6.0381473886079313e-05,9.295830540315879e-07
-0.014588928993169334,-6.754823560335541e-05,8.976006266592292e-07
-0.014977969203496828,-7.493996015252195e-05,8.619785777202598e-07
-0.015241535647141681,-8.249483636518158e-05,8.226198785908339e-07
-0.015378093655969148,-9.014974369095929e-05,7.794587335767988e-07
-0.015388190552325117,-9.784131474303285e-05,7.324609689683007e-07
-0.015274331407394011,-0.00010550694523296264,6.816239039743018e-07
-0.015040825050321456,-0.00011308573434739151,6.269757340792133e-07
-0.014693605885112999,-0.00012051934208125013,5.685744649720528e-07
-0.014240035292701453,-0.00012775275237570375,5.065064413578144e-07
-0.013688687761419193,-0.00013473493313923392,4.4088451997907993e-07
-0.01304912968961663,-0.00014141938750199286,3.7184593981877325e-07
-0.01233169979744014,-0.00014776459487375707,2.9954994422483575e-07
-0.011547298628239099,-0.00015373434448017688,2.2417520938635227e-07
-0.010707192762031439,-0.00015929796732774452,1.4591713143437194e-07
-0.009822838222944552,-0.00016443047507398853,6.498502083393867e-08
-0.00890572605459514,-0.00016911261614337345,-1.8400751970401818e-08
-0.007967250480853276,-0.00017333086027723557,-1.0401162107555408e-07
-0.007018597784429348,-0.0001770773223435562,-1.9161366673075202e-07
-0.006070653379310003,-0.00018034963513449104,-2.809704061002638e-07
-0.0051339247609836595,-0.00018315077966956446,-3.718455098012777e-07
-0.004218477262814918,-0.0001854888801755141,-4.6400542476254735e-07
-0.0033338775221106822,-0.0001873769688717455,-5.572218870243623e-07
-0.0024891378247985057,-0.0001888327227084728,-6.512743099194169e-07
-0.0016926546445817322,-0.00018987817082581786,-7.459520333029895e-07
-0.0009521371185176794,-0.00019053936876659271,-8.410564182010922e-07
-0.0002745251222443299,-0.00019084603432678322,-9.364027689744362e-07
0.00033409963018218354,-0.00019083114069979877,-1.0318220627310815e-06
0.0008686041194285356,-0.00019053046476239608,-1.1271624640966303e-06
0.0013248910942872285,-0.00018998209095896714,-1.222290603026971e-06
0.0016999786877563647,-0.00018922587351345623,-1.317092594145077e-06
0.0019920691028650385,-0.00018830286156580088,-1.4114747779148911e-06
0.00220060261823079,-0.00018725469363552693,-1.505364166715223e-06
0.0023262926076646376,-0.00018612296982905308,-1.598708582581368e-06
0.002371137052497244,-0.00018494861241401261,-1.6914764781421345e-06
0.0023384026529755316,-0.00018377122748764442,-1.7836564381175488e-06
0.002232578952512617,-0.00018262848208627238,-1.875256365511028e-06
0.0020593011334279995,-0.0001815555120647872,-1.9663023640487927e-06
0.0018252411430840691,-0.00018058437649565918,-2.0568373361889043e-06
0.001537968104937715,-0.00017974357418365372,-2.1469193238587326e-06
0.0012057808647706568,-0.00017905763694122664,-2.2366196266399526e-06
0.0008375178483513096,-0.00017854681226294616,-2.326020738940996e-06
0.00044235197328513533,-0.00017822684480753705,-2.4152141532086168e-06
2.9581071737770553e-05,-0.00017810886154628132,-2.5042980797970714e-06
-0.00039157337803947357,-0.00017819935962285675,-2.5933751350893558e-06
-0.0008121458489869503,-0.00017850028942961336,-2.6825500473524734e-06
-0.0012235737414128033,-0.0001790092193272133,-2.77192742454168e-06
-0.00161780548693395,-0.0001797195641343,-2.8616096204070586e-06
-0.001987368654368584,-0.00018062085766962563,-2.95169472585804e-06
-0.002325401584217053,-0.00018169905022927203,-3.0422747028327643e-06
-0.002625656374139035,-0.00018293681471886106,-3.1334336690697976e-06
-0.0028824846269681556,-0.00018431384996913785,-3.2252463352417975e-06
-0.0030908190349996064,-0.0001858071758846298,-3.3177765917052393e-06
-0.0032461625476297436,-0.00018739142128028713,-3.4110762409964687e-06
-0.0033445927109302946,-0.00018903911009492713,-3.505183873840272e-06
-0.0033827830200391868,-0.0001907209540276695,-3.600123889870921e-06
-0.0033580374536258954,-0.00019240615914608577,-3.69590566816436e-06
-0.003268330677335765,-0.00019406275117882617,-3.792522895745588e-06
-0.003112346107857386,-0.00019565792037512446,-3.889953063634076e-06
-0.002889506527057955,-0.0001971583835338533,-3.9881571396113205e-06
-0.002599994777972384,-0.00019853075886011088,-4.087079425209811e-06
-0.0022447631093538045,-0.00019974194833194243,-4.186647602007824e-06
-0.0018255289049455303,-0.00020075952133551727,-4.2867729694246895e-06
-0.0013447536378044583,-0.00020155209197120477,-4.38735087275137e-06
-0.0008056026476301572,-0.00020208968104256343,-4.488261316004812e-06
-0.000211885626094465,-0.00020234405311099458,-4.589369749543201e-06
0.0004320200500844328,-0.0002022890195049971,-4.690528017697199e-06
0.0011212597148220478,-0.00020190069956377047,-4.791575447464391e-06
0.0018506011760029513,-0.0002011577343410642,-4.8923400559406e-06
0.0026145380614368396,-0.00020004144953170426,-4.992639851908793e-06
0.0034073896545838075,-0.0001985359676026991,-5.092284206192393e-06
0.004223390605117542,-0.00019662827253777375,-5.191075266227511e-06
0.00505676679965987,-0.0001943082331865794,-5.2888093926586e-06
0.00590179743396581,-0.00019156859212817297,-5.385278598987288e-06
0.006752865779555986,-0.00018840492632479251,-5.480271978600529e-06
0.0076045018226950385,-0.00018481558442422975,-5.573577106287785e-06
0.008451419854212697,-0.00018080160400500283,-5.664981403395093e-06
0.009288553829625975,-0.00017636661058404316,-5.754273457042354e-06
0.010111092852666639,-0.00017151669891347002,-5.841244284416732e-06
0.010914518580388517,-0.00016626029605520623,-5.925688533158901e-06
0.011694645806985178,-0.0001606080049583628,-6.007405608412294e-06
0.012447666349164646,-0.00015457242691932537,-6.086200716381715e-06
0.01317019416355195,-0.00014816796179114623,-6.1618858135593335e-06
0.013859307537397204,-0.00014141058636590894,-6.234280450598597e-06
0.014512584138658604,-0.000134317613446895,-6.303212500551798e-06
0.015128126871187371,-0.0001269074356944335,-6.3685187628371305e-06
0.01570458089314927,-0.00011919925875334934,-6.430045436449076e-06
0.016241142900013498,-0.00011121282780505865,-6.487648458088678e-06
0.01673756269461709,-0.000102968151406401,-6.541193702891543e-06
0.017194135575723395,-9.448522683881588e-05,-6.590557047452847e-06
0.017611683753199204,-8.578377200658523e-05,-6.635624297164197e-06
0.01799152615502202,-7.688296952952993e-05,-6.6762909825482264e-06
0.018335437466739435,-6.780122862408956e-05,-6.712462032086631e-06
0.01864559775537841,-5.85559698185601e-05,-6.744051331697294e-06
0.018924533474476864,-4.916343701109628e-05,-6.770981183404708e-06
0.019175049906557683,-3.963854116583764e-05,-6.793181677948942e-06
0.019400155151286427,-2.9994739901376615e-05,-6.810589998215745e-06
0.019602977324376596,-2.024395678246086e-05,-6.823149672386705e-06
0.019786679879734266,-1.0396542481433144e-05,-6.830809797202679e-06
0.019954383859252762,-4.612765466863851e-07,-6.8335242519597085e-06
0.02010910806488113,9.554596434347087e-06,-6.831250921987793e-06
0.020253736553383306,1.9645307588913194e-05,-6.8239509459819785e-06
0.020391017539767874,2.980649611220099e-05,-6.8115879950567e-06
0.020523591032097128,4.003514825516724e-05,-6.794127583964858e-06
0.020654037139717495,5.03295552981209e-05,-6.7715364080765364e-06
0.020784934736855783,6.068929826726422e-05,-6.74378169468519e-06
0.020918920770114657,7.111526214400683e-05,-6.710830554582372e-06
0.02105874202144898,8.160967784189773e-05,-6.672649319585896e-06
0.021207291788791847,9.217618629445793e-05,-6.629202853551807e-06
0.021367623942524994,0.00010281991522728715,-6.5804538281713714e-06
0.021542938056204827,0.00011354755572696961,-6.5263619604328075e-06
0.021736533048708366,0.0001243674235031979,-6.466883215625266e-06
0.02195173176883841,0.0001352894897075846,-6.401968987322571e-06
0.02219178258746475,0.0001463253682966604,-6.331565272821509e-06
0.022459745321260126,0.00015748825027384162,-6.255611868178883e-06
0.02275836884965164,0.00016879277881656955,-6.174041610906281e-06
0.0230899677063207,0.00018025486295556264,-6.086779700463248e-06
0.023456304679363847,0.0001918914310519838,-5.993743126961361e-06
0.023858485753542578,0.0002037201286602104,-5.894840237033312e-06
0.024296872769646243,0.0002157589682910076,-5.789970462795507e-06
0.02477101839724634,0.00022802594108273076,-5.679024235452073e-06
0.025279627341752493,0.00024053860251748045,-5.56188309955202e-06
0.0258205462350725,0.0002533136459116867,-5.438420037444728e-06
0.02639078187447401,0.00026636647793907333,-5.308500006482038e-06
0.02698654444941682,0.00027971080952004607,-5.171980684617259e-06
0.027603310663930406,0.00029335827329838286,-5.028713413912652e-06
0.02823590147782249,0.0003073180763338211,-4.8785443265046004e-06
0.028878569979831667,0.00032159669419823465,-4.721315633871586e-06
0.02952509636842658,0.00033619761078529923,-4.556867057625703e-06
0.030168888764644936,0.0003511211070685671,-4.385037378162237e-06
0.030803089945079354,0.0003663641017459982,-4.205666075958596e-06
0.03142069106257962,0.00038192004699791294,-4.018595038772618e-06
0.03201465448646535,0.0003977788833851742,-3.823670306176846e-06
0.032578048356041785,0.000413927059095801,-3.6207438205566023e-06
0.03310419373482354,0.0004303476196185173,-3.409675150878023e-06
0.03358682137631142,0.00044702037339630103,-3.1903331526243185e-06
0.03402023122432264,0.00046392213654645954,-2.9625975251386284e-06
0.03439944588188439,0.0004810270558230113,-2.726360227046261e-06
0.03472034945354179,0.0004983070046568678,-2.481526711926291e-06
0.034979804117169895,0.0005157320430495457,-2.228016949999688e-06
0.03517573757420454,0.0005332709284723893,-1.965766207119204e-06
0.03530719539655999,0.0005508916617150805,-1.6947255595723365e-06
0.035374353642256696,0.0005685620489747846,-1.4148621318998702e-06
0.03537848839298321,0.0005862502594835946,-1.1261590547852754e-06
0.03532189975061613,0.0006039253565194944,-8.286151507845031e-07
0.03520778968653045,0.000621557778878781,-5.222443669349343e-07
0.035040097449644994,0.0006391197506628249,-2.0707498454953278e-07
0.03482330223796564,0.0006565856005847276,1.1685135326235535e-07
0.03456220802862283,0.0006739319781513747,4.4948074794638095e-07
0.034261727947080343,0.0006911379621453005,7.907482330205497e-07
0.03392668505283606,0.0007081850653952795,1.1405789899056947e-06
0.03356164337880753,0.0007250571475031904,1.4988895431303122e-06
0.03317077798227752,0.0007417402528434617,1.8655888932169754e-06
0.03275778682475013,0.0007582223940452187,2.2405795549391456e-06
0.032325842335758824,0.0007744933013353459,2.6237584787842866e-06
0.03187757739745999,0.0007905441562686506,3.0150178431852855e-06
0.031415098715073496,0.000806367325296784,3.4142457135766443e-06
0.030940019981092616,0.0008219561049708255,3.821326571143547e-06
0.030453508480328354,0.0008373044870861807,4.236141719157798e-06
0.029956341450625014,0.000852406949568919,4.658569578321573e-06
0.02944897104649399,0.0008672582776931988,5.0884858851371025e-06
0.028931597930708843,0.0008818534199374995,5.525763809544777e-06
0.02840425335294379,0.0008961873827584126,5.9702740102187545e-06
0.027866888884058246,0.0009102551683176632,6.421884647987774e-06
0.027319472280888952,0.0009240517586089,6.880461379719414e-06
0.02676208690739757,0.0009375721484059717,7.345867356473132e-06
0.026195030364707456,0.0009508114277239979,7.817963250505624e-06
0.025618905972534706,0.0009637649118083084,8.296607335388701e-06
0.025034699569566596,0.0009764283131938337,8.781655641639236e-06
0.024443834733185395,0.0009887979467695217,9.272962206630074e-06
0.0238482020701347,0.0010008709559703518,9.770379432315043e-06
0.023250161557535145,0.0010126455468772693,1.0273758558026949e-05
0.02265251945296397,0.0010241212171298942,1.078295024902874e-05
0.022058482316856826,0.0010352989675723493,1.12978052952043e-05
0.02147159068370093,0.0010461814858224888,1.181817540855301e-05
0.020895635040210817,0.0010567732922534667,1.2343914103072e-05
0.020334557869106408,0.001067080840480796,1.2874877636255564e-05
0.01979234724996543,0.0010771125667605641,1.3410925988065904e-05
0.019272928699087033,0.0010868788857478272,1.3951923851193001e-05
0.01878006208829465,0.0010963921334446727,1.4497741605991125e-05
0.018317250058601176,0.0011056664614813967,1.5048256254722642e-05
0.01788766343933038,0.0011147176898558795,1.5603352292556963e-05
0.017494087494586148,0.0011235631275893587,1.6162922496918273e-05
0.01713889058937654,0.0011322213721103494,1.67268686218432e-05
0.016824014514855483,0.0011407120983864074,1.729510198946739e-05
0.016550983292368107,0.0011490558478382132,1.7867543976023545e-05
0.016320925027504853,0.0011572738249181814,1.8444126394212643e-05
0.01613459972881795,0.001165387706107262,1.9024791776969004e-05
0.015992424968467766,0.0011734194622815834,1.9609493569066214e-05
0.015894490986434025,0.0011813911912703088,2.0198196232454187e-05
0.01584055815976182,0.0011893249535568577,2.0790875268660978e-05
0.01583003295919821,0.0011972426013365978,2.138751715738434e-05
0.015861922093758994,0.001205165590099837,2.1988119205243448e-05
0.015934766685628217,0.001213114762294684,2.259268929334208e-05
0.016046559258485762,0.0012211100937807124,2.3201245507360928e-05
0.016194648005524066,0.0012291703955967148,2.3813815629705286e-05
0.01637563635049529,0.0012373129666857197,2.4430436470275895e-05
0.016585289974892288,0.0012455531982670665,2.505115301151409e-05
0.016818465701317127,0.001253904137186119,2.567601734537739e-05
0.01706907562331179,0.0012623760225172762,2.6305087385303237e-05
0.017330096751721355,0.0012709758156110346,2.6938425344835313e-05
0.01759363284098692,0.0012797067480092117,2.7576095985740374e-05
0.017851031226416254,0.0012885679140260625,2.821816465124919e-05
0.018093053132813106,0.0012975539351158698,2.8864695113534675e-05
0.018310091537162353,0.0013066547212833637,2.9515747277634484e-05
0.018492427029978848,0.001315855350925149,3.0171374795686612e-05
0.018630509341097633,0.0013251360850179182,3.083162265467238e-05
0.018715250338407843,0.0013344725249377946,3.149652480716131e-05
0.018738313448466083,0.001343835915884513,3.216610191736688e-05
0.0186923841715026,0.0013531935902895051,3.284035929391039e-05
