frame_number,force
0,579.8603500000359
1,580.2492083164622
2,580.6197960377282
3,580.95528219609
4,581.2415809779876
5,581.4683830212804
6,581.6297980136208
7,581.724564007768
8,581.7558581499978
9,581.7307897913292
10,581.6596570816218
11,581.5550225557904
12,581.4306470388015
13,581.3003347188195
14,581.1767750263132
15,581.0704911163901
16,580.9890004502934
17,580.9362641225462
18,580.9124702732252
19,580.9141762941786
20,580.9348116861705
21,580.9655024501968
22,580.9961288377497
23,581.0164951759853
24,581.0174823940414
25,580.9920629955617
26,580.9360750747499
27,580.8486723956768
28,580.7323947225456
29,580.5928453198691
30,580.438020747258
31,580.2773927602799
32,580.1208721132588
33,579.9777864648012
34,579.8559896935058
35,579.76119415886
36,579.6965779646192
37,579.6626661004435
38,579.6574382093844
39,579.6766079473732
40,579.7140490295634
41,579.762367152453
42,579.8135984539471
43,579.85997030311
44,579.8946318064411
45,579.9122623914743
46,579.9094787959781
47,579.8849792594899
48,579.8394056341036
49,579.7749678141887
50,579.6949273066849
51,579.6030492088314
52,579.5031087138678
53,579.3985068220569
54,579.2920306605316
55,579.1857821339995
56,579.0812745299564
57,578.9796531003218
58,578.8819543796692
59,578.7893115918032
60,578.7030469129712
61,578.624641053201
62,578.555605007111
63,578.4972851194468
64,578.4506249865261
65,578.4159123096279
66,578.3925623338223
67,578.3790071748077
68,578.3727473421707
69,578.3705854581381
70,578.3690259632301
71,578.364796393646
72,578.355420197034
73,578.3397460730653
74,578.3183211848731
75,578.2935009360804
76,578.2692309379348
77,578.2505110997489
78,578.2426303110042
79,578.2503168223932
80,578.2769693468765
81,578.3241091535826
82,578.3911300511616
83,578.4753477343633
84,578.5722905806417
85,578.6761408037779
86,578.7802286239978
87,578.8775053028156
88,578.9609670068558
89,579.0240461589631
90,579.0610038723764
91,579.0673394055565
92,579.0401976117445
93,578.9787296788596
94,578.8843566941963
95,578.7608869494264
96,578.6144350991048
97,578.4530953549798
98,578.2863505296427
99,578.1242533260123
100,577.9764734212936
101,577.8513400970113
102,577.7550172607446
103,577.6909317825392
104,577.6595445632374
105,577.6585046699112
106,577.6831571188492
107,577.7273003874291
108,577.7840428559696
109,577.8466074639525
110,577.9089717382154
111,577.966284352035
112,578.0150536502321
113,578.0531485176904
114,578.0796782290789
115,578.0948183880654
116,578.0996277030983
117,578.095868287028
118,578.0858165684613
119,578.0720485331699
120,578.0572070599846
121,578.0437878487627
122,578.0339783588577
123,578.029550431921
124,578.0317829022207
125,578.0414023285663
126,578.0585546462635
127,578.0828225234594
128,578.1132811258918
129,578.1485646202232
130,578.1869216761137
131,578.2262749357676
132,578.2643387571637
133,578.2988480930418
134,578.3278983654253
135,578.350329059985
136,578.3660474528464
137,578.3761965973503
138,578.3831073907701
139,578.3900176230806
140,578.4005843281774
141,578.4182617390239
142,578.4456583558658
143,578.4840041419208
144,578.5328396818654
145,578.5899873522143
146,578.65180056066
147,578.7136364311386
148,578.770471582402
149,578.8175736473935
150,578.8511446272332
151,578.8688642591422
152,578.8702789047219
153,578.8569947280686
154,578.8326398025068
155,578.8025718140871
156,578.7733433619223
157,578.7519915485207
158,578.7452663397929
159,578.7589259392716
160,578.7971960080508
161,578.8624251315844
162,578.9549076486297
163,579.0728265384945
164,579.2122999635749
165,579.3675566153773
166,579.5312710814787
167,579.6950564210631
168,579.8500726682759
169,579.9876952698012
170,580.1001909843884
171,580.1813512199624
172,580.227025908166
173,580.2354944440231
174,580.2076221735437
175,580.1467841080129
176,580.0585719207197
177,579.9503204020307
178,579.8305006149022
179,579.708038212256
180,579.5916263738395
181,579.4891050645522
182,579.4069627761058
183,579.3499880055634
184,579.3210736082162
185,579.3211667078888
186,579.3493516718249
187,579.403048607366
188,579.4783085198042
189,579.5701846842269
190,579.6731505846325
191,579.7815258805173
192,579.8898766520492
193,579.9933710728352
194,580.0880821626417
195,580.1712300158922
196,580.2413530114245
197,580.298397225156
198,580.3437138622098
199,580.3799497797561
200,580.4108077470661
201,580.4406556558157
202,580.4739926479668
203,580.514833105797
204,580.5661214193867
205,580.6293053728785
206,580.704155873105
207,580.7888464309841
208,580.880240652851
209,580.9743079274394
210,581.0665930551642
211,581.1526836460721
212,581.2286295480309
213,581.2912661864295
214,581.3383950789297
215,581.3688010408246
216,581.3821324402143
217,581.3787101896954
218,581.3593420015065
219,581.3251991734908
220,581.2777706826025
221,581.2188582389083
222,581.1505433264
223,581.075066648957
224,580.9946079964145
225,580.9110116960301
226,580.8255403824079
227,580.7387431882975
228,580.6504921749375
229,580.5601837665025
230,580.4670462914877
231,580.3704712157463
232,580.2703023904918
233,580.1670487197405
234,580.0619999613019
235,579.957221357902
236,579.8554032734667
237,579.7595666099038
238,579.6726738894841
239,579.5972435998872
240,579.5350729284146
241,579.4871293918618
242,579.4536052187988
243,579.4340798516067
244,579.4277222447886
245,579.4334763733146
246,579.4501942441617
247,579.4767020979642
248,579.5118033493067
249,579.5542324857059
250,579.6025785235876
251,579.6551990713083
252,579.7101484832745
253,579.7651447963697
254,579.8175966357963
255,579.8646989957118
256,579.9035877770308
257,579.9315263875916
258,579.946090400886
259,579.9453200257303
260,579.9278270398827
261,579.8928699818518
262,579.840434203865
263,579.771353978083
264,579.6874834821649
265,579.5918732473261
266,579.4888703521041
267,579.3840585720346
268,579.2839807464079
269,579.1956232962395
270,579.1256941592276
271,579.0797882956855
272,579.0615824983116
273,579.0722096829329
274,579.1099359728884
275,579.170216631599
276,579.246147189964
277,579.3292607005809
278,579.4105636909954
279,579.4816663563007
280,579.5358528592477
281,579.5689489591964
282,579.5798696376867
283,579.570772421779
284,579.5468021514716
285,579.5154709270058
286,579.4857546888747
287,579.4670090327949
288,579.4678217575697
289,579.4949258089949
290,579.5522913989456
291,579.6405091560546
292,579.7565658763963
293,579.894078308203
294,580.0439774388625
295,580.1955517783178
296,580.3376988769418
297,580.4602093391995
298,580.554908343223
299,580.6165041273628
300,580.6430419325268
301,580.6359254829237
302,580.5995285225183
303,580.5404619737577
304,580.4665887883293
305,580.3859066550012
306,580.3054588733871
307,580.2304621753444
308,580.1638187572855
309,580.1061001926139
310,580.0559827004357
311,580.0110136595799
312,579.9685247575796
313,579.9264931887099
314,579.8841883295885
315,579.8425081770225
316,579.8039816332083
317,579.7724697721031
318,579.7526324646794
319,579.7492375153446
320,579.7663875574921
321,579.80674132717
322,579.8708212984195
323,579.9565177576851
324,580.0588967968004
325,580.1703877239669
326,580.2813687799268
327,580.381096979049
328,580.4588621292728
329,580.5052162482707
330,580.5131322341522
331,580.4789441181235
332,580.4029098304134
333,580.2892579632771
334,580.1456643970952
335,579.9822298911523
336,579.8101403904947
337,579.6402471936653
338,579.4817991552372
339,579.3415103924175
340,579.2230714487013
341,579.1271259550235
342,579.0516596729445
343,578.9926991257279
344,578.9451939355713
345,578.9039566685574
346,578.864548570482
347,578.8240131053826
348,578.781362488394
349,578.7377306220042
350,578.6961472527773
351,578.6609706018388
352,578.6371072208209
353,578.6291970313714
354,578.6409209247133
355,578.6745151507054
356,578.7304966809202
357,578.8075597115854
358,578.902609240716
359,579.0109314466905
360,579.1265258671933
361,579.2426167537791
362,579.3523190286637
363,579.4493775966803
364,579.5288583551809
365,579.5876665263708
366,579.6247999679613
367,579.6412979042293
368,579.6399105565125
369,579.6245778747254
370,579.599837620665
371,579.5702689988376
372,579.540034587004
373,579.5125401161397
374,579.4902095184822
375,579.4743772197166
376,579.465313846939
377,579.4623962507872
378,579.4644012693414
379,579.4698660504001
380,579.4774357964843
381,579.4861218396926
382,579.495425509588
383,579.5053392451692
384,579.5162855030906
385,579.5290632520278
386,579.5448354736196
387,579.5651341030464
388,579.5918167161626
389,579.6269096279611
390,579.6723200357507
391,579.7294665088125
392,579.7989178518623
393,579.8801283680426
394,579.9713342397193
395,580.0696511390183
396,580.1713800458858
397,580.2724782468127
398,580.369103442637
399,580.4581175630485
400,580.5374512480316
401,580.6062704973662
402,580.6649391104131
403,580.7148161650706
404,580.7579480278447
405,580.7967048432059
406,580.8333919190532
407,580.8698619891138
408,580.9071687337769
409,580.9453192406211
410,580.9831841970365
411,581.0185964278825
412,581.0486172588937
413,581.0699086257399
414,581.0791450949514
415,581.0734217898931
416,581.0506276163978
417,581.00975212682
418,580.9511018888782
419,580.8764244300885
420,580.7889501650095
421,580.693346954515
422,580.595552332205
423,580.5024372467412
424,580.42128224895
425,580.3591008082601
426,580.3218937811689
427,580.3139445542319
428,580.3372672724063
429,580.3913053988887
430,580.4729425424717
431,580.5768325479388
432,580.6959959548252
433,580.8225869726758
434,580.9487179021834
435,581.0672286625174
436,581.1722982867452
437,581.2598108516067
438,581.3274188049022
439,581.3743064126503
440,581.4007382785071
441,581.4075411089835
442,581.395674533095
443,581.3660043998109
444,581.3193252524449
445,581.2566031027069
446,581.1793399187121
447,581.0899211310063
448,580.9918131215926
449,580.8895247230545
450,580.7883163801077
451,580.6937110341988
452,580.6109138727114
453,580.5442696460992
454,580.4968684703193
455,580.4703620768802
456,580.464996563337
457,580.4798253100847
458,580.5130375698585
459,580.5623167870508
460,580.6251342748167
461,580.6989041144565
462,580.7809730921292
463,580.868474129126
464,580.9581145937526
465,581.0459942114353
466,581.1275430796305
467,581.1976350589289
468,581.2508805060291
469,581.2820586550384
470,581.2866236233649
471,581.2612046329707
472,581.2040195094539
473,581.1151353297915
474,580.9965370054099
475,580.851989165646
476,580.6866941578106
477,580.5067740831677
478,580.3186478037791
479,580.1284128041233
480,579.9413406941665
481,579.7615523262491
482,579.5918917692378
483,579.4339944230402
484,579.2885291687963
485,579.1555640585384
486,579.0349657920736
487,578.9267273608151
488,578.8311497787382
489,578.7488687341992
490,578.6807699468236
491,578.6278447245846
492,578.5910093775926
493,578.5708864745147
494,578.5675504805173
495,578.5802705037269
496,578.6073101802251
497,578.64584430525
498,578.6920220642223
499,578.7411691367345
500,578.7881005716747
501,578.8275159375407
502,578.8544484160215
503,578.8647284726085
504,578.8554120186066
505,578.8251261050834
506,578.7742969514142
507,578.7052325774562
508,578.6220347368535
509,578.5303242598211
510,578.4367906739703
511,578.3486157699766
512,578.2728519535898
513,578.2158439793078
514,578.182766318393
515,578.1773175319101
516,578.2015819882944
517,578.2560481319662
518,578.3397552079276
519,578.4505179406125
520,578.5851614613158
521,578.7397039911303
522,578.9094549061383
523,579.0890443304894
524,579.2724551984707
525,579.4531608669867
526,579.6244488412901
527,579.779935630401
528,579.9141920791456
529,580.0233503003002
530,580.1055665100141
531,580.161248854801
532,580.1930011775522
533,580.2052739376821
534,580.2037549135389
535,580.1945751842907
536,580.1834441894946
537,580.1748542364028
538,580.1715011029486
539,580.1740395984843
540,580.1812237049321
541,580.190388245733
542,580.1981508847072
543,580.2011784882168
544,580.1968714991788
545,580.183855848214
546,580.1622177656656
547,580.133465248799
548,580.1002433701228
549,580.0658616418503
550,580.0337132376447
551,580.006684934751
552,579.9866667828538
553,579.974255287354
554,579.9686983737232
555,579.9680705054865
556,579.9696155751228
557,579.9701687803279
558,579.9665704912849
559,579.9560095171862
560,579.9362667486743
561,579.9058587790337
562,579.8640978017991
563,579.811088920954
564,579.7476831038163
565,579.6753989961279
566,579.5963229094463
567,579.5129928794206
568,579.4282675465489
569,579.3451720105535
570,579.2667035116242
571,579.1955786956852
572,579.1339188312497
573,579.0828986664274
574,579.0424204995369
575,579.0109036417825
576,578.9852824166053
577,578.9612698246556
578,578.9338744100247
579,578.8980827341063
580,578.849574207188
581,578.7853351498914
582,578.7040736913115
583,578.6063851597248
584,578.4946669249657
585,578.3728269111734
586,578.2458599470491
587,578.1193685559168
588,577.9990835373749
589,577.890414218118
590,577.7980452302548
591,577.7255969443087
592,577.675368994147
593,577.648182845797
594,577.6433367511588
595,577.6586944752211
596,577.6909377694462
597,577.7359964606924
598,577.7896234652003
599,577.8480296771036
600,577.9084609400672
601,577.9695944896679
602,578.0316606336054
603,578.096260272014
604,578.1659317954474
605,578.2435865424437
606,578.3319549251424
607,578.4331612458869
608,578.5484868225676
609,578.6783127458665
610,578.8221813171195
611,578.978895678956
612,579.1465953284338
613,579.3227924094982
614,579.5044045813273
615,579.6878442177199
616,579.8692084848608
617,580.0445753692228
618,580.2103722545965
619,580.3637615578307
620,580.5029847855891
621,580.6276185090975
622,580.7387145518029
623,580.8388108695042
624,580.9318046951595
625,581.0226820222199
626,581.1171053530745
627,581.2208741356977
628,581.3392866948391
629,581.4764531997475
630,581.6346372611893
631,581.813726326379
632,582.0109327372071
633,582.2208012114029
634,582.435548778407
635,582.6457074835091
636,582.8409967631299
637,583.0113222117379
638,583.1477753121393
639,583.243503053055
640,583.2943397660698
641,583.2991421546384
642,583.2598204662604
643,583.1810922536428
644,583.0699995899989
645,582.9352428241268
646,582.7864011001175
647,582.6331209411295
648,582.484352094682
649,582.3477029800548
650,582.2289815579678
651,582.1319690252906
652,582.058433924346
653,582.0083475581009
654,581.98023165155
655,581.9715633950661
656,581.9791727711454
657,581.9995833659412
658,582.0292671859618
659,582.0648020208768
660,582.1029310296698
661,582.1405319788315
662,582.174518459193
663,582.2017193474502
664,582.2188047932078
665,582.2223296283315
666,582.208934109781
667,582.175683977706
668,582.1204777658355
669,582.0424269696507
670,581.9421254115606
671,581.8217514285457
672,581.6849778153838
673,581.5366983734798
674,581.3826147546152
675,581.2287506078403
676,581.0809594825075
677,580.9444764398296
678,580.8235520054681
679,580.7212038309182
680,580.6391078995151
681,580.5776233040922
682,580.5359248303637
683,580.5122186888008
684,580.5040208815468
685,580.5084676796754
686,580.5226164029042
687,580.5437031914573
688,580.5693484421702
689,580.5977158165218
690,580.6276216202717
691,580.658566886089
692,580.6906525096232
693,580.7243617174735
694,580.7602477040792
695,580.7986117072836
696,580.8392640143858
697,580.8814261551652
698,580.9237857734148
699,580.9646817426599
700,581.0023763069416
701,581.0353563541446
702,581.0626030668851
703,581.0837826348818
704,581.0993291750907
705,581.1104048768074
706,581.1187384972854
707,581.1263686803196
708,581.1353441441645
709,581.1474430843964
710,581.1639627030619
711,581.1856014169039
712,581.2124242636456
713,581.2438843441909
714,581.2788785164119
715,581.3158322484057
716,581.3528189341284
717,581.38771936906
718,581.4184222251548
719,581.4430563846321
720,581.4602306957673
721,581.4692430941183
722,581.4702178016009
723,581.464138282608
724,581.4527587345311
725,581.4383899218867
726,581.4235647091157
727,581.410604752489
728,581.4011433126823
729,581.3957011602005
730,581.3934322863435
731,581.3921273991866
732,581.3884904466389
733,581.3786212996043
734,581.3585878628022
735,581.3249732288704
736,581.2753235027022
737,581.2084666543813
738,581.1246985693165
739,581.0258349377941
740,580.9151140161104
741,580.7969202540087
742,580.6763052813897
743,580.5583299123577
744,580.4473277918808
745,580.3462502490779
746,580.2562445096083
747,580.1765433608665
748,580.1046540865464
749,580.0367776321464
750,579.9683702856607
751,579.8947557635099
752,579.8116977251797
753,579.7158646679125
754,579.6051602240549
755,579.4789263348187
756,579.3380344836996
757,579.1848684158042
758,579.0231899175005
759,578.8578765162277
760,578.6945268693744
761,578.5389496881095
762,578.3965853309097
763,578.2719405953163
764,578.1681281562479
765,578.0865860547214
766,578.0270137852467
767,577.9875144537638
768,577.9648986695755
769,577.9550923513586
770,577.95358615635
771,577.9558645349383
772,577.9577658278268
773,577.9557528706487
774,577.9471058941344
775,577.930067895898
776,577.9039569056661
777,577.86921279764
778,577.8273083310885
779,577.7804676281521
780,577.7312050910788
781,577.6817864451403
782,577.6337665856754
783,577.5877406119785
784,577.5433653605146
785,577.4996166538309
786,577.4551870884297
787,577.4089115735876
788,577.3601169298469
789,577.3088140671294
790,577.2556903385114
791,577.2019172784799
792,577.1488436743925
793,577.0976679851117
794,577.0491723501052
795,577.0035685749871
796,576.9604730888186
797,576.9190059945839
798,576.8780000862585
799,576.8362959329107
800,576.7930786926577
801,576.7481916690346
802,576.7023601565372
803,576.6572801560059
804,576.6155565661056
805,576.5805036131774
806,576.5558432808839
807,576.5453516625665
808,576.5525065208514
809,576.5801824209968
810,576.6304193386151
811,576.7042597318672
812,576.8016294702358
813,576.9212487400755
814,577.0605872492525
815,577.2158923481479
816,577.3823084347694
817,577.5540898225614
818,577.7249039269267
819,577.8882185070092
820,578.0377478454218
821,578.1679019542863
822,578.2741685941609
823,578.3533831304267
824,578.4038921546456
825,578.425647901478
826,578.4202527174014
827,578.3909278845905
828,578.3423544748719
829,578.2803490766224
830,578.2113870274598
831,578.1420441421493
832,578.0784606817034
833,578.025919306832
834,577.9885856289648
835,577.9694155726188
836,577.9702065758227
837,577.991759564022
838,578.0341146651261
839,578.0968148339238
840,578.1791386053648
841,578.2802416681776
842,578.3991712727397
843,578.5347603361575
844,578.6854439859287
845,578.8490521282037
846,579.0226246700162
847,579.2022937101482
848,579.3832862899869
849,579.5601001603221
850,579.7268725138545
851,579.8779095667347
852,580.0083001546441
853,580.1145079544181
854,580.1948225122713
855,580.2495587787831
856,580.2809400781047
857,580.2926720572841
858,580.2892921719887
859,580.2754393825079
860,580.2552118860427
861,580.2317492708356
862,580.2070958628289
863,580.1823131757881
864,580.1577501026017
865,580.133357072757
866,580.1089354170315
867,580.0842470986258
868,580.0589757889767
869,580.03260584594
870,580.0043279490753
871,579.9730608504225
872,579.9376130162872
873,579.8969433795212
874,579.8504546987539
875,579.7982630802787
876,579.741402545549
877,579.6819250416951
878,579.6228565299008
879,579.5679954533772
880,579.5215940519444
881,579.4880082618816
882,579.4713946974017
883,579.4754755436767
884,579.5033333591286
885,579.5571832040208
886,579.6381020845178
887,579.7457439211885
888,579.878099659022
889,580.031366269762
890,580.1999717251088
891,580.3767743141077
892,580.5534240304767
893,580.7208538145862
894,580.8698643440223
895,580.9917702197432
896,581.0790761996251
897,581.1261422827531
898,581.1297783934277
899,581.0896981068345
900,581.0087665836013
901,580.8929886882561
902,580.7511873522859
903,580.5943356891826
904,580.4345529827971
905,580.2838530339683
906,580.1528176292131
907,580.0494220290244
908,579.9782296669705
909,579.9400918141893
910,579.9323663820693
911,579.9495575310037
912,579.9842088296377
913,580.027867678997
914,580.071970499811
915,580.1085586992383
916,580.1308022731083
917,580.1333611392732
