frame_number,force
0,594.3835400000459
1,594.7159206384026
2,595.0300833349655
3,595.3094448868993
4,595.5404994636646
5,595.7139027634745
6,595.8250770675245
7,595.8742823934057
8,595.8661831681455
9,595.8090186757894
10,595.7135248122082
11,595.5917495690463
12,595.4558846338767
13,595.3172222735009
14,595.1853309645725
15,595.0675100599948
16,594.9685382328822
17,594.8906901080667
18,594.8339715271425
19,594.7965138061596
20,594.7750610997462
21,594.7654797837253
22,594.7632248555273
23,594.763722820292
24,594.7626631448293
25,594.7562144300642
26,594.7411894425943
27,594.7151765227259
28,594.6766395241417
29,594.6249727832982
30,594.5604896379498
31,594.4843295005157
32,594.3982900383768
33,594.3046123140437
34,594.205749855534
35,594.10414228939
36,594.002007744062
37,593.9011686795712
38,593.8029241253824
39,593.7079732543407
40,593.6163856878968
41,593.5276120256685
42,593.4405366438205
43,593.3535833077628
44,593.2648782246333
45,593.1724550753135
46,593.074469802065
47,592.9693926141855
48,592.8561539151128
49,592.734227555091
50,592.6036399255761
51,592.4649038148135
52,592.3188913635671
53,592.1666749451098
54,592.0093720886161
55,591.8480283014495
56,591.6835653355619
57,591.5168159499841
58,591.3486495043209
59,591.1801576014016
60,591.0128318880784
61,590.848655485266
62,590.6900553803455
63,590.5397096432831
64,590.4002478664031
65,590.2739142109257
66,590.1622763934191
67,590.0660572085193
68,589.9851363449653
69,589.9187224125761
70,589.8656392399752
71,589.8246318508378
72,589.7946012145892
73,589.7747195152463
74,589.764426641701
75,589.763333383227
76,589.7710571157868
77,589.7870172052072
78,589.8102369522236
79,589.8392196712736
80,589.8719571521133
81,589.906084876678
82,589.9391479862574
83,589.9689115828407
84,589.9936444611376
85,590.0123238704953
86,590.0247403770561
87,590.0315053608493
88,590.0339695709797
89,590.0340650171222
90,590.0340973880266
91,590.0365308913367
92,590.0438026028238
93,590.0581745250594
94,590.0815948348359
95,590.1155252489801
96,590.1607197691774
97,590.2169954010244
98,590.2830738848145
99,590.3565675236176
100,590.4341399512292
101,590.5118167758126
102,590.5853760891717
103,590.6507380694194
104,590.7042975783552
105,590.7431775418737
106,590.7653986244185
107,590.7699579407612
108,590.7567993658608
109,590.7266623069748
110,590.6808280485249
111,590.6208260354988
112,590.548178972621
113,590.4642407162307
114,590.3701415484026
115,590.2668315063718
116,590.155201345154
117,590.0362465460394
118,589.9112254107432
119,589.7817629524255
120,589.6498725386259
121,589.5178985077484
122,589.3884119990255
123,589.2641019858971
124,589.1476847917648
125,589.0418261416048
126,588.949057810837
127,588.8716757830615
128,588.8116103654935
129,588.77026198274
130,588.748310769867
131,588.7455283172596
132,588.7606339367663
133,588.7912422428907
134,588.8339414253193
135,588.8845179950056
136,588.9383056239961
137,588.9905949682535
138,589.0370184253912
139,589.0738333899254
140,589.0980639212511
141,589.107506623243
142,589.1006483649617
143,589.0765662412127
144,589.0348706898275
145,588.9757208813877
146,588.899914222495
147,588.8090374865129
148,588.7056473352542
149,588.5934119564522
150,588.4771174697182
151,588.3624592304659
152,588.2556023634844
153,588.1625720387748
154,588.0885835562643
155,588.0374317295508
156,588.0110410724071
157,588.0092534303091
158,588.0299016336171
159,588.0691744228989
160,588.1222203618997
161,588.1838886101954
162,588.249479415483
163,588.3153755140377
164,588.3794417165489
165,588.4411166088173
166,588.5011807614006
167,588.5612594488165
168,588.6231792988208
169,588.6883239447739
170,588.7571196091585
171,588.8287420877508
172,588.9010865967177
173,588.9709895494633
174,589.0346486900527
175,589.0881663197957
176,589.1281321608427
177,589.1521538232305
178,589.1592411877897
179,589.1499750365128
180,589.1264376041792
181,589.0919293609693
182,589.0505258680942
183,589.0065458274454
184,588.964016973781
185,588.9262384061419
186,588.8955318257887
187,588.8732366107424
188,588.8599398929567
189,588.8558697028652
190,588.8613436282709
191,588.8771627420911
192,588.9048598397064
193,588.9467407731457
194,589.0056942178717
195,589.0847927970077
196,589.1867648604344
197,589.3134565105879
198,589.4653981548108
199,589.6415438427333
200,589.8392030918013
201,590.0541605153314
202,590.2809695915894
203,590.5133915883883
204,590.7449240903168
205,590.9693410396804
206,591.1811650942891
207,591.3760159355627
208,591.5508131025192
209,591.7038462381382
210,591.8347497145154
211,591.9444220435992
212,592.0349111530869
213,592.1092595571471
214,592.1712884757081
215,592.2253053860363
216,592.2757398702119
217,592.3267354613187
218,592.3817404928087
219,592.4431465619961
220,592.5120222029977
221,592.587983984152
222,592.6692337786161
223,592.7527628585103
224,592.8346851811544
225,592.910634363199
226,592.9761597611276
227,593.0270807852539
228,593.0597808641842
229,593.0714319430691
230,593.0601479048402
231,593.0250775952153
232,592.9664547735288
233,592.885613957231
234,592.7849609103301
235,592.6678668760132
236,592.5384549817816
237,592.4012750639902
238,592.2609037314104
239,592.1215317755098
240,591.9865971608679
241,591.8584974263292
242,591.738394210021
243,591.6261252700709
244,591.5202585047879
245,591.4183245886458
246,591.3172290567646
247,591.2137901644841
248,591.1053110633688
249,590.9900863702368
250,590.8677552007542
251,590.7394418530963
252,590.6076715618063
253,590.4760939661618
254,590.3490681948182
255,590.2311640615618
256,590.1266346266643
257,590.0389229634503
258,589.9702684030356
259,589.9214637069938
260,589.8917879970988
261,589.8791129814034
262,589.8801598916376
263,589.8908742132126
264,589.9068838151412
265,589.924005340215
266,589.9387543788778
267,589.9487980929755
268,589.9532783629118
269,589.9529476647803
270,589.9501024763769
271,589.9483456167935
272,589.9522302395242
273,589.9668365364599
274,589.997330452054
275,590.0485534197525
276,590.1246778579739
277,590.2289416251854
278,590.3634680430814
279,590.5291840206231
280,590.7258444401831
281,590.9521494813448
282,591.2059158091308
283,591.4842462969362
284,591.7836479036251
285,592.1000782397064
286,592.4289408991059
287,592.7650709243305
288,593.1027510693582
289,593.4357946145265
290,593.7577274937505
291,594.0620851047272
292,594.3427978921356
293,594.5945989165425
294,594.8133830345964
295,594.99648300742
296,595.1428634765579
297,595.2532354332803
298,595.3300721194203
299,595.3774991864831
300,595.4010516395674
301,595.407314880952
302,595.4034730282893
303,595.3967805864071
304,595.3939770397524
305,595.4006881309602
306,595.4208899297068
307,595.4565322142867
308,595.5074116547709
309,595.5713441961659
310,595.6446151266126
311,595.7226144104297
312,595.8005282476836
313,595.8739624199392
314,595.9394032838305
315,595.9944644186378
316,596.0379114331294
317,596.0694937370209
318,596.089636583383
319,596.0990650952958
320,596.0984441106475
321,596.0881134432531
322,596.0679741717518
323,596.0375470796698
324,595.9961897527751
325,595.9434283956236
326,595.8793358640869
327,595.8048738331545
328,595.7221219319008
329,595.6343405743872
330,595.545845542602
331,595.4616973806749
332,595.3872272447006
333,595.3274457063588
334,595.2864157610437
335,595.2666978685468
336,595.2689714682238
337,595.2919033822348
338,595.3322871596085
339,595.3854331385313
340,595.445747875455
341,595.5074054637945
342,595.5649949691689
343,595.6140395893374
344,595.6513220512414
345,595.6750033811777
346,595.6845689159605
347,595.6806589773028
348,595.6648401100551
349,595.6393580435924
350,595.6068959917793
351,595.5703481659996
352,595.5326134733256
353,595.4964127771065
354,595.4641241695438
355,595.4376203969457
356,595.4180986525464
357,595.4059174690952
358,595.4004791281803
359,595.4001995258224
360,595.4025910967499
361,595.4044632283245
362,595.4022259201694
363,595.3922620242263
364,595.3713138972578
365,595.3368246630406
366,595.2871884171083
367,595.221888705051
368,595.1415269224777
369,595.0477532785984
370,594.9431103300276
371,594.8307912538384
372,594.7143210196891
373,594.5971948273194
374,594.4825321932927
375,594.3728040729463
376,594.2696697922953
377,594.1739358177387
378,594.085625196758
379,594.0041313442908
380,593.9284280749736
381,593.8573082046541
382,593.7896140690576
383,593.7244168061357
384,593.6611153774057
385,593.5994552593909
386,593.5394881485472
387,593.4814986459177
388,593.4259210289475
389,593.3732666489102
390,593.3240753756476
391,593.2788875481714
392,593.2382161832627
393,593.2025002608332
394,593.1720376972885
395,593.1469104707809
396,593.1269139316181
397,593.1114987914176
398,593.0997395548892
399,593.090356113998
400,593.0818243388121
401,593.0725986010341
402,593.0614252749841
403,593.0476755331415
404,593.0316113495792
405,593.0145313116831
406,592.9987873736897
407,592.9876852050284
408,592.9852799342381
409,592.9960755296082
410,593.0246390196155
411,593.0751458993237
412,593.1508795061548
413,593.2537230314531
414,593.3837084725058
415,593.5387045912225
416,593.7143182978868
417,593.9040544644741
418,594.099745207625
419,594.2922267559488
420,594.4722005083833
421,594.6311658237623
422,594.7622807133138
423,594.8610178852327
424,594.9255341948215
425,594.9567349608049
426,594.958065251776
427,594.9350880313424
428,594.894915881261
429,594.8455534391082
430,594.7951921020474
431,594.7514967054424
432,594.7209437516777
433,594.7082908401712
434,594.7162491072812
435,594.7453928090451
436,594.7942942914292
437,594.8598380220162
438,594.9376500778884
439,595.0225775874599
440,595.1091617692297
441,595.192064339118
442,595.2664276034094
443,595.3281687274113
444,595.3742185493558
445,595.4027058081767
446,595.4130622715558
447,595.4060036106941
448,595.3833497825151
449,595.347693919076
450,595.3019891901208
451,595.2491632100625
452,595.191862165592
453,595.1323683653911
454,595.0726522106214
455,595.0144603419216
456,594.9593381453451
457,594.9085281552725
458,594.8627480962502
459,594.8219129094232
460,594.7849038403535
461,594.7494824864348
462,594.7124004519701
463,594.6696961338928
464,594.6171283545857
465,594.5506815526034
466,594.4670813798645
467,594.3642648232301
468,594.2417423495059
469,594.1007818691903
470,593.9443621384509
471,593.7768939564107
472,593.6037638237583
473,593.4307831535485
474,593.2636227672533
475,593.1072976148146
476,592.9657492776571
477,592.8415466615463
478,592.7356978375965
479,592.6475629525302
480,592.574878013101
481,592.5139120850661
482,592.459770256194
483,592.4068331707953
484,592.3493021307704
485,592.2817971456261
486,592.1999400052437
487,592.1008555469666
488,591.9835366662026
489,591.849026997506
490,591.7003808622508
491,591.5423814118336
492,591.3810393009815
493,591.2229361597646
494,591.0745019749434
495,590.9413223406839
496,590.8275653559978
497,590.7356020507146
498,590.6658703726563
499,590.6169999209465
500,590.5861707983934
501,590.5696292486631
502,590.5632446147213
503,590.5629953334495
504,590.5653210282907
505,590.567338731225
506,590.5669546745978
507,590.5629008397997
508,590.5547061475186
509,590.5425992143606
510,590.527344180823
511,590.5100267871351
512,590.4918199629767
513,590.4737569086878
514,590.4565294765824
515,590.4403295275023
516,590.4247696566308
517,590.4089324124494
518,590.391570812509
519,590.3714215268044
520,590.3475359040383
521,590.3195219527993
522,590.2876305222953
523,590.252684070806
524,590.215896590859
525,590.1786470065128
526,590.1422517209719
527,590.1077579401219
528,590.0757715438773
529,590.0463444348392
530,590.0189543817575
531,589.9925968060656
532,589.9659795261156
533,589.937785106872
534,589.906947268933
535,589.8728797654868
536,589.8356078558068
537,589.7957865279253
538,589.7546242736853
539,589.713738857622
540,589.6749519546918
541,589.6400140421738
542,589.6102700595619
543,589.5863220554289
544,589.5677746425222
545,589.5531367472244
546,589.5399156371467
547,589.5248987120583
548,589.50457679676
549,589.4756255721012
550,589.4353484157225
551,589.3820003566527
552,589.3149459653815
553,589.2346397496602
554,589.1424491449001
555,589.0403656985139
556,588.9306674443907
557,588.8155972739839
558,588.6971051226996
559,588.5766804709067
560,588.4552955299295
561,588.3334852715485
562,588.2115821888195
563,588.0900857318718
564,587.9700942198214
565,587.8536904290312
566,587.7441690804081
567,587.6460244701072
568,587.5646671322041
569,587.5058957012808
570,587.4752039945754
571,587.4770422943866
572,587.5141606847775
573,587.5871373175189
574,587.694152422735
575,587.831028774121
576,587.9915251345664
577,588.167837002599
578,588.351230075286
579,588.5327165684147
580,588.703695934912
581,588.8565197015498
582,588.9849813288904
583,589.0847432242246
584,589.153686864798
585,589.1921375828437
586,589.2029049950672
587,589.1910983756231
588,589.1637112452587
589,589.1290093878441
590,589.0957927673934
591,589.0726268520255
592,589.0671433790326
593,589.0854864586054
594,589.1319360250307
595,589.208705964826
596,589.31590791998
597,589.4516801076212
598,589.6124774757969
599,589.7934977970427
600,589.9891912625397
601,590.1937876429688
602,590.4017860567176
603,590.6083799831546
604,590.809812035754
605,591.0036557303218
606,591.1890106560762
607,591.3665829582831
608,591.5386110447648
609,591.7085964735911
610,591.8808241865117
611,592.0597057549694
612,592.2490333531587
613,592.4512591386689
614,592.6669041077157
615,592.8941752218587
616,593.1288538067661
617,593.3645043264585
618,593.5930150916388
619,593.8054168762469
620,593.9928601740833
621,594.1475997476282
622,594.2638452530299
623,594.338377968701
624,594.3708885963723
625,594.3640391394325
626,594.3232776227167
627,594.2564393994004
628,594.1731654010048
629,594.0841670569673
630,594.0003782106972
631,593.9320595592341
632,593.8879498472444
633,593.8745680660686
634,593.8957506924596
635,593.952468755895
636,594.0429312304962
637,594.1629522947452
638,594.3065331593369
639,594.4665781784624
640,594.6356413770524
641,594.806601368489
642,594.9731911478851
643,595.1303500536219
644,595.2744010088899
645,595.4030715844526
646,595.5153717949848
647,595.611339983516
648,595.6916973507447
649,595.7574993263779
650,595.8098877006624
651,595.8499976413975
652,595.8789876127315
653,595.8981035644629
654,595.9086951644758
655,595.9121486714059
656,595.9097491832936
657,595.9025158031326
658,595.891061505283
659,595.8755114876761
660,595.8554813614742
661,595.8300983356338
662,595.7980587105517
663,595.7577342469913
664,595.7073374160877
665,595.6451235965571
666,595.5695749005499
667,595.479513705651
668,595.3741405865059
669,595.2530437267134
670,595.116238930498
671,594.9642604111556
672,594.7982666921391
673,594.620100148217
674,594.4322583830493
675,594.2377739586658
676,594.0400240686006
677,593.8424999584472
678,593.6485692690851
679,593.4612668005321
680,593.283144937183
681,593.1161966876008
682,592.9618337746463
683,592.8208798730307
684,592.6935455725048
685,592.5793802719816
686,592.4772213926933
687,592.3851682834843
688,592.3006010887468
689,592.2202553892254
690,592.1403613928128
691,592.0568610957042
692,591.9657147589988
693,591.8632894882757
694,591.7467956415476
695,591.6147151941033
696,591.467154703098
697,591.3060565110866
698,591.1352221700625
699,590.960137557221
700,590.787618118979
701,590.6253031564963
702,590.4810369140937
703,590.3622006947579
704,590.275091181971
705,590.2244403895572
706,590.2131296934335
707,590.242093076818
708,590.3103678846315
709,590.4152393558128
710,590.5524263767225
711,590.7162714453901
712,590.8999317475713
713,591.0956028022197
714,591.2948127793009
715,591.488800266863
716,591.6689556606455
717,591.8272874309635
718,591.9568712488915
719,592.0522488522122
720,592.1097593335983
721,592.127795046819
722,592.1069668654095
723,592.0501465351383
724,591.9623471990344
725,591.8504167371233
726,591.7225433734059
727,591.5875980978775
728,591.4543647443469
729,591.3307366695963
730,591.2229767144797
731,591.1351327812769
732,591.0686800835189
733,591.0224364551607
734,590.9927731810758
735,590.9741144855742
736,590.9596787052163
737,590.9423668447445
738,590.9156650079964
739,590.8744161273129
740,590.8153437235522
741,590.7372707740803
742,590.6410499947318
743,590.529276450346
744,590.4058687094786
745,590.2755914198864
746,590.143572935168
747,590.0148536316752
748,589.893983587127
749,589.7846795783124
750,589.689555354223
751,589.6099477302172
752,589.5458633274087
753,589.4960632134655
754,589.4582874072526
755,589.4295996710937
756,589.4068041851117
757,589.3868544531977
758,589.3671589620056
759,589.3457069338709
760,589.3209936583683
761,589.2917988359669
762,589.2569270675765
763,589.2150245371504
764,589.1645400148327
765,589.1038353570027
766,589.0314030846804
767,588.946123944494
768,588.8474929105319
769,588.7357615881845
770,588.611986929124
771,588.4780171822318
772,588.3364558925933
773,588.1906209120674
774,588.0444860507553
775,587.9025812703143
776,587.769829097408
777,587.6512983793734
778,587.551863221522
779,587.4757741694597
780,587.4261841952195
781,587.404712680147
782,587.4111469465475
783,587.4433508309277
784,587.4973939925815
785,587.5678770262275
786,587.6484132525503
787,587.7322114415298
788,587.8126779448453
789,587.8839471739354
790,587.941274896894
791,587.9812740745027
792,588.0020030347489
793,588.0029203825156
794,587.9847267887767
795,587.9491361338612
796,587.8986345854627
797,587.8362743204818
798,587.765517395159
799,587.6901161445887
800,587.6140032188264
801,587.5411675464463
802,587.4755034247397
803,587.4206329318414
804,587.3797176582041
805,587.3552893977599
806,587.3491296920246
807,587.3622141644757
808,587.3947209518209
809,587.4460909986356
810,587.5151230504418
811,587.6000891595922
812,587.6988626112566
813,587.8090509015714
814,587.9281242937305
815,588.0535351037033
816,588.1828327973515
817,588.3137809592164
818,588.4444655307782
819,588.5733638754878
820,588.6993473459731
821,588.8216193900956
822,588.9396199295444
823,589.0529300922636
824,589.1611907822589
825,589.2640245425507
826,589.3609460667519
827,589.4512721501939
828,589.534079142605
829,589.6082700392038
830,589.672784885768
831,589.7269319896149
832,589.7707641908311
833,589.8053933123167
834,589.833132408814
835,589.8573839325419
836,589.8822543852269
837,589.9119596968532
838,589.9501585157923
839,589.9993759244865
840,590.060644566044
841,590.1334166535897
842,590.215725490225
843,590.3045234004248
844,590.3961038280477
845,590.4865264213338
846,590.5719907721038
847,590.6491312542026
848,590.7152262062259
849,590.7683271875441
850,590.8073141754962
851,590.8318757718467
852,590.8424150739579
853,590.8398959856085
854,590.8256575649469
855,590.801224315646
856,590.7681325046888
857,590.7277869932227
858,590.6813641984257
859,590.6297801090185
860,590.5737388740527
861,590.5138632193591
862,590.4508858973815
863,590.3858569210857
864,590.3203020756438
865,590.2562692676828
866,590.196234609787
867,590.1428975036307
868,590.0989340553426
869,590.066775435774
870,590.0484481913454
871,590.0454877486575
872,590.0589217171656
873,590.08930250633
874,590.1367468467986
875,590.2009345721053
876,590.2810491318627
877,590.3756922130426
878,590.4828321397711
879,590.5998219460454
880,590.7234680743236
881,590.8501013909649
882,590.9756317521935
883,591.095624733575
884,591.2054687640832
885,591.3006813966404
886,591.3773477820105
887,591.4326169166152
888,591.4651362031349
889,591.4753097534228
890,591.4653104858684
891,591.438829580672
892,591.400596747038
893,591.3557502500224
894,591.3091676269203
895,591.2648776581402
896,591.2256596032156
897,591.1928977947662
898,591.166706706435
899,591.1462877230579
900,591.1304312538408
901,591.118043476749
902,591.108575338471
903,591.1022728733584
904,591.1002298525539
905,591.1042736997457
906,591.116742997733
907,591.1402224598094
908,591.1772864561526
909,591.2302681906823
910,591.3010408324784
911,591.3907937345496
912,591.4998103295562
913,591.6272797724152
914,591.7711825302425
915,591.9282846401786
916,592.0942698962907
917,592.2640343527804
