frame_number,force
0,688.8200000087387
1,688.8104198628844
2,688.800903393572
3,688.7915137640729
4,688.7823131186477
5,688.7733620914299
6,688.7647193363205
7,688.7564410835156
8,688.7485807280051
9,688.7411884556269
10,688.734310912557
11,688.7279909238028
12,688.722267265205
13,688.7171744919996
14,688.712742825666
15,688.7089980998702
16,688.705961765688
17,688.7036509554313
18,688.7020786028912
19,688.7012536160648
20,688.7011810971828
21,688.7018626044382
22,688.703296450028
23,688.705478029689
24,688.7084001795193
25,688.7120535561276
26,688.716427035882
27,688.7215081287693
28,688.7272834028889
29,688.7337389169065
30,688.7408606586132
31,688.7486349869176
32,688.7570490723016
33,688.766091328173
34,688.7757518236216
35,688.7860226671099
36,688.7968983505707
37,688.8083760440493
38,688.8204558323243
39,688.8331408866769
40,688.8464375668823
41,688.860355450331
42,688.8749072868596
43,688.890108879327
44,688.9059788910389
45,688.9225385816673
46,688.939811473555
47,688.9578229508388
48,688.9765997951613
49,688.9961696637445
50,689.0165605177598
51,689.0378000109512
52,689.0599148505164
53,689.0829301444868
54,689.1068687518986
55,689.131750653099
56,689.157592357184
57,689.184406362228
58,689.2122006822575
59,689.2409784529103
60,689.2707376249213
61,689.3014707507587
62,689.3331648653008
63,689.3658014571812
64,689.3993565240594
65,689.4338007029471
66,689.4690994656493
67,689.5052133688971
68,689.5420983486583
69,689.5797060486901
70,689.617984175128
71,689.6568768718473
72,689.6963251145822
73,689.736267123773
74,689.7766387959942
75,689.8173741522661
76,689.8584058001788
77,689.8996654065623
78,689.9410841780535
79,689.9825933472126
80,690.0241246610293
81,690.0656108668882
82,690.1069861891986
83,690.148186788834
84,690.1891511975513
85,690.2298207203154
86,690.2701397995105
87,690.3100563360989
88,690.3495219637487
89,690.3884922727262
90,690.426926981105
91,690.4647900519798
92,690.5020497572198
93,690.5386786904719
94,690.5746537336344
95,690.6099559811177
96,690.6445706252266
97,690.6784868047296
98,690.7116974174635
99,690.7441988967571
100,690.7759909508801
101,690.8070762648664
102,690.8374601647671
103,690.8671502455164
104,690.8961559651633
105,690.9244882100342
106,690.9521588368416
107,690.9791801984097
108,691.0055646597763
109,691.03132411141
110,691.0564694863126
111,691.0810102877698
112,691.1049541343702
113,691.1283063287337
114,691.1510694566356
115,691.1732430241358
116,691.194823141348
117,691.2158022617566
118,691.2361689852768
119,691.2559079317709
120,691.2749996895392
121,691.2934208405286
122,691.3111440612837
123,691.3281382965263
124,691.3443690005121
125,691.3597984394728
126,691.3743860467168
127,691.3880888211218
128,691.4008617601517
129,691.412658319612
130,691.4234308934467
131,691.433131307908
132,691.4417113255807
133,691.4491231559307
134,691.4553199699766
135,691.4602564170691
136,691.4638891410992
137,691.4661772914263
138,691.4670830209697
139,691.4665719617249
140,691.4646136675996
141,691.4611820157253
142,691.4562555591723
143,691.4498178252973
144,691.4418575548524
145,691.4323688783892
146,691.4213514290508
147,691.4088103940791
148,691.3947565101741
149,691.3792060094862
150,691.3621805233438
151,691.343706950107
152,691.3238172925077
153,691.3025484693304
154,691.2799421065009
155,691.2560443129173
156,691.2309054461879
157,691.2045798729197
158,691.1771257274379
159,691.1486046716344
160,691.1190816569753
161,691.0886246877832
162,691.0573045831786
163,691.0251947340755
164,690.9923708518093
165,690.9589107062112
166,690.9248938527843
167,690.8904013506351
168,690.8555154746051
169,690.8203194262267
170,690.7848970482969
171,690.7493325467535
172,690.7137102214351
173,690.6781142051431
174,690.642628208809
175,690.6073352693404
176,690.5723174955232
177,690.537655806505
178,690.5034296574902
179,690.469716748573
180,690.4365927146553
181,690.4041307964608
182,690.3724014943591
183,690.341472208007
184,690.3114068658117
185,690.2822655490137
186,690.2541041157773
187,690.2269738309942
188,690.200921007468
189,690.1759866638588
190,690.1522062044216
191,690.1296091254193
192,690.1082187532753
193,690.0880520200072
194,690.0691192818703
195,690.0514241869082
196,690.0349635960205
197,690.0197275605734
198,690.005699358011
199,689.9928555854397
200,689.9811663094176
201,689.9705952683063
202,689.9611001224584
203,689.9526327481752
204,689.94513957368
205,689.9385619581656
206,689.9328366168751
207,689.9278960953874
208,689.9236692948035
209,689.9200820468297
210,689.9170577346079
211,689.9145179522545
212,689.9123831939021
213,689.9105735619877
214,689.9090094847475
215,689.9076124337114
216,689.9063056325389
217,689.9050147485646
218,689.9036685585522
219,689.9021995810195
220,689.9005446691993
221,689.898645560798
222,689.8964493823946
223,689.8939091069387
224,689.8909839624698
225,689.8876397896848
226,689.8838493458796
227,689.8795925531596
228,689.874856689505
229,689.8696365219714
230,689.8639343815388
231,689.8577601787862
232,689.8511313589638
233,689.8440727945978
234,689.8366166138811
235,689.8288019640265
236,689.8206747103186
237,689.8122870734676
238,689.8036972096882
239,689.7949687391762
240,689.7861702288154
241,689.7773746342946
242,689.768658706152
243,689.7601023639012
244,689.7517880421101
245,689.7438000120425
246,689.7362236823934
247,689.729144883051
248,689.7226491369012
249,689.716820926191
250,689.7117429611716
251,689.7074954591113
252,689.7041554412871
253,689.701796054388
254,689.7004859212581
255,689.7002885246399
256,689.70126162706
257,689.7034567304214
258,689.7069185800394
259,689.7116847191053
260,689.7177851000598
261,689.7252417590623
262,689.7340685593248
263,689.7442710089131
264,689.7558461582036
265,689.7687825807677
266,689.7830604389153
267,689.7986516322393
268,689.8155200252393
269,689.8336217488111
270,689.8529055699224
271,689.8733133238927
272,689.8947804039236
273,689.9172363023506
274,689.9406051973898
275,689.964806578498
276,689.9897559033903
277,690.015365280207
278,690.0415441688543
279,690.0682000958931
280,690.0952393775825
281,690.1225678458494
282,690.1500915718057
283,690.1777175806429
284,690.2053545503614
285,690.2329134853765
286,690.2603083552104
287,690.2874566886182
288,690.3142801146813
289,690.3407048442374
290,690.3666620868981
291,690.3920884006315
292,690.4169259725802
293,690.4411228316532
294,690.4646329955366
295,690.4874165569497
296,690.5094397158082
297,690.5306747649771
298,690.5511000371686
299,690.5706998192667
300,690.5894642384206
301,690.6073891223455
302,690.6244758348302
303,690.6407310864166
304,690.6561667194609
305,690.6707994664146
306,690.6846506803963
307,690.697746038018
308,690.7101152157647
309,690.7217915425172
310,690.7328116316489
311,690.7432149965144
312,690.7530436533159
313,690.7623417154784
314,690.7711549836539
315,690.7795305353281
316,690.7875163179344
317,690.7951607495836
318,690.8025123319259
319,690.8096192798781
320,690.8165291726631
321,690.8232886298356
322,690.8299430148102
323,690.836536166719
324,690.8431101592703
325,690.8497050833506
326,690.856358849252
327,690.8631070049095
328,690.8699825683574
329,690.8770158754405
330,690.8842344467541
331,690.8916628793683
332,690.8993227682295
333,690.9072326599007
334,690.9154080389293
335,690.9238613454612
336,690.9326020217133
337,690.9416365843988
338,690.9509687202627
339,690.9605994025146
340,690.9705270267996
341,690.9807475656932
342,690.9912547399106
343,691.002040202526
344,691.0130937304598
345,691.0244034165611
346,691.0359558562363
347,691.0477363240483
348,691.0597289370706
349,691.071916802875
350,691.0842821513445
351,691.0968064510462
352,691.1094705118348
353,691.1222545751813
354,691.1351383928724
355,691.1481012941493
356,691.1611222416801
357,691.1741798781347
358,691.1872525670053
359,691.2003184327751
360,691.2133554060862
361,691.2263412791053
362,691.2392537747133
363,691.25207063047
364,691.2647696954476
365,691.277329036091
366,691.2897270464839
367,691.3019425580283
368,691.313954942907
369,691.3257442047836
370,691.3372910496349
371,691.3485769302291
372,691.3595840596415
373,691.370295391452
374,691.3806945658689
375,691.3907658220021
376,691.4004938776861
377,691.4098637799772
378,691.418860731104
379,691.4274698956211
380,691.435676194902
381,691.4434640950952
382,691.450817393872
383,691.4577190093497
384,691.4641507719875
385,691.4700932181257
386,691.4755253829612
387,691.4804245912318
388,691.4847662456327
389,691.4885236157547
390,691.4916676334971
391,691.4941667035336
392,691.4959865386561
393,691.4970900293619
394,691.4974371553147
395,691.4969849441737
396,691.4956874814709
397,691.4934959740182
398,691.4903588685735
399,691.4862220267528
400,691.4810289560834
401,691.4747210959142
402,691.4672381562252
403,691.4585185074584
404,691.4484996198939
405,691.4371185510279
406,691.4243124783239
407,691.4100192728429
408,691.3941781072754
409,691.3767300902706
410,691.3576189178264
411,691.3367915324241
412,691.3141987820562
413,691.2897960738644
414,691.2635440194717
415,691.2354090701842
416,691.2053641398836
417,691.1733892121237
418,691.1394719262971
419,691.1036081363857
420,691.0658024351052
421,691.0260686360999
422,690.9844302069437
423,690.9409206460192
424,690.8955837968416
425,690.848474093603
426,690.7996567312094
427,690.7492077522263
428,690.6972140429026
429,690.6437732313215
430,690.5889934826718
431,690.5329931894921
432,690.4759005581932
433,690.417853096353
434,690.3589970073992
435,690.299486500373
436,690.239483023002
437,690.1791544264511
438,690.1186740698843
439,690.0582198726785
440,689.9979733220677
441,689.9381184440246
442,689.8788407449642
443,689.8203261314693
444,689.7627598151399
445,689.7063252100867
446,689.6512028313005
447,689.5975692029385
448,689.5455957865845
449,689.4954479408401
450,689.4472839247861
451,689.4012539584235
452,689.3574993531525
453,689.3161517247514
454,689.2773322999418
455,689.2411513252405
456,689.2077075836166
457,689.1770880210842
458,689.1493674823465
459,689.1246085522789
460,689.1028614983356
461,689.0841643078936
462,689.068542814107
463,689.056010904025
464,689.046570803279
465,689.0402134321656
466,689.0369188279103
467,689.0366566269463
468,689.0393865992775
469,689.0450592250373
470,689.05361630219
471,689.0649915747008
472,689.0791113722485
473,689.0958952543857
474,689.1152566527643
475,689.1371035045781
476,689.1613388695722
477,689.1878615225731
478,689.2165665139529
479,689.2473456919104
480,689.2800881825916
481,689.3146808261652
482,689.3510085685834
483,689.3889548099439
484,689.4284017112974
485,689.4692304625929
486,689.5113215152188
487,689.5545547831056
488,689.5988098164955
489,689.6439659525316
490,689.689902447064
491,689.7364985923097
492,689.7836338249466
493,689.8311878291914
494,689.8790406399057
495,689.9270727517263
496,689.9751652410957
497,690.0231999084543
498,690.0710594475588
499,690.1186276480006
500,690.1657896360045
501,690.2124321576885
502,690.2584439075983
503,690.3037159028185
504,690.3481418994749
505,690.3916188449062
506,690.4340473559475
507,690.4753322119757
508,690.5153828508147
509,690.5541138563465
510,690.5914454283056
511,690.6273038266631
512,690.6616217847787
513,690.6943388867962
514,690.7254019054576
515,690.7547650969185
516,690.7823904493807
517,690.808247882153
518,690.8323153910701
519,690.8545791355473
520,690.8750334624807
521,690.8936808629063
522,690.9105318586622
523,690.9256048179185
524,690.9389256999435
525,690.9505277307942
526,690.960451013017
527,690.9687420741511
528,690.9754533607712
529,690.9806426867024
530,690.9843726454272
531,690.9867099970962
532,690.9877250398464
533,690.9874909736778
534,690.9860832634415
535,690.983579006168
536,690.9800563076991
537,690.9755936744709
538,690.9702694274793
539,690.9641611458245
540,690.9573451465043
541,690.9498960058836
542,690.9418861272276
543,690.933385357829
544,690.9244606580969
545,690.9151758232967
546,690.9055912569086
547,690.8957637933971
548,690.8857465678541
549,690.8755889303577
550,690.8653364035198
551,690.8550306820778
552,690.8447096734917
553,690.8344075784997
554,690.8241550103342
555,690.8139791506244
556,690.8039039391094
557,690.7939502935818
558,690.7841363560683
559,690.7744777609503
560,690.7649879204462
561,690.755678322612
562,690.7465588367885
563,690.7376380213833
564,690.7289234291426
565,690.7204219055432
566,690.712139876257
567,690.7040836192996
568,690.6962595163642
569,690.688674276786
570,690.6813351277
571,690.6742499653744
572,690.6674274646251
573,690.6608771450796
574,690.6546093948591
575,690.648635453953
576,690.6429673608877
577,690.6376178670586
578,690.6326003235304
579,690.6279285454644
580,690.6236166593994
581,690.6196789381924
582,690.6161296277967
583,690.6129827697447
584,690.6102520235073
585,690.6079504935643
586,690.60609056621
587,690.6046837599799
588,690.6037405911485
589,690.6032704531767
590,690.6032815075055
591,690.603780583083
592,690.6047730831242
593,690.6062628992432
594,690.6082523348023
595,690.6107420407391
596,690.6137309680003
597,690.6172163406499
598,690.621193652459
599,690.6256566875828
600,690.6305975637428
601,690.636006795105
602,690.6418733719261
603,690.6481848544989
604,690.6549274794776
605,690.6620862772262
606,690.6696451994904
607,690.6775872574123
608,690.685894670643
609,690.6945490288396
610,690.7035314668484
611,690.7128228542828
612,690.722403999126
613,690.732255863643
614,690.7423597892879
615,690.7526977257828
616,690.7632524586943
617,690.7740078300491
618,690.7849489476979
619,690.7960623807652
620,690.8073363399642
621,690.8187608424627
622,690.830327861476
623,690.8420314610478
624,690.8538679165671
625,690.865835821501
626,690.8779361807292
627,690.8901724908405
628,690.9025508077673
629,690.9150798021082
630,690.9277708022248
631,690.9406378244487
632,690.9536975884155
633,690.9669695137283
634,690.9804756921902
635,690.9942408284655
636,691.0082921417498
637,691.0226592216023
638,691.0373738317838
639,691.0524696565303
640,691.0679819846699
641,691.0839473288204
642,691.1004029793712
643,691.1173864956028
644,691.1349351391764
645,691.1530852587176
646,691.171871638023
647,691.1913268233345
648,691.2114804461839
649,691.2323585577365
650,691.2539829894346
651,691.2763707539056
652,691.2995334995613
653,691.3234770315592
654,691.3482009101817
655,691.3736981350589
656,691.3999549207447
657,691.426950567155
658,691.4546574275093
659,691.4830409756526
660,691.5120599731314
661,691.5416667347025
662,691.571807490195
663,691.6024228410273
664,691.6334483101755
665,691.6648149839324
666,691.696450242124
667,691.7282785709893
668,691.7602224500553
669,691.792203301165
670,691.8241424845565
671,691.8559623240077
672,691.8875871410645
673,691.9189442775906
674,691.9499650863877
675,691.9805858710937
676,692.0107487582293
677,692.040402485639
678,692.0695030929049
679,692.0980145012111
680,692.1259089727903
681,692.1531674430188
682,692.1797797208017
683,692.2057445549841
684,692.2310695664519
685,692.2557710477103
686,692.2798736340503
687,692.3034098526434
688,692.3264195577997
689,692.3489492620724
690,692.3710513738589
691,692.392783352681
692,692.4142067938159
693,692.4353864549042
694,692.4563892385944
695,692.4772831464065
696,692.4981362190624
697,692.5190154776119
698,692.53998587865
699,692.5611092963095
700,692.5824435432473
701,692.6040414421374
702,692.625949958502
703,692.6482094054213
704,692.6708527304783
705,692.6939048945619
706,692.7173823505093
707,692.7412926273353
708,692.765634023666
709,692.7903954124182
710,692.8155561573952
711,692.8410861407116
712,692.8669458979022
713,692.8930868559925
714,692.9194516689142
715,692.945974644032
716,692.9725822529772
717,692.9991937198128
718,693.0257216800086
719,693.0520729044631
720,693.0781490829416
721,693.1038476599335
722,693.1290627131243
723,693.1536858614907
724,693.1776071874451
725,693.2007161559367
726,693.2229025132352
727,693.2440571495848
728,693.2640729127733
729,693.2828453631953
730,693.3002734643657
731,693.3162602054732
732,693.3307131542208
733,693.3435449390854
734,693.3546736608093
735,693.3640232339736
736,693.3715236613261
737,693.3771112460973
738,693.3807287502482
739,693.3823255086326
740,693.3818575096692
741,693.3792874519669
742,693.3745847839857
743,693.3677257314594
744,693.3586933158546
745,693.3474773664083
746,693.3340745274993
747,693.3184882620632
748,693.3007288510348
749,693.2808133889924
750,693.2587657770483
751,693.2346167146077
752,693.2084036910462
753,693.180170976572
754,693.1499696091172
755,693.1178573716693
756,693.0838987525489
757,693.0481648803972
758,693.01073342627
759,692.9716884666581
760,692.9311203024454
761,692.889125229397
762,692.845805256206
763,692.8012677668589
764,692.7556251249931
765,692.7089942188953
766,692.6614959471077
767,692.6132546465104
768,692.5643974669839
769,692.5150536986065
770,692.4653540584906
771,692.415429945219
772,692.3654126697365
773,692.315432672036
774,692.2656187326419
775,692.2160971870753
776,692.166991150766
777,692.1184197613329
778,692.0704974443702
779,692.0233332075144
780,691.9770299657771
781,691.931683899478
782,691.8873838453029
783,691.8442107215301
784,691.8022369903573
785,691.7615261628332
786,691.7221323537843
787,691.6840998941086
788,691.6474630058491
789,691.6122455427698
790,691.5784607970988
791,691.5461113722404
792,691.5151891213569
793,691.4856751523299
794,691.4575399002084
795,691.4307432684632
796,691.4052348400613
797,691.380954158944
798,691.3578310825044
799,691.3357862061982
800,691.3147313619381
801,691.2945701918196
802,691.2751987977698
803,691.2565064658947
804,691.2383764617713
805,691.2206868900158
806,691.2033116086509
807,691.1861211864781
808,691.1689838900072
809,691.151766685431
810,691.1343362406305
811,691.1165599122772
812,691.098306703542
813,691.0794481783844
814,691.0598593189056
815,691.0394193134589
816,691.0180122656353
817,690.995527817603
818,690.9718616847671
819,690.9469161017349
820,690.920600181861
821,690.8928301942389
822,690.8635297632195
823,690.8326299965183
824,690.800069548346
825,690.7657946233452
826,690.7297589259766
827,690.6919235595748
828,690.6522568802463
829,690.6107343127244
830,690.5673381372084
831,690.5220572571467
832,690.4748869576315
833,690.4258286631339
834,690.3748897022842
835,690.3220830862044
836,690.2674273051863
837,690.2109461463156
838,690.1526685323998
839,690.0926283808298
840,690.0308644802122
841,689.9674203827057
842,689.9023443101211
843,689.8356890710509
844,689.7675119844536
845,689.6978748031407
846,689.6268436293603
847,689.5544888143726
848,689.4808848343716
849,689.4061101361465
850,689.3302469474032
851,689.2533810485784
852,689.1756015049535
853,689.0970003594655
854,689.0176722875748
855,688.9377142162779
856,688.8572249102386
857,688.7763045290272
858,688.6950541604255
859,688.6135753357646
860,688.5319695343445
861,688.4503376849049
862,688.3687796725463
863,688.2873938591667
864,688.2062766243324
865,688.1255219316646
866,688.0452209236266
867,687.9654615456402
868,687.8863281994667
869,687.807901426063
870,687.7302576190334
871,687.6534687700967
872,687.5776022470985
873,687.5027206037669
874,687.4288814197729
875,687.356137169901
876,687.2845351215594
877,687.2141172599567
878,687.1449202400652
879,687.076975364259
880,687.010308584362
881,686.9449405268431
882,686.8808865401875
883,686.8181567641653
884,686.756756221589
885,686.6966849337365
886,686.6379380607716
887,686.5805060683447
888,686.5243749213874
889,686.4695263062376
890,686.4159378827987
891,686.3635835689789
892,686.3124338594871
893,686.2624561800553
894,686.2136152766525
895,686.1658736375265
896,686.1191919442093
897,686.0735295463426
898,686.0288449544654
899,685.9850963445961
900,685.9422420685531
901,685.900241164773
902,685.859053865707
903,685.8186420989051
904,685.7789699789151
905,685.7400042862994
906,685.7017149291153
907,685.6640753815946
908,685.6270630945172
909,685.5906598718697
910,685.5548522088311
911,685.5196315867088
912,685.4849947207643
913,685.4509437568123
914,685.4174864122189
915,685.3846360568983
916,685.352411730537
917,685.320838093689
