acceleration,velocity,displacement
-0.009798815668758532,0.0,0.0
-0.009636653342103854,-4.858867252715596e-06,-1.214716813178899e-09
-0.009474471346132024,-9.636648424774565e-06,-4.838595732551439e-09
-0.009312249226237907,-1.4333328567867046e-05,-1.083108998071184e-08
-0.009149964957977055,-1.8948882113920786e-05,-1.91516426511588e-08
-0.008987594168614067,-2.348327189556857e-05,-2.9759681153531138e-08
-0.008825109377406139,-2.793644778207362e-05,-4.2614611072941686e-08
-0.008662479277259397,-3.2308344945740005e-05,-5.767580925489509e-08
-0.008499668095246523,-3.6598881788866484e-05,-7.490261593854672e-08
-0.008336635089977767,-4.080795758517256e-05,-9.425432578205647e-08
-0.008173334261283876,-4.493544992298797e-05,-1.156901776590966e-07
-0.00800971434851108,-4.8981212075436704e-05,-1.391693431587028e-07
-0.007845719174182217,-5.294507045611003e-05,-1.6465091379158946e-07
-0.007681288359976547,-5.682682233964972e-05,-1.9209388699052942e-07
-0.007516358416465423,-6.062623403376021e-05,-2.214571510838819e-07
-0.0073508641949039995,-6.434303968660257e-05,-2.526994695139726e-07
-0.0071847406844832,-6.797694090644937e-05,-2.857794646622356e-07
-0.007017925131863199,-7.152760736053596e-05,-3.206556017289819e-07
-0.006850359448231149,-7.499467850555955e-05,-3.5728617319550577e-07
-0.0066819928573953885,-7.837776658196618e-05,-3.956292844673872e-07
-0.006512784729499603,-8.167646097868993e-05,-4.356428413575512e-07
-0.0063427075346814635,-8.48903340447352e-05,-4.772845401134075e-07
-0.006171749834105754,-8.8018948386932e-05,-5.205118607213243e-07
-0.005999919202976242,-9.106186564620249e-05,-5.652820642296079e-07
-0.0058272449597663286,-9.401865668688813e-05,-6.115521948128806e-07
-0.005653780568123742,-9.688891306886064e-05,-6.592790872518177e-07
-0.0054796055914106915,-9.967225960874426e-05,-7.08419380421219e-07
-0.005304827115253377,-0.00010236836778541027,-7.589295372697576e-07
-0.0051295805978013986,-0.00010497696971367396,-8.107658716445287e-07
-0.004954030141579308,-0.00010749787239851914,-8.638845821725769e-07
-0.0047783681958933726,-0.00010993097198288731,-9.182417932679285e-07
-0.004602814698007282,-0.00011227626770636247,-9.73793603190241e-07
-0.00442761565447327,-0.00011453387529448261,-1.0304961389404523e-06
-0.0042530411627199815,-0.00011670403949878093,-1.0883056176387683e-06
-0.004079382884354359,-0.00011878714551054952,-1.1471784138911008e-06
-0.003906951002426126,-0.00012078372898224464,-1.2070711325142993e-06
-0.003736070720102171,-0.00012269448441287672,-1.2679406858630796e-06
-0.003567078388211399,-0.0001245202716899551,-1.3297443748887876e-06
-0.003400317384945744,-0.0001262621206332444,-1.3924399729695875e-06
-0.003236133904279733,-0.00012792123345555076,-1.4559858114917863e-06
-0.0030748728243391475,-0.0001294989851377055,-1.5203408661401004e-06
-0.002916873812702896,-0.000130996921796966,-1.5854648428737683e-06
-0.0027624677903925485,-0.00013241675719773984,-1.6513182626224448e-06
-0.0026119738398924083,-0.00013376036760531107,-1.7178625438232077e-06
-0.0024656966168157767,-0.00013502978521948812,-1.7850600820294074e-06
-0.0023239243075313773,-0.0001362271904505749,-1.8528743259469231e-06
-0.0021869271581947923,-0.00013735490331700644,-1.9212698493888185e-06
-0.0020549565798926865,-0.0001384153742515283,-1.990212418780952e-06
-0.0019282448108551094,-0.00013941117459921525,-2.059669055993638e-06
-0.0018070050949115237,-0.0001403449870756569,-2.129608096412356e-06
-0.0016914323182853493,-0.00014121959642895613,-2.1999992422885093e-06
-0.0015817040320558868,-0.00014203788051654143,-2.2708136115248837e-06
-0.0014779817750949877,-0.00014280280196832915,-2.342023782146101e-06
-0.0013804126083690044,-0.00014351740056419516,-2.413603832779232e-06
-0.0012891307804759249,-0.0001441847864114064,-2.4855293795231328e-06
-0.001204259459524096,-0.0001448081339714064,-2.557777609618836e-06
-0.00112591247993794,-0.00014539067695627192,-2.6303273123507555e-06
-0.0010541960654387643,-0.0001459357040926161,-2.7031589076129773e-06
-0.0009892105052354996,-0.00014644655573528467,-2.7762544725699524e-06
-0.0009310517752206849,-0.00014692662130539873,-2.849597766830123e-06
-0.0008798130996105161,-0.00014737933752410654,-2.9231742565374996e-06
-0.0008355864352620945,-0.0001478081874078247,-2.9969711377704824e-06
-0.0007984638318397935,-0.00014821669997460018,-3.0709773596160886e-06
-0.0007685385864680435,-0.00014860845057917713,-3.145183647254533e-06
-0.0007459060877842871,-0.00014898706174774022,-3.2195825253362624e-06
-0.0007306642435420365,-0.00014935620433057182,-3.2941683418558404e-06
-0.0007229134088284538,-0.00014971959874366444,-3.3689372926243995e-06
-0.0007227557697679539,-0.00015008101603831354,-3.443887446319894e-06
-0.000730294176823931,-0.00015044427852496152,-3.5190187699607127e-06
-0.0007456304483831833,-0.0001508132596812633,-3.594333154512269e-06
-0.0007688631718471041,-0.00015119188308632088,-3.669834440204165e-06
-0.0008000850212562618,-0.0001515841201345967,-3.7455284410093946e-06
-0.0008393796012965298,-0.0001519939862902349,-3.821422967615603e-06
-0.0008868178281702289,-0.00015242553564760158,-3.8975278481000614e-06
-0.0009424538701924685,-0.00015288285357219225,-3.97385494540501e-06
-0.001006320690962402,-0.00015337004721248097,-4.050418170601178e-06
-0.0010784252629569013,-0.00015389123370096079,-4.1272334908295385e-06
-0.0011587435497114901,-0.00015445052590412788,-4.204318930730811e-06
-0.0012472153859413356,-0.00015505201563804108,-4.2816945661163535e-06
-0.0013437394054025514,-0.00015569975433587705,-4.359382508609833e-06
-0.0014481681699611171,-0.00015639773122971796,-4.437406880001232e-06
-0.0015603036471519725,-0.00015714984918399624,-4.51579377510466e-06
-0.001679893178124316,-0.00015795989839031532,-4.594571211998238e-06
-0.0018066260747197562,-0.00015883152820352634,-4.673769068646699e-06
-0.0019401309748044266,-0.0001597682174659074,-4.753419005064057e-06
-0.002079974059024539,-0.00016077324372436462,-4.8335543703616255e-06
-0.0022256581901793425,-0.0001618496517866656,-4.914210094239383e-06
-0.002376622990576506,-0.00016300022208185454,-4.9954225627065135e-06
-0.0025322458377930617,-0.00016422743928894693,-5.077229478049214e-06
-0.0026918437392574133,-0.00016553346168320956,-5.159669703292253e-06
-0.0028546760359735965,-0.00016692009162701731,-5.24278309161981e-06
-0.003019947882617509,-0.00016838874760666508,-5.326610301428231e-06
-0.003186814456529063,-0.00016994043819145173,-5.41119259787776e-06
-0.0033543858566365803,-0.00017157573826974315,-5.496571641993059e-06
-0.003521732652296356,-0.0001732947678969764,-5.5827892685347384e-06
-0.0036878920237222407,-0.00017509717406598104,-5.669887254025478e-06
-0.0038518744070949306,-0.00017698211567368532,-5.757907076460395e-06
-0.004012670532974987,-0.0001789482519087028,-5.846889668355992e-06
-0.0041692587342777735,-0.000180993734225516,-5.936875164889546e-06
-0.004320612396171566,-0.00018311620200812834,-6.0279026489479576e-06
-0.004465707416808462,-0.00018531278196137334,-6.120009894940333e-06
-0.0046035295439695685,-0.00018758009120156785,-6.213233113231068e-06
-0.00473308145852326,-0.00018991424395219106,-6.307606697019508e-06
-0.004853389502102621,-0.00019231086169234753,-6.403162973430642e-06
-0.004963509990293214,-0.0001947650865654465,-6.49993196049509e-06
-0.005062535097167988,-0.0001972715978373118,-6.5979411315957795e-06
-0.005149598325272789,-0.000199824631192922,-6.697215188853338e-06
-0.00522387957909359,-0.0002024180006690136,-6.797775846818822e-06
-0.005284609841980098,-0.000205045123024282,-6.899641627742146e-06
-0.005331075428892618,-0.0002076990443420002,-7.002827669583716e-06
-0.005362621769228282,-0.00021037246864153043,-7.107345547829599e-06
-0.0053786566777927645,-0.0002130577882532857,-7.213203112053303e-06
-0.005378653094773222,-0.0002157471156964272,-7.320404338040731e-06
-0.005362151307223122,-0.0002184323167969263,-7.42894919616407e-06
-0.0053287606962951145,-0.00022110504479780585,-7.538833536562753e-06
-0.005278161076266706,-0.0002237567752409463,-7.650048991572441e-06
-0.005210103692435184,-0.00022637884143312178,-7.762582895740958e-06
-0.005124411925357842,-0.00022896247033757003,-7.876418223683631e-06
-0.005020981723365539,-0.00023149881874975087,-7.991533545955462e-06
-0.004899781768799488,-0.00023397900962279214,-8.107903003048598e-06
-0.004760853379238252,-0.00023639416840980158,-8.225496297556745e-06
-0.004604310150878897,-0.00023873545929233088,-8.344278704482278e-06
-0.00443033736469897,-0.00024099412117122533,-8.464211099598167e-06
-0.004239191191291378,-0.0002431615033102229,-8.585250005718528e-06
-0.004031197737319681,-0.00024522910054237566,-8.707347656681678e-06
-0.003806751969665054,-0.00024718858796912187,-8.830452078809553e-06
-0.0035663165349141645,-0.00024903185509526666,-8.95450718957565e-06
-0.003310420469266599,-0.00025075103934631187,-9.079452913186045e-06
-0.0030396577740486636,-0.0002523385589071407,-9.205225312749407e-06
-0.002754685817030066,-0.00025378714480491036,-9.33175673867742e-06
-0.0024562235066899365,-0.00025508987213584034,-9.458975992912607e-06
-0.002145049175944952,-0.00025624019030649905,-9.586808508523192e-06
-0.001821998109707497,-0.0002572319521279122,-9.715176544131794e-06
-0.001487959659362319,-0.0002580594415701796,-9.843999392556316e-06
-0.0011438739018658202,-0.00025871739996048666,-9.973193602938983e-06
-0.0007907278167199407,-0.0002592010503901331,-1.0102673215526637e-05
-0.00042955097092360443,-0.000259506120087044,-1.0232350008145931e-05
-6.141072307661177e-05,-0.00025962886051054403,-1.0362133753295328e-05
0.00031259301557684744,-0.00025956606493741897,-1.0491932484657319e-05
0.0006913333970768697,-0.00025931508333425555,-1.0621652771725237e-05
0.0010736625422406328,-0.00025887383434942615,-1.0751200001146157e-05
0.001458417638942728,-0.00025824081430413033,-1.0880478663309546e-05
0.0018444271356534926,-0.0002574151031104813,-1.1009392642663199e-05
0.0022305169371457105,-0.0002563963670922815,-1.1137845510213889e-05
0.0026155165235554464,-0.0002551848587271062,-1.1265740816668736e-05
0.0029982649419652407,-0.000253781413360726,-1.1392982384690694e-05
0.0033776166519590583,-0.0002521874429622449,-1.1519474598771437e-05
0.003752447224155325,-0.0002504049269932163,-1.1645122691260302e-05
0.004121658884604766,-0.00024843640046602627,-1.1769833023125111e-05
0.0044841858761547546,-0.0002462849392758364,-1.1893513358060577e-05
0.004838999586384594,-0.00024395414291020158,-1.2016073128607087e-05
0.005185113380774757,-0.00024144811466841174,-1.213742369300174e-05
0.005521587078180349,-0.00023877143955367295,-1.225747858155726e-05
0.005847531007257328,-0.00023592916003231353,-1.2376153731453757e-05
0.00616210958393624,-0.00023292674988451513,-1.2493367708932964e-05
0.006464544355817495,-0.0002297700863995767,-1.2609041918003988e-05
0.006754116475043979,-0.00022646542119186133,-1.2723100794901847e-05
0.007030168586740358,-0.00022301934992641524,-1.2835471987681416e-05
0.007292106148232024,-0.00021943878124267214,-1.2946086520473689e-05
0.007539398218716877,-0.00021573090515093491,-1.3054878942072091e-05
0.007771577777300599,-0.00021190316115193055,-1.3161787458647808e-05
0.007988241639262867,-0.0002079632062977897,-1.3266754050510239e-05
0.008189050046912574,-0.00020391888337624583,-1.3369724572928748e-05
0.008373726015144077,-0.00019977818936073167,-1.3470648841112992e-05
0.008542054515183882,-0.0001955492442281497,-1.3569480699510213e-05
0.008693881580924037,-0.0001912402602041227,-1.3666178075618281e-05
0.008829113414645562,-0.0001868595114552303,-1.376070301853312e-05
0.008947715547028914,-0.00018241530421481166,-1.385302172245063e-05
0.009049712069267257,-0.00017791594731073762,-1.3943104535332017e-05
0.009135184910719088,-0.00017336972306574103,-1.4030925952926136e-05
0.009204273098444675,-0.0001687848585634501,-1.4116464598333434e-05
0.009257171917922422,-0.00016416949730935833,-1.4199703187301636e-05
0.009294131899785316,-0.0001595316713549314,-1.428062847946771e-05
0.009315457578397192,-0.00015487927398538578,-1.4359231215802788e-05
0.009321505994546992,-0.00015022003309214974,-1.4435506042572171e-05
0.009312684937131506,-0.00014556148535923013,-1.4509451422185016e-05
0.00928945093091271,-0.00014091095139221908,-1.4581069531372877e-05
0.009252306977531752,-0.00013627551191510795,-1.465036614719971e-05
0.009201800049542458,-0.0001316619851583394,-1.471735052146807e-05
0.00913851832895381,-0.00012707690556371535,-1.4782035244148584e-05
0.009063088173504551,-0.00012252650393810075,-1.4844436096524039e-05
0.008976170782696562,-0.00011801668919905047,-1.4904571894808326e-05
0.008878458525166295,-0.00011355303187208475,-1.496246432507611e-05
0.008770670891786342,-0.0001091407495178466,-1.5018137770423592e-05
0.008653550062715896,-0.00010478469427922103,-1.5071619131372859e-05
0.008527856112413261,-0.00010048934273543874,-1.5122937640626524e-05
0.008394361906968038,-9.625878823059341e-05,-1.5172124673368032e-05
0.008253847765787017,-9.209673581240465e-05,-1.5219213554378782e-05
0.008107095974258098,-8.800649987739337e-05,-1.5264239363301232e-05
0.007954885255437827,-8.399100456996939e-05,-1.5307238739413073e-05
0.007797985331176017,-8.005278692331594e-05,-1.5348249687286393e-05
0.007637151708747094,-7.619400266333517e-05,-1.5387311384683057e-05
0.007473120807305394,-7.241643453432204e-05,-1.542446399398247e-05
0.007306605499782181,-6.872150295755014e-05,-1.5459748478355438e-05
0.007138291109410702,-6.511027880525192e-05,-1.549320642379614e-05
0.0069688318738243184,-6.158349805944317e-05,-1.5524879868012314e-05
0.006798847867102201,-5.814157812421154e-05,-1.5554811137058227e-05
0.006628922346455113,-5.478463557082221e-05,-1.5583042690481985e-05
0.00645959947203897,-5.151250511619869e-05,-1.560961697565374e-05
0.0062913823446806025,-4.8324759662018796e-05,-1.5634576291848294e-05
0.006124731319422545,-4.522073124599301e-05,-1.5657962664575295e-05
0.005960062577657598,-4.219953277172297e-05,-1.5679817730579725e-05
0.005797746969371905,-3.92600803849656e-05,-1.5700182633868897e-05
0.005638109161690944,-3.640111635219989e-05,-1.5719097933053187e-05
0.0054814271482815586,-3.362123227470676e-05,-1.5736603520209912e-05
0.005327932189035825,-3.0918892440377414e-05,-1.5752738551388684e-05
0.005177809258463662,-2.8292457078502542e-05,-1.5767541388768404e-05
0.005031198070820879,-2.5740205246181407e-05,-1.5781049554349573e-05
0.004888194709699891,-2.3260357051051215e-05,-1.5793299694923883e-05
0.00474885382993044,-2.085109491614363e-05,-1.580432755791568e-05
0.004613191345222094,-1.85105836223555e-05,-1.5814167977550304e-05
0.004481187482445687,-1.6236988915438553e-05,-1.582285487068475e-05
0.004352790070558336,-1.4028494527187548e-05,-1.5830421241545408e-05
0.00422791792846979,-1.1883317527430516e-05,-1.583689919455906e-05
0.004106464218871901,-9.799721990595092e-06,-1.584231995443857e-05
0.003988299650732968,-7.776031023193876e-06,-1.5846713892692015e-05
0.0038732754456715494,-5.8106372490927465e-06,-1.5850110559760087e-05
0.0037612260244369463,-3.902011881565623e-06,-1.585253872204275e-05
0.0036519714072554927,-2.048712523642513e-06,-1.5854026403144053e-05
0.0035453193554404877,-2.4938983296851765e-07,-1.5854600928733204e-05
0.0034410673178724657,1.4972068353597207e-06,-1.5854288974482605e-05
0.003339004280795192,3.192224735026635e-06,-1.585311661659001e-05
0.0032389126402546406,4.836703965289093e-06,-1.585110938441493e-05
0.003140570217480181,6.431574679722798e-06,-1.584829231475368e-05
0.003043752523512337,7.977655364970929e-06,-1.5844690007242505e-05
0.0029482353562805845,9.475652334919159e-06,-1.5840326680317533e-05
0.0028537977823512306,1.0926160619577112e-05,-1.583522622707891e-05
0.0027602255164605643,1.2329666444280062e-05,-1.5829412270312944e-05
0.0026673146672525593,1.3686551490208343e-05,-1.5822908215829324e-05
0.002574875775883934,1.4997099100992466e-05,-1.5815737303181525e-05
0.002482738045975989,1.6261502556457447e-05,-1.5807922652767162e-05
0.0023907536523100977,1.7479875481028967e-05,-1.579948730825779e-05
0.0022988020154953645,1.8652264397980334e-05,-1.579045427328804e-05
0.0022067939302478617,1.977866338441614e-05,-1.5780846541342442e-05
0.0021146754284157294,2.085903072408204e-05,-1.5770687117815316e-05
0.0020224312479910256,2.1893307393183727e-05,-1.5759999033285998e-05
0.001930087782748369,2.2881437150868578e-05,-1.5748805347149987e-05
0.0018377154148378509,2.3823387950265132e-05,-1.5737129140874703e-05
0.0017454301729953258,2.4719174347223428e-05,-1.5724993500300332e-05
0.0016533946880564027,2.556888056248636e-05,-1.5712421486572906e-05
0.0015618184277212874,2.6372683841430782e-05,-1.5699436095471925e-05
0.0014709572004073747,2.713087774846295e-05,-1.568606020507445e-05
0.0013811119417102286,2.784389503399235e-05,-1.567231651187884e-05
0.0012926268354703553,2.8512329728287494e-05,-1.5658227455688268e-05
0.0012058868566456934,2.9136958151316508e-05,-1.5643815133718366e-05
0.0011213148380280473,2.9718758574984944e-05,-1.562910120453679e-05
0.0010393681558424509,3.025892932345257e-05,-1.5614106782562183e-05
0.0009605351107051909,3.075890514008948e-05,-1.5598852323946297e-05
0.0008853310605877666,3.122037168291272e-05,-1.5583357504740546e-05
0.0008142943479794795,3.164527803505453e-05,-1.5567641092311055e-05
0.0007479820601055313,3.203584713707579e-05,-1.555172081101802e-05
0.0006869656709871228,3.239458406984895e-05,-1.553561320321629e-05
0.0006318266304163329,3.2724282145199816e-05,-1.5519333486662525e-05
0.0005831519734834443,3.302802679617476e-05,-1.550289540942718e-05
0.0005415300135194986,3.3309197292925496e-05,-1.5486311103404906e-05
0.0005075461513651423,3.357146633414665e-05,-1.5469590937498137e-05
0.00048177879391404153,3.381879757046645e-05,-1.5452743371521983e-05
0.0004647953380693579,3.40554411034623e-05,-1.54357748118535e-05
0.0004571481538441006,3.428592697644066e-05,-1.5418689469833525e-05
0.0004593704981496945,3.4515056639439115e-05,-1.5401489223929556e-05
0.00047197230730974284,3.4747892340803975e-05,-1.5384173486684495e-05
0.0004954358468849844,3.498974437935266e-05,-1.5366739077504456e-05
0.000530211236172686,3.5246156150117075e-05,-1.5349180102372088e-05
0.000576711904243138,3.552288693522103e-05,-1.5331487841600754e-05
0.0006353100665774626,3.582589242792618e-05,-1.5313650646759968e-05
0.0007063323287197095,3.616130302675047e-05,-1.52956538478963e-05
0.0007900555210502804,3.653539998919297e-05,-1.5277479672142314e-05
0.0008867028507095416,3.6954589582132924e-05,-1.5259107174749484e-05
0.0009964404358729175,3.742537540377854e-05,-1.5240512183503005e-05
0.0011193742727151168,3.795432908092555e-05,-1.5221667257381828e-05
0.0012555476727728354,3.854805956729754e-05,-1.5202541660219773e-05
0.0014049391920403,3.9213181283500824e-05,-1.5183101350007073e-05
0.0015674610575045485,3.995628134588703e-05,-1.5163308984349727e-05
0.0017429580913032592,4.0783886133088984e-05,-1.5143123942479983e-05
0.0019312071369703748,4.1702427440157394e-05,-1.5122502364086672e-05
0.00213191699595249,4.271820847338811e-05,-1.5101397205108285e-05
0.002344728877340854,4.383736994171145e-05,-1.507975831050451e-05
0.0025692173503518187,4.506585649863461e-05,-1.5057532503894424e-05
0.0028048917739787473,4.640938377971726e-05,-1.5034663693824835e-05
0.003051198168886187,4.787340626543349e-05,-1.5011092996313548e-05
0.003307521499120319,4.946308618243512e-05,-1.4986758873201582e-05
0.0035731883458543466,5.118326364367879e-05,-1.4961597285745053e-05
0.0038474699755435154,5.3038428224028255e-05,-1.4935541862778126e-05
0.0041295858207905925,5.503269217311178e-05,-1.490852408267884e-05
0.0044187073959439565,5.7169765477295416e-05,-1.488047346826624e-05
0.004713962658577844,5.945293299092586e-05,-1.4851317793649185e-05
0.0050144408088998345,6.188503385779528e-05,-1.4820983301937004e-05
0.0053191975037892025,6.446844343596753e-05,-1.4789394932613563e-05
0.00562726045831263,6.7205057926493e-05,-1.4756476557272948e-05
0.005937635410711402,7.0096281893749e-05,-1.4722151222317889e-05
0.006249312423789837,7.31430188523743e-05,-1.4686341397131357e-05
