acceleration,velocity,displacement
-0.05254160924034253,0.0,0.0
-0.0502636305149024,-2.5701309938811232e-05,-6.425327484702808e-09
-0.047991549042012395,-5.026510482803993e-05,-2.5416931176415598e-08
-0.04573121681663063,-7.369579629270069e-05,-5.640715645660076e-08
-0.04348839593548254,-9.600069948072898e-05,-9.883128039995819e-08
-0.041268715170632,-0.00011718997725725761,-1.5212894958445482e-07
-0.039077628321124436,-0.00013727656313019672,-2.1574558468131842e-07
-0.036920374861472365,-0.00015627606392584593,-2.8913374144532907e-07
-0.03480194334682215,-0.00017420664347791957,-3.7175441829627044e-07
-0.032727037963690774,-0.0001910888888055478,-4.630783013671373e-07
-0.030700048538960377,-0.0002069456604312106,-5.625869386763269e-07
-0.02872502424230955,-0.0002218019286265281,-6.697738359407616e-07
-0.02680565113941153,-0.00023568459747195836,-7.841454674653832e-07
-0.02494523368037413,-0.0002486223186769048,-9.052221965025989e-07
-0.023146680146349272,-0.00026064529713358564,-1.0325391004552216e-06
-0.02141249202646537,-0.0002717850901767893,-1.1656466972828154e-06
-0.019744757252564776,-0.00028207440249654683,-1.3041115704511494e-06
-0.01814514717770256,-0.0002915468786041137,-1.4475168907263146e-06
-0.01661491714567783,-0.00030023689468495877,-1.5954628340485827e-06
-0.015154910463547817,-0.00030817935158726517,-1.7475668956166386e-06
-0.013765565559954685,-0.0003154094705931408,-1.90346410116174e-06
-0.01244692609293408,-0.000321962593506363,-2.062807117186616e-06
-0.011198653762896752,-0.0003278739884703207,-2.225266262680787e-06
-0.010020043586999348,-0.0003331786628077947,-2.390529425500316e-06
-0.008910041395734598,-0.00033791118405347817,-2.558301887215634e-06
-0.007867263316717433,-0.0003421055102315912,-2.7283060607869014e-06
-0.006890017011708271,-0.0003457948303136976,-2.9002811459232237e-06
-0.005976324431378354,-0.0003490114156744692,-3.0739827074202653e-06
-0.0051239458506882616,-0.0003517864832449859,-3.249182182150129e-06
-0.0043304049483817355,-0.0003541500709447534,-3.4256663206975637e-06
-0.0035930146965943263,-0.0003561309258559974,-3.6032365698977512e-06
-0.002908903827849716,-0.00035775640548710844,-3.7817084027335275e-06
-0.002275043646368848,-0.0003590523923556631,-3.96091060219422e-06
-0.0016882749517234134,-0.00036004322200518615,-4.140684505784432e-06
-0.0011453348489791151,-0.0003607516244553618,-4.320883217399569e-06
-0.0006428832313515379,-0.00036119867897544446,-4.501370793257271e-06
-0.00017752873861109518,-0.0003614037819679351,-4.682021408493116e-06
0.00025414598522244155,-0.0003613846276562823,-4.862718510899171e-06
0.0006555598935322149,-0.0003611572011865936,-5.0433539681098896e-06
0.0010301101460699015,-0.0003607357836766931,-5.223827214325711e-06
0.0013811498655927385,-0.0003601329686737774,-5.4040444024133285e-06
0.0017119671677113624,-0.0003593596894154514,-5.5839175669356356e-06
0.002025765565104535,-0.00035842525623224744,-5.76336380334756e-06
0.0023256458201004727,-0.00035733740338594617,-5.942304468252109e-06
0.0026145892941182923,-0.00035610234460739146,-6.120664405250443e-06
0.0028954428159528784,-0.0003547248365798737,-6.29837120054726e-06
0.003170905063327994,-0.0003532082496100535,-6.475354472094741e-06
0.0034435144298266026,-0.0003515546447367648,-6.651545195681446e-06
0.003715638339129404,-0.0003497648565445258,-6.826875071001768e-06
0.00398946397036785,-0.0003478385809671515,-7.0012759303796875e-06
0.00426699036769196,-0.0003457744673826365,-7.1746791924671344e-06
0.004550021918160731,-0.0003435702143111734,-7.347015362890587e-06
0.00484016319078542,-0.00034122266803393684,-7.518213583476864e-06
0.005138815134708845,-0.00033872792345256326,-7.688201231348489e-06
0.0054471726387474596,-0.00033608142650919917,-7.856903568838929e-06
0.005766223461088288,-0.0003332780774842402,-8.024243444837288e-06
0.006096748547278659,-0.0003303123344821485,-8.190141047828886e-06
0.006439323764034361,-0.00032717831640432024,-8.354513710550503e-06
0.006794323080452112,-0.0003238699046931986,-8.517275765824882e-06
0.007161923220673312,-0.00032038084311791727,-8.67833845277766e-06
0.007542109791151481,-0.0003167048348649611,-8.83760987227338e-06
0.007934684856210425,-0.0003128356362031206,-8.994994990040401e-06
0.008339275903917141,-0.0003087671460130887,-9.150395685594454e-06
0.008755346113438468,-0.0003044934905087498,-9.303710844724914e-06
0.009182205806404489,-0.00030000910252878907,-9.454836492984298e-06
0.009619024940356468,-0.0002953087948420988,-9.60366596732702e-06
0.010064846482030255,-0.00029038782698650214,-9.75009012278417e-06
0.010518600481106062,-0.0002852419652457181,-9.893997570842226e-06
0.010979118651831373,-0.0002798675354624837,-1.0035274946019277e-05
0.011445149260790316,-0.0002742614684843283,-1.0173807197005979e-05
0.011915372113311484,-0.00026842133814080287,-1.0309477898662262e-05
0.012388413432837236,-0.0002623453917542657,-1.0442169581136029e-05
0.012862860444689941,-0.00025603257328488387,-1.0571764072395815e-05
0.013337275508886475,-0.00024948253929648977,-1.069814285054116e-05
0.013810209684688386,-0.00024269566799809607,-1.0821187402364806e-05
0.014280215638156618,-0.0002356730616673848,-1.0940779584781175e-05
0.014745859818319109,-0.00022841654280326588,-1.1056801985898837e-05
0.015205733833073967,-0.0002209286443904176,-1.1169138282697258e-05
0.01565846495923373,-0.00021321259469234068,-1.1277673592467947e-05
0.016102725724377168,-0.00020527229702143796,-1.1382294815396392e-05
0.016537242500777576,-0.00019711230496514926,-1.1482890965893038e-05
0.016960803053031968,-0.0001887377935766969,-1.1579353490528499e-05
0.01737226298131148,-0.00018015452706811102,-1.1671576570689701e-05
0.017770551005045255,-0.00017136882357152183,-1.1759457408349609e-05
0.018154673043627532,-0.00016238751755935364,-1.1842896493632328e-05
0.01852371507449513,-0.00015321792052982297,-1.1921797853154622e-05
0.018876844781326528,-0.00014386778056586755,-1.1996069278428544e-05
0.019213312040077143,-0.00013434524136051663,-1.206562253391014e-05
0.019532448322931405,-0.0001246588012697645,-1.2130373544567712e-05
0.019833665127993026,-0.00011481727290703339,-1.2190242563111912e-05
0.02011645156467088,-0.00010482974373386742,-1.2245154317272137e-05
0.020380371238864083,-9.470553803298368e-05,-1.229503813771385e-05
0.020625058586112584,-8.445418057673952e-05,-1.233982806736628e-05
0.020850214797909307,-7.408536223073405e-05,-1.2379462953068148e-05
0.021055603482671194,-6.360890766058892e-05,-1.2413886520540979e-05
0.021241046200147877,-5.303474523988415e-05,-1.2443047433766097e-05
0.021406418000794767,-4.2372879189648486e-05,-1.2466899339873481e-05
0.021551643082495388,-3.163336391882595e-05,-1.24854009006506e-05
0.021676690643906912,-2.0826280487225372e-05,-1.2498515811752112e-05
0.02178157097495095,-9.961715082510905e-06,-1.2506212810644546e-05
0.021866331795337014,9.502606100610847e-07,-1.2508465674262658e-05
0.021931054840568523,1.1899607269037469e-05,-1.2505253207292883e-05
0.021975852698984638,2.2876334153925757e-05,-1.2496559221937141e-05
0.022000865913767622,3.3870513807113825e-05,-1.2482372509946881e-05
0.022006260372829684,4.4872295378763156e-05,-1.2462686807650411e-05
0.021992225011952776,5.587191672495877e-05,-1.2437500754624481e-05
0.021958969850113388,6.685971544047531e-05,-1.2406817846583123e-05
0.02190672436049497,7.78261389931274e-05,-1.2370646382974723e-05
0.021835736159201823,8.87617541230516e-05,-1.2328999409695678e-05
0.021746269971444403,9.965725565571316e-05,-1.2281894657250987e-05
0.021638606820104343,0.00011050347485360035,-1.222935447462366e-05
0.021513043380205498,0.00012129138740367781,-1.217140575905934e-05
0.021369891454659222,0.000132012121112394,-1.2108079881930323e-05
0.021209477543768403,0.00014265696336200091,-1.2039412610811724e-05
0.021032142491374035,0.00015321736837078652,-1.1965444027878527e-05
0.020838241188468158,0.00016368496429074706,-1.1886218444713144e-05
0.020628142305455278,0.00017405156016422793,-1.1801784313599399e-05
0.020402228015146313,0.00018430915274437833,-1.1712194135372248e-05
0.020160893664831134,0.0001944499331643727,-1.161750436389506e-05
0.01990454735898019,0.00020446629342032552,-1.1517775307248886e-05
0.01963360942203247,0.00021435083261557868,-1.141307102573991e-05
0.019348511715823063,0.00022409636290004255,-1.1303459226861004e-05
0.01904969678389705,0.00023369591502497259,-1.118901115737975e-05
0.018737616789330863,0.00024314274341827956,-1.1069801492768938e-05
0.018412732211633785,0.0002524303306685207,-1.0945908224247238e-05
0.01807551027592857,0.0002615523912904113,-1.0817412543757505e-05
0.017726423104161212,0.00027050287463543373,-1.0684398727276045e-05
0.017365945599181573,0.00027927596681126944,-1.0546954016914369e-05
0.01699455309058372,0.00028786609148371076,-1.0405168502340624e-05
0.016612718780856614,0.0002962679094515708,-1.0259135002106804e-05
0.01622091103725466,0.0003044763169060986,-1.0108948945517385e-05
0.01581959058794695,0.000312486442312399,-9.95470825571276e-06
0.015409207701406887,0.00032029364188473745,-9.796513234663475e-06
0.014990199448556861,0.00032789349367222837,-9.634466450774234e-06
0.014562987158587339,0.0003352817903240144,-9.468672629775173e-06
0.01412797417534467,0.0003424545306574974,-9.299238549529795e-06
0.013685544001318018,0.00034940791020166305,-9.126272939315004e-06
0.013236058886062068,0.00035613831092350806,-8.949886384033712e-06
0.012779858881228522,0.0003626422903653307,-8.770191233711503e-06
0.012317261349441225,0.0003689165704229982,-8.58730151851442e-06
0.011848560882489449,0.0003749580259809808,-8.401332869413426e-06
0.01137402956022508,0.00038076367359165945,-8.212402444520267e-06
0.010893917471226179,0.00038633066034952224,-8.020628861034972e-06
0.01040845342501432,0.0003916562530735824,-7.826132132679195e-06
0.00991784581145704,0.0003967378278827002,-7.629033612440125e-06
0.009422283595954642,0.00040157286023455313,-7.4294559404108114e-06
0.008921937466829613,0.0004061589155002492,-7.227522996477111e-06
0.008416961165972233,0.00041049364015844963,-7.023359857562436e-06
0.007907493033010617,0.0004145747537081953,-6.817092759095775e-06
0.007393657780153119,0.00041840004141148625,-6.608849060315854e-06
0.0068755684959200996,0.0004219673479805046,-6.398757212967856e-06
0.006353328858743245,0.0004252745723191704,-6.186946732892938e-06
0.005827035529643147,0.000428319663416267,-5.973548173959078e-06
0.005296780685003193,0.00043110061746992856,-5.758693103737529e-06
0.0047626546426836665,0.00043361547630185027,-5.542514080294585e-06
0.004224748528295061,0.000435862327094595,-5.325144629445473e-06
0.0036831569267880295,0.00043783930345836573,-5.106719221807233e-06
0.003137980469140431,0.0004395445878073478,-4.887373248990805e-06
0.0025893283130718186,0.0004409764150029009,-4.667242998288243e-06
0.002037320486867123,0.0004421330772028856,-4.446465625236796e-06
0.0014820900725925998,0.00044301292984275055,-4.2251791234753875e-06
0.000923785206864888,0.0004436143986626149,-4.003522291349046e-06
0.0003625708750528685,0.00044393598768309434,-3.7816346947626183e-06
-0.00020136952731083835,0.00044397628802002987,-3.5596566258368373e-06
-0.0007678328887999578,0.0004437339874160022,-3.3377290569778294e-06
-0.0013365953448088066,0.0004432078803576,-3.115993590034429e-06
-0.001907411510336847,0.0004423968786438136,-2.8945924002840755e-06
-0.0024800139810934804,0.000441300022270956,-2.673668175055383e-06
-0.0030541131062537747,0.0004399164904991192,-2.4533640468628643e-06
-0.0036293970411981616,0.0004382456129622562,-2.2338235209975205e-06
-0.004205532084713702,0.0004362868806807782,-2.0151903975867617e-06
-0.004782163289946612,0.00043403995683711317,-1.7976086882072888e-06
-0.0053589153127580405,0.000431504687186437,-1.5812225272014012e-06
-0.005935393429636449,0.0004286811100008384,-1.3661760779045824e-06
-0.006511184632227203,0.00042556946548537246,-1.1526134340330296e-06
-0.0070858586994375534,0.00042217020465245626,-9.406785164985724e-07
-0.007658969161835444,0.000418483997687138,-7.305149659136739e-07
-0.008230054096317212,0.00041451174187259987,-5.222660310237395e-07
-0.008798636711376887,0.00041025456917067633,-3.160744532629204e-07
-0.00936422570119357,0.0004057138535675337,-1.1208234757836789e-07
-0.009926315359687925,0.0004008912183023133,8.956892038909388e-08
-0.010484385455042204,0.0003957885430986308,2.8873886073932987e-07
-0.011037900876256506,0.0003904079715158061,4.852879893929391e-07
-0.01158631108105612,0.000384751918526478,6.790779619035101e-07
-0.012129049396126955,0.0003788230784071822,8.699717111369251e-07
-0.01266553223814026,0.00037262443299861537,1.0578335889883745e-06
-0.013195158332940018,0.0003661592603558453,1.2425295123269897e-06
-0.01371730801193684,0.0003594311437696261,1.4239271133583576e-06
-0.014231342662109311,0.00035244398110111455,1.6018958945760428e-06
-0.014736604402540241,0.00034520199433495216,1.7763073884350594e-06
-0.015232416060262216,0.00033770973921925157,1.9470353218236102e-06
-0.015718081521920932,0.00032997211482370576,2.1139557853343498e-06
-0.01619288653808596,0.000321994372808704,2.276947407242452e-06
-0.01665610004415845,0.00031378212616314295,2.4358915319854137e-06
-0.017106976033030043,0.00030534135714384584,2.5906724028121607e-06
-0.017544755976285017,0.0002966784241415171,2.7411773481335014e-06
-0.017968671752872197,0.00028780006720922777,2.8872969709711877e-06
-0.018377949015983712,0.0002787134120170138,3.028925340777748e-06
-0.01877181091515541,0.00026942597203422904,3.1659601867905588e-06
-0.01914948209111704,0.00025994564878266093,3.2983030919947815e-06
-0.019510192870751838,0.0002502807300421937,3.4258596867009953e-06
-0.019853183601116785,0.00024043988592422656,3.5485398406926003e-06
-0.020177709066348238,0.0002304321627573603,3.666257852862997e-06
-0.020483042926233444,0.00022026697475921488,3.7789326372421405e-06
-0.02076848210630374,0.0002099540935010806,3.886487904307215e-06
-0.021033351064419115,0.00019950363520839987,3.988852336484585e-06
-0.021277005860566474,0.00018892604597715347,4.085959756780973e-06
-0.021498837964421175,0.00017823208502090656,4.1777492895304885e-06
-0.021698277748167318,0.00016743280609275943,4.264165512308905e-06
-0.021874797628584092,0.00015653953724857159,4.345158598144238e-06
-0.022027914842742465,0.00014556385913073994,4.420684447239066e-06
-0.022157193866620156,0.00013451758195339927,4.4907048075101e-06
-0.022262248509566224,0.00012341272135935267,4.5551873833382885e-06
-0.022342743726729418,0.00011226147330027876,4.614105932003196e-06
-0.02239839717911918,0.0001010761880738166,4.66744034734672e-06
-0.022428980546356062,8.98693436424478e-05,4.715176730275786e-06
-0.02243432057980291,7.865351836090805e-05,4.757307445776625e-06
-0.02241429988369358,6.744136324503393e-05,4.79383116617811e-06
-0.02236885742225624,5.624557391854647e-05,4.824752900469005e-06
-0.022297988758410204,4.507886237337986e-05,4.850084009541987e-06
-0.02220174602809409,3.395392867675378e-05,4.86984220730452e-06
-0.02208023764693253,2.2883432757997126e-05,4.884051547663207e-06
-0.021933627739498487,1.1879966411389371e-05,4.892742397455554e-06
-0.02176213528021936,9.560256564599081e-07,4.895951395472517e-06
-0.021566032940554005,-9.876016398733433e-06,4.8937213977869485e-06
-0.02134564564684999,-2.0603936045584433e-05,4.886101409675869e-06
-0.021101348860213535,-3.1215684672350314e-05,4.873146504496385e-06
-0.020833566589422318,-4.1699413534759274e-05,4.854917729944608e-06
-0.020542769145121913,-5.204349746839533e-05,4.831482002193819e-06
-0.020229470647141572,-6.22365574164612e-05,4.802911988472605e-06
-0.019894226311038668,-7.226748165600626e-05,4.7692859787044874e-06
-0.019537629561236183,-8.212544562407497e-05,4.730687746884467e-06
-0.019160309037745033,-9.179993027382028e-05,4.687206402909994e-06
-0.01876292557261307,-0.0001012807389264098,4.6389362356099366e-06
-0.018346169206281633,-0.00011055801262113348,4.5859765477230506e-06
-0.017910756294590192,-0.00011962224399635143,4.528431483568679e-06
-0.0174574267324879,-0.00012846428975312095,4.4664098501313105e-06
-0.01698694130124993,-0.0001370753817615554,4.400024932252642e-06
-0.01650007913701237,-0.00014544713687112098,4.329394302594473e-06
-0.015997635314400453,-0.00015357156548397418,4.254639627005699e-06
-0.01548041853368382,-0.00016144107894599524,4.175886465898206e-06
-0.01494924889514677,-0.0001690484958032029,4.0932640722109065e-06
-0.014404955744981067,-0.00017638704696323486,4.006905186519297e-06
-0.013848375584492187,-0.00018345037979560318,3.916945829829587e-06
-0.013280350046681823,-0.0001902325612033967,3.823525094579837e-06
-0.012701723958449585,-0.00019672807970467953,3.726784934352818e-06
-0.01211334351798545,-0.00020293184657378828,3.6268699527832008e-06
-0.011516054619153823,-0.0002088391961080731,3.5239271921127352e-06
-0.010910701344691942,-0.00021444588509903455,3.4181059218109584e-06
-0.010298124630976676,-0.0002197480915929517,3.309557427637962e-06
-0.009679161088075535,-0.00022474241302271474,3.198434801484045e-06
-0.009054641950011932,-0.0002294258637822366,3.084892732282807e-06
-0.008425392137085229,-0.0002337958723040109,2.9690872982612452e-06
-0.007792229430714713,-0.00023785027769596088,2.8511757607612523e-06
-0.007155963780971179,-0.00024158732599888235,2.7313163598375417e-06
-0.0065173967769493486,-0.0002450056661383625,2.6096681118032306e-06
-0.005877321305349517,-0.0002481043456589372,2.4863906088539056e-06
-0.005236521403665481,-0.000250882806336191,2.3616438208551235e-06
-0.004595772285106547,-0.000253340879758384,2.2355878993314796e-06
-0.003955840479307115,-0.0002554787829494874,2.108382983654512e-06
-0.0033174840047650684,-0.00025729711407050546,1.9801890093995136e-06
-0.0026814524743881884,-0.00025879684819029376,1.8511655188343137e-06
-0.00204848703916328,-0.00025997933306868166,1.72147147351957e-06
-0.0014193200945902206,-0.00026084628485212004,1.5912650690393694e-06
-0.0007946747024887927,-0.0002613997835513898,1.4607035519384919e-06
-0.00017526370767067222,-0.00026164226815392964,1.329943039012162e-06
0.00043821145251501947,-0.00026157653121771854,1.19913833916925e-06
0.0010450622368150045,-0.00026120571279538606,1.068442778165974e-06
0.001644614766310591,-0.00026053329354460466,9.380080265809763e-07
0.002236211833288372,-0.0002595630868947049,8.079839314711488e-07
0.0028192151100003052,-0.00025829923015888276,6.785183522077519e-07
0.003393007519144288,-0.00025674617450159663,5.49757001042632e-07
0.003956995733350123,-0.00025490867368847304,4.2184328899511457e-07
0.004510612763050139,-0.000252791771564373,2.9491817768190303e-07
0.005053320571804587,-0.0002504007882306593,1.6912003773314494e-07
0.0055846126381514085,-0.00024774130492817033,4.458451444343753e-08
0.0061040163760559965,-0.0002448191476746185,-7.855559870725965e-08
0.0066110953381416215,-0.00024164036974606907,-2.0017047806243153e-07
0.007105451155553922,-0.00023821123312264518,-3.201333787796101e-07
0.007586725207460461,-0.00023453818903189158,-4.383207343182443e-07
0.00805460004769957,-0.00023062785771810158,-5.546122460057426e-07
0.008508800631562568,-0.00022648700754828604,-6.688909623223394e-07
0.008949095379663064,-0.00022212253354547963,-7.810433475957809e-07
0.009375297099677908,-0.0002175414354256444,-8.909593398385619e-07
0.009787263773502506,-0.0002127507952073493,-9.985323974968104e-07
0.010184899211966383,-0.00020775775446098206,-1.1036595349138932e-06
0.010568153578488516,-0.00020256949126336833,-1.2062413463449807e-06
0.010937023780156364,-0.0001971931969237071,-1.3061820183917494e-06
0.011291553716082191,-0.00019163605254964746,-1.403389330760088e-06
0.0116318343622054,-0.00018590520553007556,-1.4977746452800188e-06
0.011958003663788666,-0.00018000774602357705,-1.589252883168432e-06
0.012270246201939358,-0.00017395068355714505,-1.6777424905636124e-06
0.012568792597651429,-0.00016774092385724737,-1.7631653924172105e-06
0.012853918618858375,-0.0001613852460531199,-1.8454469348948024e-06
0.013125943965313469,-0.00015489028040707696,-1.9245158165098517e-06
0.013385230719062035,-0.00014826248673598309,-2.000304008295617e-06
