frame_number,force
0,696.9395800037157
1,696.9632091987295
2,696.9867946600915
3,697.0102928730745
4,697.0336607664307
5,697.0568559469742
6,697.0798369470267
7,697.1025634867217
8,697.1249967533139
9,697.1470996997251
10,697.1688373633447
11,697.1901772035864
12,697.2110894538914
13,697.2315474816913
14,697.2515281486042
15,697.2710121628397
16,697.2899844163485
17,697.3084343003745
18,697.3263559942014
19,697.3437487225752
20,697.360616977458
21,697.3769706996408
22,697.3928254156923
23,697.4082023260738
24,697.4231283410577
25,697.4376360621933
26,697.4517637082388
27,697.4655549854542
28,697.4790589029316
29,697.4923295346701
30,697.5054257316154
31,697.5184107883865
32,697.5313520702117
33,697.544320605316
34,697.5573906468319
35,697.5706392069428
36,697.5841455653733
37,697.5979907549744
38,697.612257028544
39,697.6270273124705
40,697.6423846539523
41,697.6584116692411
42,697.6751900001683
43,697.6927997849192
44,697.7113191469779
45,697.7308237040061
46,697.7513860965005
47,697.7730755344099
48,697.7959573585374
49,697.8200926127855
50,697.8455376234056
51,697.8723435823795
52,697.9005561337696
53,697.9302149642581
54,697.961353401894
55,697.9939980295691
56,698.0281683211745
57,698.0638763083298
58,698.1011262842641
59,698.1399145498239
60,698.1802292056277
61,698.222049994364
62,698.2653481977857
63,698.3100865935288
64,698.3562194768347
65,698.4036927510604
66,698.452444088642
67,698.5024031617228
68,698.5534919399186
69,698.6056250518227
70,698.6587102063575
71,698.7126486695768
72,698.7673357920531
73,698.8226615816317
74,698.8785113161498
75,698.9347661909217
76,698.9913039966326
77,699.0479998245862
78,699.1047267972986
79,699.1613568225324
80,699.2177613677678
81,699.2738122503256
82,699.3293824370285
83,699.384346847129
84,699.4385831527999
85,699.4919725716657
86,699.5444006450732
87,699.5957579943616
88,699.645941046037
89,699.6948527162226
90,699.7424030454367
91,699.788509776592
92,699.8330988717732
93,699.876104966368
94,699.9174717618088
95,699.957152359675
96,699.9951095397031
97,700.0313159827116
98,700.065754437509
99,700.0984178294126
100,700.1293093076654
101,700.1584422298773
102,700.1858400829731
103,700.2115363413247
104,700.2355742640186
105,700.2580066349294
106,700.2788954507843
107,700.2983115624847
108,700.3163342734631
109,700.3330508969215
110,700.348556272519
111,700.3629522425299
112,700.3763470873679
113,700.3888549207284
114,700.4005950457021
115,700.4116912749082
116,700.4222712193728
117,700.4324655518823
118,700.442407250338
119,700.4522308251208
120,700.4620715323074
121,700.472064572761
122,700.4823442762944
123,700.4930432703624
124,700.5042916339465
125,700.5162160392257
126,700.5289388859338
127,700.5425774357291
128,700.557242956366
129,700.5730398876111
130,700.5900650416411
131,700.6084068493079
132,700.6281446606538
133,700.6493481051776
134,700.6720765161365
135,700.6963784236749
136,700.7222911223716
137,700.7498403183243
138,700.7790398588149
139,700.8098915449673
140,700.8423850261584
141,700.8764977749059
142,700.9121951418007
143,700.9494304906859
144,700.9881454144098
145,701.0282700314369
146,701.0697233636639
147,701.1124137956697
148,701.1562396148447
149,701.2010896301528
150,701.2468438648724
151,701.2933743159789
152,701.3405457704486
153,701.3882166672619
154,701.4362399934565
155,701.4844642031774
156,701.5327341501281
157,701.5808920256226
158,701.628778295641
159,701.6762326305802
160,701.7230948213579
161,701.7692056759188
162,701.81440789096
163,701.8585468943525
164,701.901471653883
165,701.9430354475397
166,701.9830965898603
167,702.0215191082549
168,702.0581733632074
169,702.0929366073906
170,702.1256934809882
171,702.1563364431273
172,702.1847661412914
173,702.2108917215992
174,702.234631083165
175,702.2559110796388
176,702.2746676704663
177,702.2908460234702
178,702.3044005693317
179,702.3152950078869
180,702.3235022660313
181,702.3290044072994
182,702.3317924935496
183,702.331866399445
184,702.3292345806078
185,702.3239137968089
186,702.3159287929581
187,702.3053119431355
188,702.2921028654324
189,702.2763480166135
190,702.2581002752444
191,702.2374185206812
192,702.2143672139972
193,702.189015985914
194,702.1614392360987
195,702.1317157474097
196,702.0999283175106
197,702.0661634089084
198,702.0305108175095
199,701.9930633596285
200,701.9539165778989
201,701.9131684670662
202,701.870919220698
203,701.8272709993574
204,701.7823277199606
205,701.7361948651827
206,701.6889793112846
207,701.6407891728725
208,701.5917336635786
209,701.5419229719362
210,701.4914681515913
211,701.4404810244108
212,701.3890740938908
213,701.3373604647456
214,701.2854537636483
215,701.2334680566943
216,701.1815177609254
217,701.1297175489223
218,701.0781822460738
219,701.0270267196225
220,700.976365757433
221,700.9263139331388
222,700.8769854533077
223,700.8284939820046
224,700.7809524389164
225,700.7344727687126
226,700.6891656809522
227,700.645140361368
228,700.602504156991
229,700.5613622395491
230,700.5218172535995
231,700.4839689571901
232,700.4479138628002
233,700.4137448846976
234,700.3815509961497
235,700.3514168971657
236,700.3234226916431
237,700.2976435723314
238,700.2741495126418
239,700.2530049656187
240,700.2342685718884
241,700.2179928793832
242,700.2042240774113
243,700.1930017463119
244,700.1843586224531
245,700.1783203775532
246,700.1749054113889
247,700.1741246574875
248,700.175981402245
249,700.180471119305
250,700.1875813229298
251,700.1972914457048
252,700.2095727462932
253,700.2243882519666
254,700.2416927389442
255,700.2614327519918
256,700.283546663763
257,700.307964774187
258,700.3346094504574
259,700.3633953081616
260,700.3942294333468
261,700.4270116438086
262,700.4616347858503
263,700.4979850607133
264,700.5359423735495
265,700.5753806977275
266,700.616168448263
267,700.6581688597099
268,700.7012403656964
269,700.7452369794723
270,700.7900086770785
271,700.8354017864123
272,700.8812593863291
273,700.927421720487
274,700.9737266311689
275,701.0200100182836
276,701.066106327625
277,701.1118490705794
278,701.1570713755028
279,701.2016065691818
280,701.2452887849016
281,701.2879535916203
282,701.3294386371598
283,701.3695842977974
284,701.4082343269004
285,701.4452364955025
286,701.4804432176533
287,701.5137121534292
288,701.544906783185
289,701.5738969480577
290,701.6005593536377
291,701.6247780354882
292,701.6464447862925
293,701.6654595448404
294,701.6817307474682
295,701.6951756433449
296,701.7057205756748
297,701.7133012304562
298,701.7178628526125
299,701.7193604268292
300,701.7177588182558
301,701.7130328671565
302,701.705167431945
303,701.6941573765068
304,701.6800074995303
305,701.6627324053014
306,701.6423563173706
307,701.618912839113
308,701.5924446682554
309,701.5630032751085
310,701.5306485557126
311,701.495448471036
312,701.4574786818357
313,701.4168221861516
314,701.373568963107
315,701.3278156234328
316,701.2796650648285
317,701.2292261293289
318,701.176613259713
319,701.1219461517647
320,701.0653493986048
321,701.00695212273
322,700.9468875912316
323,700.8852928100688
324,700.8223080942932
325,700.7580766126808
326,700.6927439069179
327,700.6264573867976
328,700.5593658036445
329,700.4916187048796
330,700.4233658738116
331,700.3547567603674
332,700.285939909914
333,700.2170623979987
334,700.1482692787441
335,700.0797030541953
336,700.011503171364
337,699.943805552913
338,699.876742166246
339,699.8104406344037
340,699.7450238909145
341,699.6806098796447
342,699.6173112994918
343,699.5552353924263
344,699.4944837722255
345,699.4351522903853
346,699.3773309348328
347,699.321103755899
348,699.2665488128928
349,699.2137381342721
350,699.1627376851524
351,699.1136073372246
352,699.0664008374663
353,699.0211657733518
354,698.9779435339937
355,698.9367692685131
356,698.8976718441548
357,698.8606738068657
358,698.8257913466673
359,698.7930342696607
360,698.7624059778872
361,698.7339034575314
362,698.7075172755256
363,698.6832315847598
364,698.6610241386235
365,698.6408663163278
366,698.6227231614482
367,698.6065534371951
368,698.5923097025782
369,698.5799384135613
370,698.5693800527498
371,698.5605692906786
372,698.5534351816792
373,698.5479013973694
374,698.5438865004721
375,698.5413042606756
376,698.5400640126853
377,698.5400710548307
378,698.5412270848814
379,698.5434306683567
380,698.5465777338411
381,698.5505620900311
382,698.5552759604325
383,698.5606105329892
384,698.5664565224291
385,698.5727047426524
386,698.5792466857982
387,698.5859751042375
388,698.592784591563
389,698.5995721584065
390,698.6062377986776
391,698.6126850416734
392,698.6188214852353
393,698.6245593045003
394,698.6298157300117
395,698.6345134885131
396,698.6385811998642
397,698.6419537238775
398,698.6445724509273
399,698.6463855297848
400,698.6473480258923
401,698.6474220042983
402,698.6465765343422
403,698.6447876174072
404,698.6420380431884
405,698.6383171827197
406,698.6336207275806
407,698.6279503845811
408,698.6213135342064
409,698.6137228597429
410,698.6051959529995
411,698.5957549022924
412,698.5854258685677
413,698.574238655416
414,698.5622262778685
415,698.5494245336095
416,698.5358715793118
417,698.5216075143782
418,698.506673974166
419,698.4911137345015
420,698.474970328878
421,698.4582876791736
422,698.4411097401952
423,698.4234801583376
424,698.4054419454662
425,698.38703717065
426,698.3683066740267
427,698.3492898085186
428,698.3300242162941
429,698.3105456474633
430,698.2908878279518
431,698.2710823816383
432,698.2511588092035
433,698.2311445235536
434,698.2110649397101
435,698.1909436157035
436,698.1708024400099
437,698.1506618603848
438,698.1305411485059
439,698.1104586942708
440,698.0904323225493
441,698.0704796238797
442,698.0506182896403
443,698.0308664418584
444,698.0112429478455
445,697.9917677101887
446,697.9724619234948
447,697.9533482906497
448,697.9344511928219
449,697.9157968088456
450,697.8974131813779
451,697.8793302296386
452,697.8615797110845
453,697.8441951362825
454,697.8272116424005
455,697.8106658313651
456,697.7945955787642
457,697.7790398188246
458,697.764038309608
459,697.7496313816582
460,697.7358596731613
461,697.7227638551362
462,697.7103843508412
463,697.6987610542097
464,697.6879330524483
465,697.6779383575968
466,697.6688136508783
467,697.6605940426141
468,697.6533128500055
469,697.6470013953256
470,697.6416888274842
471,697.637401969822
472,697.6341651960116
473,697.6320003342629
474,697.6309265979837
475,697.6309605389779
476,697.6321160175446
477,697.6344041829276
478,697.6378334574928
479,697.6424095182526
480,697.648135269626
481,697.6550108019567
482,697.6630333315582
483,697.6721971196201
484,697.6824933689037
485,697.6939100987448
486,697.7064320005113
487,697.7200402772385
488,697.7347124725846
489,697.7504222953523
490,697.7671394464367
491,697.7848294550648
492,697.8034535305802
493,697.8229684348903
494,697.8433263792982
495,697.8644749482885
496,697.8863570524603
497,697.9089109129865
498,697.9320700798572
499,697.9557634852603
500,697.9799155322576
501,698.0044462181593
502,698.0292712915883
503,698.0543024416505
504,698.0794475168816
505,698.1046107713809
506,698.1296931360441
507,698.1545925136286
508,698.1792040970838
509,698.2034207112347
510,698.2271331786756
511,698.2502307115769
512,698.2726013317183
513,698.2941323210367
514,698.3147107041809
515,698.3342237635292
516,698.3525595863597
517,698.3696076429799
518,698.3852593930225
519,698.399408915007
520,698.4119535522857
521,698.4227945668752
522,698.4318377913482
523,698.438994268185
524,698.444180866404
525,698.4473208670289
526,698.4483445111579
527,698.4471895060786
528,698.4438014857749
529,698.4381344226592
530,698.4301509874493
531,698.4198228534182
532,698.4071309401589
533,698.3920655916453
534,698.3746266844436
535,698.3548236638849
536,698.3326755080022
537,698.3082106209663
538,698.2814666598641
539,698.2524903006484
540,698.2213369499077
541,698.188070408149
542,698.1527624883472
543,698.1154925922434
544,698.0763472471544
545,698.0354196074446
546,697.9928089262863
547,697.9486200042343
548,697.9029626213573
549,697.8559509594307
550,697.8077030201418
551,697.7583400444053
552,697.7079859366386
553,697.6567666963341
554,697.6048098578133
555,697.552243937921
556,697.4991978907377
557,697.445800568204
558,697.392180185933
559,697.3384637944365
560,697.2847767573111
561,697.2312422390215
562,697.1779807052263
563,697.1251094381596
564,697.0727420692133
565,697.0209881311578
566,696.9699526331385
567,696.919735661893
568,696.8704320123521
569,696.822130850462
570,696.7749154110653
571,696.7288627337239
572,696.6840434390274
573,696.6405215473156
574,696.5983543413848
575,696.557592274892
576,696.5182789282989
577,696.4804510136524
578,696.4441384284845
579,696.4093643584033
580,696.3761454278388
581,696.3444918983349
582,696.3144079131625
583,696.285891785747
584,696.2589363278927
585,696.2335292126462
586,696.2096533660456
587,696.1872873815302
588,696.1664059499998
589,696.1469802976976
590,696.128978624232
591,696.1123665348302
592,696.097107463683
593,696.0831630875465
594,696.0704937297731
595,696.0590587547339
596,696.0488169518776
597,696.0397269081299
598,696.0317473672692
599,696.0248375751003
600,696.0189576092575
601,696.0140686919977
602,696.010133483095
603,696.0071163480778
604,696.0049835955001
605,696.0037036769364
606,696.0032473450834
607,696.0035877678115
608,696.004700598316
609,696.0065640032755
610,696.0091586519857
611,696.0124676698722
612,696.0164765599102
613,696.0211730956872
614,696.0265471901483
615,696.0325907441717
616,696.0392974788289
617,696.0466627547778
618,696.0546833824382
619,696.0633574276466
620,696.0726840186045
621,696.0826631598617
622,696.0932955572983
623,696.1045824551748
624,696.1165254834065
625,696.1291265112648
626,696.1423875032509
627,696.1563103738785
628,696.1708968396119
629,696.1861482671751
630,696.2020655176342
631,696.2186487858976
632,696.2358974361799
633,696.2538098352275
634,696.2723831859671
635,696.2916133644059
636,696.3114947621723
637,696.3320201364082
638,696.3531804682563
639,696.3749648311731
640,696.3973602705365
641,696.4203516962223
642,696.4439217899628
643,696.4680509293902
644,696.4927171306391
645,696.517896011132
646,696.5435607737027
647,696.5696822127303
648,696.5962287427259
649,696.623166449908
650,696.6504591676153
651,696.6780685768999
652,696.7059543345599
653,696.7340742320914
654,696.7623843897508
655,696.7908394893408
656,696.8193930478022
657,696.847997732125
658,696.8766057148912
659,696.9051690688332
660,696.9336401980913
661,696.9619723031234
662,696.9901198748537
663,697.018039211501
664,697.0456889493023
665,697.0730305969063
666,697.1000290628274
667,697.1266531658084
668,697.1528761188871
669,697.1786759791443
670,697.2040360563532
671,697.2289452748248
672,697.253398483345
673,697.2773967081727
674,697.3009473440662
675,697.324064278961
676,697.3467679495552
677,697.3690853272292
678,697.3910498354805
679,697.4127012008588
680,697.4340852394618
681,697.4552535809214
682,697.4762633317595
683,697.4971766801684
684,697.5180604448225
685,697.5389855711859
686,697.5600265794918
687,697.5812609684382
688,697.6027685774992
689,697.6246309093272
690,697.6469304133476
691,697.6697497328628
692,697.6931709200004
693,697.717274624695
694,697.7421392652565
695,697.7678401891112
696,697.794448833034
697,697.8220318924774
698,697.8506505094384
699,697.8803594879494
700,697.9112065459782
701,697.9432316121631
702,697.9764661752599
703,698.0109326935673
704,698.0466440710254
705,698.0836032061993
706,698.1218026200062
707,698.1612241676909
708,698.2018388399594
709,698.2436066573997
710,698.2864766614077
711,698.3303870035692
712,698.3752651337801
713,698.4210280858529
714,698.4675828583241
715,698.5148268873565
716,698.5626486077521
717,698.6109280973926
718,698.6595377999911
719,698.7083433204778
720,698.757204286381
721,698.80597526747
722,698.8545067449454
723,698.9026461205027
724,698.9502387546949
725,698.9971290237476
726,699.0431613847775
727,699.0881814408757
728,699.1320369988309
729,699.1745791127823
730,699.2156631070003
731,699.2551495706869
732,699.2929053173191
733,699.3288043007952
734,699.362728480745
735,699.3945686297877
736,699.424225076074
737,699.4516083751718
738,699.4766399063275
739,699.4992523891386
740,699.5193903175866
741,699.5370103092339
742,699.5520813679881
743,699.5645850588264
744,699.5745155926356
745,699.5818798200393
746,699.5866971353497
747,699.5889992947069
748,699.5888301546128
749,699.5862453379
750,699.5813118343153
751,699.5741075430519
752,699.5647207647955
753,699.5532496508005
754,699.5398016159047
755,699.5244927211828
756,699.5074470303144
757,699.4887959420055
758,699.4686774993119
759,699.4472356757494
760,699.424619637844
761,699.4009829842158
762,699.3764829620634
763,699.3512796627081
764,699.3255351987312
765,699.2994128662675
766,699.2730762969197
767,699.2466886039673
768,699.2204115268925
769,699.194404577352
770,699.1688241894345
771,699.1438228779178
772,699.1195484102846
773,699.0961430008985
774,699.0737425378142
775,699.052475853001
776,699.0324640450152
777,699.0138198603324
778,698.996647137245
779,698.9810403155612
780,698.967084016307
781,698.9548526970761
782,698.9444103892379
783,698.9358105223556
784,698.9290958395029
785,698.9242984054176
786,698.921439707697
787,698.9205308492708
788,698.9215728283182
789,698.924556900038
790,698.9294650133946
791,698.9362703149147
792,698.9449377107866
793,698.9554244782718
794,698.9676809179324
795,698.9816510389599
796,698.9972732702515
797,699.0144811893608
798,699.033204260168
799,699.0533685688878
800,699.0748975477012
801,699.0977126760945
802,699.121734151356
803,699.1468815210375
804,699.173074271546
805,699.2002323685756
806,699.2282767465347
807,699.2571297450023
808,699.2867154904757
809,699.3169602216128
810,699.3477925562955
811,699.3791436995484
812,699.4109475926999
813,699.4431410057891
814,699.4756635766825
815,699.5084578016525
816,699.5414689834626
817,699.5746451440427
818,699.6079369089701
819,699.641297369949
820,699.6746819300448
821,699.708048135482
822,699.7413554975766
823,699.7745653084352
824,699.8076404540849
825,699.8405452286382
826,699.8732451528308
827,699.9057067995714
828,699.9378976281243
829,699.9697858276307
830,700.0013401700947
831,700.0325298726358
832,700.063324468694
833,700.093693687939
834,700.1236073446436
835,700.1530352342818
836,700.1819470385337
837,700.2103122398693
838,700.2381000480058
839,700.2652793413247
840,700.2918186266131
841,700.3176860203545
842,700.3428492543943
843,700.3672757080656
844,700.3909324673235
845,700.4137864090229
846,700.4358043060523
847,700.4569529479198
848,700.4771992719498
849,700.4965105017269
850,700.514854290756
851,700.5321988699926
852,700.548513197952
853,700.5637671119003
854,700.5779314787104
855,700.5909783444032
856,700.6028810816688
857,700.6136145346574
858,700.623155160787
859,700.6314811707507
860,700.6385726696415
861,700.6444118029104
862,700.6489829103091
863,700.6522726896078
864,700.6542703703782
865,700.6549678967272
866,700.6543601166121
867,700.6524449743031
868,700.6492237017618
869,700.6447010041381
870,700.6388852339941
871,700.6317885481516
872,700.6234270404893
873,700.6138208440792
874,700.6029941970684
875,700.5909754685651
876,700.5777971429842
877,700.5634957633613
878,700.5481118357587
879,700.5316896978428
880,700.5142773549425
881,700.4959262866088
882,700.4766912262745
883,700.4566299163657
884,700.4358028412487
885,700.4142729405924
886,700.3921053059136
887,700.369366863075
888,700.3461260432878
889,700.3224524448182
890,700.2984164872538
891,700.2740890598772
892,700.2495411655743
893,700.2248435619858
894,700.2000664021925
895,700.1752788777733
896,700.1505488675008
897,700.1259425955792
898,700.1015243041501
899,700.0773559452465
900,700.0534968969672
901,700.0300037074315
902,700.0069298686442
903,699.9843256214556
904,699.9622377927849
905,699.9407096671974
906,699.9197808963838
907,699.8994874512914
908,699.8798616217368
909,699.8609320670009
910,699.8427239186425
911,699.8252589340493
912,699.8085556961832
913,699.792629851905
914,699.7774943789984
915,699.7631598712759
916,699.7496348318407
917,699.736925966043
