frame_number,force
0,828.1085800077243
1,828.0148362678118
2,827.9212715966071
3,827.828063826095
4,827.7353883339413
5,827.6434168631664
6,827.5523163956797
7,827.4622480943063
8,827.3733663256677
9,827.2858177739514
10,827.1997406532876
11,827.1152640238328
12,827.0325072137475
13,826.9515793465217
14,826.872578970931
15,826.7955937891214
16,826.7207004768392
17,826.6479645891517
18,826.5774405456596
19,826.5091716907467
20,826.4431904256415
21,826.3795184090347
22,826.3181668219123
23,826.2591366911618
24,826.2024192662733
25,826.1479964438245
26,826.0958412346635
27,826.0459182685962
28,825.9981843314521
29,825.9525889300443
30,825.9090748816832
31,825.8675789259808
32,825.8280323571933
33,825.7903616752315
34,825.75448925308
35,825.7203340180092
36,825.6878121435603
37,825.6568377485268
38,825.6273235977966
39,825.5991817983029
40,825.5723244822058
41,825.5466644690924
42,825.5221158989144
43,825.4985948270047
44,825.4760197720976
45,825.4543122086606
46,825.4333969966149
47,825.413202744497
48,825.39366210545
49,825.3747120082843
50,825.3562938278957
51,825.3383535006667
52,825.3208415911693
53,825.3037133163402
54,825.2869285322869
55,825.2704516875001
56,825.2542517453508
57,825.2383020786172
58,825.2225803390296
59,825.2070683048508
60,825.1917517092133
61,825.1766200515366
62,825.1616663941139
63,825.1468871457314
64,825.1322818335589
65,825.117852863611
66,825.1036052694989
67,825.0895464494689
68,825.0756858928369
69,825.0620348983599
70,825.0486062882676
71,825.0354141223419
72,825.0224734169437
73,825.009799874376
74,824.9974096279583
75,824.9853190072888
76,824.9735443269308
77,824.9621017012302
78,824.9510068884061
79,824.9402751677414
80,824.9299212537163
81,824.9199592500773
82,824.9104026455059
83,824.9012643512237
84,824.8925567797451
85,824.8842919628261
86,824.8764817050761
87,824.8691377676297
88,824.8622720743182
89,824.8558969315075
90,824.8500252522131
91,824.8446707752005
92,824.8398482706326
93,824.8355737252708
94,824.8318645017918
95,824.8287394681581
96,824.8262190942011
97,824.8243255135154
98,824.8230825492509
99,824.8225157025597
100,824.8226521026545
101,824.8235204177031
102,824.8251507261368
103,824.8275743485339
104,824.8308236412241
105,824.83493175413
106,824.8399323569554
107,824.8458593392451
108,824.8527464905435
109,824.8606271667308
110,824.869533947989
111,824.8794982933526
112,824.8905501968472
113,824.9027178505829
114,824.9160273202771
115,824.9305022382165
116,824.9461635178495
117,824.9630290932698
118,824.9811136857465
119,825.0004285981212
120,825.0209815365434
121,825.0427764580938
122,825.0658134426882
123,825.0900885883766
124,825.1155939305575
125,825.142317387204
126,825.1702427333191
127,825.1993496082589
128,825.229613559559
129,825.2610061267513
130,825.2934949682631
131,825.3270440334394
132,825.3616137799632
133,825.3971614349354
134,825.4336412964478
135,825.471005071679
136,825.5092022464983
137,825.5481804796308
138,825.5878860123418
139,825.628264083809
140,825.6692593432311
141,825.7108162514726
142,825.7528794667685
143,825.7953942102695
144,825.8383066078165
145,825.8815640043646
146,825.9251152472413
147,825.9689109344481
148,826.0129036249409
149,826.0570480091719
150,826.1013010394258
151,826.1456220202882
152,826.1899726604314
153,826.2343170883587
154,826.2786218367369
155,826.322855801879
156,826.3669901862039
157,826.4109984317804
158,826.4548561527045
159,826.4985410738207
160,826.5420329831801
161,826.5853137045146
162,826.6283670931009
163,826.6711790546034
164,826.7137375835462
165,826.7560328165317
166,826.79805709451
167,826.8398050277679
168,826.8812735571088
169,826.9224620052612
170,826.9633721138619
171,827.0040080631067
172,827.0443764729176
173,827.0844863857155
174,827.1243492312091
175,827.1639787728917
176,827.2033910343207
177,827.2426042012547
178,827.2816384942311
179,827.3205160059921
180,827.3592604994511
181,827.3978971640886
182,827.4364523311682
183,827.4749531507109
184,827.5134272356133
185,827.5519022805911
186,827.5904056654537
187,827.6289640530149
188,827.6676029913561
189,827.7063465287584
190,827.7452168484139
191,827.7842339294311
192,827.8234152402354
193,827.8627754696458
194,827.9023262995355
195,827.9420762212881
196,827.9820303965901
197,828.0221905614783
198,828.0625549710517
199,828.1031183812494
200,828.1438720640512
201,828.1848038533428
202,828.2258982199191
203,828.2671363749336
204,828.3084964012446
205,828.3499534119549
206,828.3914797356267
207,828.4330451282605
208,828.4746170127137
209,828.516160746681
210,828.557639920857
211,828.5990166894426
212,828.6402521349981
213,828.6813066680262
214,828.7221404586554
215,828.7627138944695
216,828.8029880559637
217,828.8429251996113
218,828.8824892377968
219,828.9216462047125
220,828.9603646974521
221,828.9986162815986
222,829.0363758504499
223,829.0736219272603
224,829.1103369011936
225,829.1465071901191
226,829.1821233266072
227,829.2171799669717
228,829.2516758262385
229,829.2856135438335
230,829.3189994857576
231,829.3518434898681
232,829.384158561963
233,829.4159605312822
234,829.4472676745223
235,829.4781003177576
236,829.508480425951
237,829.538431189499
238,829.5679766157097
239,829.597141130331
240,829.6259491912982
241,829.6544249149804
242,829.6825917147976
243,829.7104719528971
244,829.7380866068888
245,829.7654549546601
246,829.7925942804856
247,829.8195196049867
248,829.8462434403331
249,829.8727755709602
250,829.8991228595007
251,829.9252890777168
252,829.9512747627115
253,829.977077099091
254,830.0026898278896
255,830.0281031831116
256,830.0533038567704
257,830.0782749931527
258,830.1029962127341
259,830.1274436658841
260,830.151590116207
261,830.175405053041
262,830.1988548324583
263,830.2219028462329
264,830.2445097185381
265,830.266633530144
266,830.2882300693124
267,830.3092531078223
268,830.329654700418
269,830.3493855067705
270,830.368395136017
271,830.3866325141939
272,830.4040462742637
273,830.4205851673973
274,830.4361984929163
275,830.4508365428258
276,830.4644510551612
277,830.4769956686486
278,830.4884263702344
279,830.4987019276174
280,830.5077843006017
281,830.5156390268165
282,830.5222355784877
283,830.5275476876258
284,830.5315536374027
285,830.5342365177414
286,830.5355844433928
287,830.5355907330548
288,830.534254048309
289,830.5315784912688
290,830.5275736599272
291,830.5222546598674
292,830.5156420696172
293,830.5077618546264
294,830.4986452228429
295,830.4883284144174
296,830.4768524196113
297,830.4642626220138
298,830.4506083677153
299,830.4359424643234
300,830.4203206164399
301,830.4038008067067
302,830.3864426340201
303,830.3683066229966
304,830.3494535209937
305,830.3299436005003
306,830.3098359851191
307,830.2891880165599
308,830.2680546782071
309,830.2464880882438
310,830.2245370722695
311,830.2022468222253
312,830.179658645534
313,830.156809805635
314,830.1337334521768
315,830.1104586360074
316,830.0870104013911
317,830.0634099462119
318,830.0396748403168
319,830.0158192920495
320,829.9918544527789
321,829.9677887488707
322,829.9436282308194
323,829.9193769307075
324,829.8950372212786
325,829.8706101714431
326,829.846095893245
327,829.8214938746947
328,829.7968032922953
329,829.7720232968725
330,829.7471532665594
331,829.722193021899
332,829.6971430004871
333,829.6720043918041
334,829.6467792351929
335,829.6214704841241
336,829.5960820385733
337,829.5706187462742
338,829.5450863739401
339,829.5194915509818
340,829.4938416897584
341,829.4681448870189
342,829.4424098106882
343,829.4166455751149
344,829.390861607209
345,829.3650675059769
346,829.3392728985965
347,829.3134872969331
348,829.287719958785
349,829.2619797577612
350,829.2362750646885
351,829.2106136424055
352,829.1850025550928
353,829.159448092764
354,829.1339557111777
355,829.1085299877299
356,829.0831745951052
357,829.0578922957492
358,829.0326849605365
359,829.0075536141966
360,828.9824985085774
361,828.9575192229048
362,828.932614787957
363,828.9077838290552
364,828.883024721717
365,828.8583357540714
366,828.8337152913585
367,828.8091619392264
368,828.7846747035052
369,828.760253144643
370,828.7358975254499
371,828.711608951644
372,828.6873895057477
373,828.663242375603
374,828.6391719789216
375,828.6151840848007
376,828.5912859319566
377,828.5674863417523
378,828.5437958227458
379,828.5202266632833
380,828.4967930096218
381,828.4735109280728
382,828.4503984496333
383,828.4274755945719
384,828.4047643736054
385,828.3822887625664
386,828.360074648598
387,828.3381497470691
388,828.3165434888707
389,828.2952868775125
390,828.274412314869
391,828.2539533941033
392,828.2339446588547
393,828.2144213293171
394,828.1954189976658
395,828.1769732966717
396,828.159119546262
397,828.1418923837075
398,828.1253253840539
399,828.1094506779855
400,828.0942985742785
401,828.0798971934382
402,828.0662721182485
403,828.0534460662203
404,828.0414385886845
405,828.0302658015632
406,828.0199401533912
407,828.0104702363976
408,828.0018606455782
409,827.9941118884095
410,827.987220345099
411,827.9811782773099
412,827.9759738823664
413,827.9715913891606
414,827.9680111908361
415,827.9652100083009
416,827.963161078582
417,827.9618343630801
418,827.9611967722624
419,827.9612124045658
420,827.9618427981055
421,827.9630471942124
422,827.9647828118896
423,827.9670051320513
424,827.9696681903312
425,827.9727248776828
426,827.9761272487348
427,827.9798268382843
428,827.983774986113
429,827.9879231698196
430,827.9922233451323
431,827.9966282930698
432,828.0010919726523
433,828.0055698764168
434,828.0100193846188
435,828.0144001135196
436,828.0186742534661
437,828.0228068930589
438,828.026766326231
439,828.0305243391823
440,828.0340564736478
441,828.0373422623231
442,828.0403654322411
443,828.0431140727593
444,828.0455807661491
445,828.0477626801218
446,828.0496616226939
447,828.0512840601364
448,828.052641098362
449,828.0537484276554
450,828.0546262307159
451,828.055299054513
452,828.0557956472293
453,828.0561487622767
454,828.0563949315568
455,828.0565742096284
456,828.0567298895886
457,828.0569081906702
458,828.0571579170424
459,828.0575300873893
460,828.0580775356123
461,828.058854484048
462,828.0599160913579
463,828.0613179776243
464,828.0631157294234
465,828.0653643878978
466,828.0681179231657
467,828.071428698798
468,828.0753469306723
469,828.0799201454428
470,828.0851926451112
471,828.0912049852172
472,828.0979934744928
473,828.1055897034253
474,828.114020108504
475,828.1233055780641
476,828.1334611042928
477,828.1444954842588
478,828.1564110715909
479,828.1692035801664
480,828.1828619415954
481,828.197368218879
482,828.2126975790696
483,828.2288183281589
484,828.2456920117168
485,828.2632735845428
486,828.2815116510915
487,828.3003487758502
488,828.3197218602824
489,828.3395625813847
490,828.3597978864002
491,828.380350538067
492,828.4011397043702
493,828.4220815859491
494,828.4430900734086
495,828.4640774262028
496,828.4849549647009
497,828.5056337675909
498,828.5260253678935
499,828.5460424421397
500,828.5655994878904
501,828.5846134843812
502,828.6030045302692
503,828.6206964522254
504,828.6376173787762
505,828.6537002749192
506,828.6688834340782
507,828.6831109247753
508,828.6963329898533
509,828.7085063959836
510,828.7195947304756
511,828.7295686416558
512,828.738406019195
513,828.746092111985
514,828.7526195828093
515,828.7579885003404
516,828.762206269827
517,828.7652875045048
518,828.767253840552
519,828.7681336994431
520,828.7679620025707
521,828.7667798433729
522,828.7646341215909
523,828.7615771431163
524,828.7576661879945
525,828.7529630491125
526,828.7475335448079
527,828.7414470094224
528,828.7347757659602
529,828.7275945844633
530,828.7199801291001
531,828.7120103966555
532,828.7037641487859
533,828.6953203399083
534,828.6867575425689
535,828.6781533732029
536,828.6695839228543
537,828.6611231986457
538,828.6528425824039
539,828.6448103131631
540,828.6370910003207
541,828.6297451736687
542,828.6228288753211
543,828.6163932970665
544,828.6104844653644
545,828.6051429753592
546,828.6004037747383
547,828.5962959976155
548,828.5928428476733
549,828.5900615289038
550,828.587963221881
551,828.586553103391
552,828.5858304067629
553,828.5857885192581
554,828.5864151121776
555,828.5876922996689
556,828.5895968232452
557,828.5921002596898
558,828.5951692500382
559,828.5987657476637
560,828.6028472847875
561,828.607367258241
562,828.612275235876
563,828.6175172845659
564,828.6230363202468
565,828.628772480598
566,828.634663521357
567,828.640645236789
568,828.6466519029449
569,828.6526167401461
570,828.6584723902827
571,828.6641514051928
572,828.6695867432018
573,828.6747122707437
574,828.679463265171
575,828.6837769142599
576,828.6875928079804
577,828.69085341845
578,828.6935045640638
579,828.6954958534819
580,828.6967811050109
581,828.6973187373753
582,828.6970721285328
583,828.6960099392418
584,828.6941063974792
585,828.6913415394355
586,828.6877014035439
587,828.6831781757401
588,828.6777702860247
589,828.671482457565
590,828.6643257098424
591,828.6563173171534
592,828.6474807234763
593,828.6378454144482
594,828.6274467469138
595,828.6163257361509
596,828.6045288005487
597,828.5921074636008
598,828.5791180138363
599,828.5656211244823
600,828.5516814354826
601,828.5373671007488
602,828.5227493037827
603,828.5079017454218
604,828.4929001078957
605,828.4778214991609
606,828.4627438810586
607,828.4477454848875
608,828.4329042185699
609,828.4182970701693
610,828.4039995123967
611,828.3900849117082
612,828.3766239442527
613,828.3636840201638
614,828.3513287178403
615,828.3396172307404
616,828.3286038307386
617,828.3183373542623
618,828.3088607198285
619,828.3002104874977
620,828.292416471463
621,828.2855014162487
622,828.2794807449985
623,828.2743623855533
624,828.2701466768757
625,828.2668263552943
626,828.264386617628
627,828.2628052570446
628,828.2620528677019
629,828.2620931156152
630,828.2628830750164
631,828.2643736305916
632,828.2665099457371
633,828.2692319954554
634,828.2724751601295
635,828.2761708735782
636,828.2802473161063
637,828.2846301410748
638,828.289243221849
639,828.2940094048271
640,828.2988512537913
641,828.3036917711748
642,828.308455082988
643,828.3130670761052
644,828.317455979258
645,828.3215528821297
646,828.3252921897006
647,828.3286120107473
648,828.3314544801812
649,828.3337660154226
650,828.3354975077285
651,828.3366044502153
652,828.3370470051266
653,828.3367900139925
654,828.3358029561045
655,828.3340598629254
656,828.331539197615
657,828.3282237087774
658,828.3241002657917
659,828.3191596807989
660,828.313396520979
661,828.3068089147127
662,828.2993983558482
663,828.2911695105082
664,828.2821300302497
665,828.2722903742431
666,828.2616636420162
667,828.2502654175426
668,828.2381136250567
669,828.2252283967443
670,828.2116319521671
671,828.1973484888352
672,828.182404082845
673,828.1668265982224
674,828.150645603817
675,828.1338922972245
676,828.1165994357624
677,828.0988012743719
678,828.0805335094959
679,828.0618332270017
680,828.042738851532
681,828.0232900944272
682,828.0035278973687
683,827.9834943689463
684,827.9632327113634
685,827.9427871345056
686,827.922202754721
687,827.9015254761867
688,827.8808018539606
689,827.8600789396639
690,827.839404112581
691,827.8188249001506
692,827.7983887921782
693,827.7781430528069
694,827.758134533703
695,827.7384094914975
696,827.7190134125692
697,827.6999908484817
698,827.681385265216
699,827.6632389085061
700,827.6455926862867
701,827.628486067992
702,827.611956999475
703,827.5960418314731
704,827.5807752584418
705,827.5661902632751
706,827.5523180624909
707,827.5391880464939
708,827.5268277107713
709,827.5152625760027
710,827.5045160973956
711,827.494609565374
712,827.4855620005184
713,827.4773900452703
714,827.4701078537629
715,827.4637269797537
716,827.4582562614395
717,827.4537017012648
718,827.4500663391836
719,827.4473501192417
720,827.4455497512176
721,827.4446585707916
722,827.4446664031562
723,827.4455594362046
724,827.4473201102404
725,827.449927031253
726,827.4533549141609
727,827.4575745613861
728,827.4625528812089
729,827.4682529499429
730,827.4746341218778
731,827.4816521905439
732,827.4892596035174
733,827.4974057306904
734,827.5060371832996
735,827.5150981789691
736,827.5245309471944
737,827.5342761699718
738,827.5442734528549
739,827.5544618217502
740,827.5647802400322
741,827.5751681394714
742,827.5855659575749
743,827.5959156733713
744,827.6061613332691
745,827.6162495583936
746,827.6261300250821
747,827.6357559111591
748,827.6450843021215
749,827.6540765532216
750,827.6626986052795
751,827.6709212534
752,827.6787203684063
753,827.6860770709678
754,827.6929778583083
755,827.699414683307
756,827.7053849861161
757,827.71089167904
758,827.7159430857497
759,827.720552835517
760,827.7247397125305
761,827.7285274599958
762,827.7319445385637
763,827.7350238386986
764,827.7378023473369
765,827.7403207707838
766,827.7426231176145
767,827.7447562466103
768,827.7467693854247
769,827.7487136261324
770,827.7506414041623
771,827.7526059671893
772,827.7546608403043
773,827.7568592933375
774,827.759253815759
775,827.7618956041322
776,827.7648340665706
777,827.7681163480686
778,827.7717868800273
779,827.7758869570071
780,827.780454343854
781,827.7855229169529
782,827.7911223443118
783,827.7972778100713
784,827.8040097891783
785,827.8113338769219
786,827.8192606760564
787,827.827795742127
788,827.8369395860528
789,827.8466877321938
790,827.8570308297483
791,827.8679548148301
792,827.87944111972
793,827.8914669250083
794,827.904005450342
795,827.9170262803068
796,827.930495722863
797,827.9443771978792
798,827.9586316524785
799,827.9732179983941
800,827.9880935649128
801,828.0032145598935
802,828.0185365310466
803,828.0340148199323
804,828.0496050016437
805,828.0652633036244
806,828.0809469974579
807,828.0966147579828
808,828.1122269852707
809,828.1277460871795
810,828.1431367227723
811,828.1583660086607
812,828.1734036905924
813,828.1882222816756
814,828.2027971674121
815,828.2171066768808
816,828.2311321193887
817,828.244857786831
818,828.2582709236633
819,828.271361668196
820,828.2841229705833
821,828.2965504945321
822,828.3086425111877
823,828.3203997939708
824,828.3318255216999
825,828.3429251946804
826,828.3537065656471
827,828.3641795852594
828,828.37435636042
829,828.3842511229059
830,828.3938802054055
831,828.4032620217068
832,828.4124170471555
833,828.4213677947224
834,828.4301387816885
835,828.4387564824619
836,828.447249264081
837,828.4556473018538
838,828.4639824729452
839,828.4722882257361
840,828.4805994231248
841,828.4889521591186
842,828.4973835496103
843,828.5059314990477
844,828.514634444178
845,828.5235310746863
846,828.532660029304
847,828.5420595654937
848,828.5517672014281
849,828.5618193306377
850,828.5722508118935
851,828.583094538951
852,828.5943809963234
853,828.6061378083004
854,828.6183892889455
855,828.6311560007663
856,828.6444543294258
857,828.6582960817983
858,828.6726881152626
859,828.687632007088
860,828.7031237732858
861,828.7191536457548
862,828.7357059150623
863,828.7527588444349
864,828.7702846590503
865,828.7882496135796
866,828.8066141397439
867,828.8253330740433
868,828.8443559637794
869,828.863627447273
870,828.883087702255
871,828.9026729551897
872,828.9223160437266
873,828.9419470241403
874,828.961493815022
875,828.9808828675841
876,829.0000398519381
877,829.0188903479421
878,829.0373605291056
879,829.0553778288928
880,829.0728715805186
881,829.0897736235306
882,829.1060188726117
883,829.1215458456231
884,829.1362971487101
885,829.1502199164207
886,829.1632662046194
887,829.1753933339376
888,829.186564182094
889,829.1967474248902
890,829.2059177276635
891,829.2140558906544
892,829.2211489524772
893,829.2271902554817
894,829.2321794754878
895,829.2361226166087
896,829.2390319699384
897,829.2409260329187
898,829.2418293845578
899,829.241772510882
900,829.240791575356
901,829.2389281304038
902,829.2362287682711
903,829.2327447120674
904,829.2285313506786
905,829.2236477238873
906,829.2181559660612
907,829.2121207179764
908,829.2056085168882
909,829.1986871751095
910,829.191425157144
911,829.1838909645172
912,829.1761525357394
913,829.1682766669596
914,829.1603284578567
915,829.152370787548
916,829.1444638261564
917,829.1366645882132
