frame_number,force
0,596.676820000044
1,596.9529510158335
2,597.2152325827086
3,597.4512094247561
4,597.6510024083025
5,597.8081193263591
6,597.9198208799179
7,597.9870516872467
8,598.0140030336376
9,598.0074045331797
10,597.9756587229793
11,597.9279400187759
12,597.8733698118021
13,597.8203471734199
14,597.7760665347593
15,597.7462050773679
16,597.7347279372921
17,597.7437515053276
18,597.7734333613499
19,597.8219107791252
20,597.8853499771935
21,597.9581639566672
22,598.0334208980971
23,598.1034321297908
24,598.1604847767956
25,598.1976530674754
26,598.2095857753011
27,598.1931482139292
28,598.1478121312256
29,598.0757320339545
30,597.9815032433627
31,597.8716461268864
32,597.7538934978114
33,597.6363739863444
34,597.5267853359993
35,597.4316401544307
36,597.355648684383
37,597.3012895974204
38,597.268616250706
39,597.2553438241624
40,597.2572444311758
41,597.2688259488515
42,597.2841887918221
43,597.2978860645972
44,597.3056148220596
45,597.3046450235773
46,597.2939860485795
47,597.2743399096432
48,597.2478951355454
49,597.2180081802754
50,597.1888190638856
51,597.1648490714135
52,597.1506172126074
53,597.1502859287431
54,597.167320426796
55,597.2041437583191
56,597.2617988281294
57,597.3396675636528
58,597.4353174776944
59,597.5445354219662
60,597.6615740746705
61,597.7795940220536
62,597.8912476425159
63,597.9893252133929
64,598.0673745004863
65,598.1202276389861
66,598.1444186697325
67,598.1385109388798
68,598.1033447336155
69,598.0421795068571
70,597.960676831033
71,597.866661359212
72,597.7696071085437
73,597.6798362923726
74,597.6074919019478
75,597.5614231875476
76,597.5481612019386
77,597.571146234669
78,597.6303211493757
79,597.7221469635523
80,597.8400356283877
81,597.9751293889927
82,598.1172962094823
83,598.256180626453
84,598.3821697416541
85,598.4871954950383
86,598.5653539228578
87,598.6133403287561
88,598.6306804800224
89,598.619718899242
90,598.5853300907253
91,598.5343465733769
92,598.4747449379438
93,598.4146909966194
94,598.3615929766896
95,598.3213169623875
96,598.2976736974201
97,598.2922139688457
98,598.3043050795023
99,598.3314241442231
100,598.3695968620696
101,598.4139214049432
102,598.4591293366814
103,598.5001379702608
104,598.5325453050885
105,598.5530257885925
106,598.5596093404771
107,598.5518472130569
108,598.5308599877976
109,598.4992328591142
110,598.4607147434366
111,598.419721903076
112,598.380719974271
113,598.3476046020982
114,598.3231961874344
115,598.3089306778277
116,598.3047896445722
117,598.3094725528301
118,598.3207712173943
119,598.3360614372533
120,598.352785772398
121,598.3687922421992
122,598.3824487644238
123,598.3925578023078
124,598.3981813466926
125,598.3984936612075
126,598.3927168271457
127,598.3801247367512
128,598.3600763521551
129,598.3320579297211
130,598.2957399905049
131,598.2510574715176
132,598.1983008340156
133,598.1381877948542
134,598.0718913811539
135,598.0010200871646
136,597.9275526880962
137,597.8537208239828
138,597.7818324525621
139,597.7140520760217
140,597.6521792777176
141,597.5974690836487
142,597.5505154459827
143,597.5111953764122
144,597.4786645292347
145,597.4514040624949
146,597.4273294358538
147,597.4039712607024
148,597.3787228722176
149,597.3491290810252
150,597.3131812712031
151,597.2695885921922
152,597.2179992102898
153,597.1591381922583
154,597.0948197093793
155,597.0278011697111
156,596.961478934378
157,596.8994600673583
158,596.8450644850304
159,596.800822402111
160,596.7680457259156
161,596.7465574268584
162,596.7346359665904
163,596.7291786828125
164,596.7260419176716
165,596.7204941160752
166,596.7077131609959
167,596.6832637705808
168,596.6435079586666
169,596.5859296620207
170,596.5093789380437
171,596.4142455438376
172,596.3025547581603
173,596.1779552087778
174,596.0455593881835
175,595.9116125902091
176,595.7829975827016
177,595.6666138961364
178,595.5686929075562
179,595.494124063782
180,595.4458761876588
181,595.4245983029084
182,595.4284688450444
183,595.453326052667
184,595.4930658265026
185,595.5402546021735
186,595.5868828981827
187,595.6251747820424
188,595.6483588974078
189,595.6512985558201
190,595.630890679968
191,595.5861917191396
192,595.518297013191
193,595.430048476217
194,595.3256483900717
195,595.2102276198717
196,595.0893909323195
197,594.9687617107975
198,594.8535621413868
199,594.7482722463634
200,594.6564060670644
201,594.5804255205504
202,594.5217780425361
203,594.4810023738281
204,594.4578264648904
205,594.451206619026
206,594.4593199848663
207,594.479578807102
208,594.5087357447824
209,594.5430938490098
210,594.5787755922739
211,594.61199344586
212,594.6392981035389
213,594.6578182211803
214,594.6655125652889
215,594.6614279051879
216,594.6459158651498
217,594.6207383350483
218,594.5889991552822
219,594.5548732482114
220,594.5231472582743
221,594.4986256980628
222,594.4854860254504
223,594.4866814997805
224,594.5034913324405
225,594.5353006587076
226,594.5796543115888
227,594.632573471084
228,594.6890719839455
229,594.7437802559277
230,594.7915835648894
231,594.828195840803
232,594.850609268236
233,594.8573873774532
234,594.8488026462562
235,594.8268390208532
236,594.795073390215
237,594.7584378150223
238,594.7228697006002
239,594.6948747105948
240,594.6810391109192
241,594.6875301628107
242,594.7196197217392
243,594.781260346788
244,594.8747397272881
245,595.0004416387402
246,595.1567415689819
247,595.3400487425199
248,595.5449757183778
249,595.7645957875546
250,595.9907588154788
251,596.2144695736491
252,596.4263550296118
253,596.6172366023573
254,596.7787911063981
255,596.9042514920728
256,596.9890728203591
257,597.0314717317783
258,597.0327478147829
259,596.9973186926372
260,596.9324389799912
261,596.8476125878232
262,596.7537433716059
263,596.6621059174921
264,596.5832582669501
265,596.5260477895977
266,596.4968551464223
267,596.4991686194062
268,596.5335056214608
269,596.5976393179261
270,596.6870643755116
271,596.7956369059026
272,596.9163295808836
273,597.0420368597178
274,597.166344388598
275,597.2841597208909
276,597.3921111951141
277,597.4886570972351
278,597.573893127646
279,597.6491016546242
280,597.7161515872151
281,597.776904689591
282,597.8327757019529
283,597.8845299952217
284,597.9323225638096
285,597.9759234660984
286,598.0150472716538
287,598.0496978919895
288,598.0804454954537
289,598.1085670564535
290,598.1360091352539
291,598.1651716049458
292,598.1985561422522
293,598.238358087134
294,598.2860943324395
295,598.3423502926682
296,598.406694626328
297,598.4777600542365
298,598.5534476788265
299,598.6312010906719
300,598.7083081401221
301,598.7822003339925
302,598.8507227653998
303,598.912349618486
304,598.9663296467252
305,599.0127552587861
306,599.0525441010602
307,599.0873078205731
308,599.1190874069335
309,599.1499778058333
310,599.1817260701184
311,599.215421237742
312,599.2513692981717
313,599.2891720743947
314,599.3279484194604
315,599.366593990366
316,599.4039845119609
317,599.4390721123235
318,599.47088195905
319,599.4984602013747
320,599.520833355673
321,599.537018720046
322,599.5460980670995
323,599.5473427857171
324,599.54035375309
325,599.5251633202108
326,599.5022628932265
327,599.4725672508323
328,599.4373674740066
329,599.398318312318
330,599.3574563398971
331,599.317194386656
332,599.2802232084617
333,599.2492824143237
334,599.2268247380251
335,599.214659135986
336,599.2136806723764
337,599.2237599365427
338,599.2437940835903
339,599.2718657104449
340,599.3054498848978
341,599.3416438715753
342,599.3774268011646
343,599.4099557806096
344,599.4368770393426
345,599.4566067287044
346,599.4685333364198
347,599.4731029457214
348,599.4717585673254
349,599.4667210419875
350,599.4606297894369
351,599.4560989605006
352,599.4552678089539
353,599.4594197269234
354,599.4687185878397
355,599.4820835549958
356,599.4972080375709
357,599.5107212079752
358,599.51848182712
359,599.5159831844571
360,599.4988360013413
361,599.4632801116983
362,599.4066593542871
363,599.327789434384
364,599.2271604792517
365,599.1069389308585
366,598.9707626370074
367,598.8233582758317
368,598.6700474521526
369,598.5162354266887
370,598.3669812115498
371,598.2267212782663
372,598.0991640706698
373,597.9873075552924
374,597.8934868038524
375,597.819357807008
376,597.7657704780498
377,597.7325552457075
378,597.7183095022893
379,597.7202944216516
380,597.734525580999
381,597.7560757884247
382,597.7795467660596
383,597.7996370323883
384,597.811725430727
385,597.8123836370735
386,597.7997309300503
387,597.77356652453
388,597.735264326086
389,597.6874772965363
390,597.6337418676399
391,597.5780713209723
392,597.5245874781699
393,597.4771978536328
394,597.4393105428768
395,597.4135900119334
396,597.4017727874424
397,597.4045668128707
398,597.4216454297272
399,597.4517213711785
400,597.4926678419861
401,597.5416612936515
402,597.5953471089912
403,597.6500457369815
404,597.7020003316653
405,597.7476283789592
406,597.7837180476241
407,597.8075333361551
408,597.8168437998413
409,597.8099289979033
410,597.7856013932787
411,597.7432626975485
412,597.6829860383085
413,597.6056073268173
414,597.5128062214317
415,597.4071566057738
416,597.2921284800212
417,597.172021553852
418,597.0518034494883
419,596.9368272825735
420,596.8324313496969
421,596.7434696289421
422,596.6738551539598
423,596.626197303774
424,596.601586644263
425,596.5995496042636
426,596.6181685302447
427,596.6543350299532
428,596.7040801712573
429,596.7629199259405
430,596.8261723634937
431,596.8892318360113
432,596.9478106740695
433,596.9981708916044
434,597.0373619617546
435,597.0634586537444
436,597.075763120778
437,597.0749111122188
438,597.062824176286
439,597.0424894178292
440,597.0176064659282
441,596.9921805066977
442,596.970140392102
443,596.9550309714518
444,596.9497898329216
445,596.9565874817506
446,596.9766982435589
447,597.0103831564006
448,597.0567994576219
449,597.1139810838855
450,597.1789337834527
451,597.2478516443435
452,597.3164196558481
453,597.3801583537926
454,597.4347905002899
455,597.4766219249551
456,597.502898367823
457,597.5120552931584
458,597.5037768373394
459,597.4788417845936
460,597.4388138128741
461,597.3856755140016
462,597.3215010244645
463,597.2482368478942
464,597.167633581389
465,597.0813374088416
466,596.9911035946237
467,596.8990510142017
468,596.807860624719
469,596.7208368015363
470,596.6417867458745
471,596.5747174263488
472,596.5233932110925
473,596.4908318375979
474,596.4788346812126
475,596.4876492232017
476,596.5158503304104
477,596.5604962085845
478,596.6175519392582
479,596.6824883250539
480,596.7509005266224
481,596.8189897679993
482,596.8838101150088
483,596.943268344087
484,596.9959447073371
485,597.0408495452863
486,597.0772263960542
487,597.1044601417511
488,597.1220843537301
489,597.1298439228157
490,597.1277620814772
491,597.1161700987583
492,597.0956808776599
493,597.0671221261372
494,597.0314684969366
495,596.989805556278
496,596.9433308065413
497,596.893374158501
498,596.8414160575251
499,596.7890874544747
500,596.7381386130492
501,596.6903640145123
502,596.6474756775067
503,596.6109258866712
504,596.5816886578499
505,596.5600213362975
506,596.5452485533924
507,596.5356325398187
508,596.5283971581375
509,596.5199456577609
510,596.506263990796
511,596.4834579010245
512,596.4483511643652
513,596.3990694548507
514,596.3355306789701
515,596.2597528568524
516,596.1758915022256
517,596.0899468707219
518,596.0091351385271
519,595.9409827579009
520,595.8922673113932
521,595.8679763147481
522,595.8704684858975
523,595.8989905717774
524,595.9496359251291
525,596.0157458800165
526,596.0886706187994
527,596.1587474950418
528,596.2163392793834
529,596.2527941026532
530,596.2612226949241
531,596.237029381647
532,596.1781799827712
533,596.085231368066
534,595.9611715856538
535,595.8111254264562
536,595.6419721047191
537,595.4619024910024
538,595.279923594333
539,595.1053119334512
540,594.9470273916709
541,594.813118351275
542,594.7101702216601
543,594.6428614999273
544,594.6136826969285
545,594.6228457005443
546,594.6683773350015
547,594.7463631688861
548,594.8512948233243
549,594.9764795193884
550,595.1144860637376
551,595.2576121261768
552,595.3983566137688
553,595.529870418792
554,595.6463447515816
555,595.7432928905586
556,595.8177026055747
557,595.8680712773427
558,595.894354470365
559,595.8978542635756
560,595.8810656001782
561,595.8474965354657
562,595.8014688761793
563,595.7478863498671
564,595.6919510945003
565,595.63883202193
566,595.5933191839516
567,595.5595043956506
568,595.5405101699512
569,595.5382725808931
570,595.55338443472
571,595.5850153807428
572,595.6309295031692
573,595.6876139008472
574,595.7505243874159
575,595.8144526595847
576,595.8740093115764
577,595.9241863914413
578,595.9609276872424
579,595.9816240511137
580,595.9854681144813
581,595.9736228262153
582,595.9491693221166
583,595.9168163969804
584,595.8823858193948
585,595.8521256053261
586,595.8319353426837
587,595.8266055599705
588,595.8391726290778
589,595.8704753914379
590,595.9189763030456
591,595.9808817831516
592,596.0505639815996
593,596.1212478838218
594,596.1858841903488
595,596.2380865179923
596,596.2729817970729
597,596.2878195745969
598,596.2822270939006
599,596.2580842051484
600,596.2190893264936
601,596.1701458381432
602,596.1167063606634
603,596.0641945222299
604,596.0175916276493
605,595.9812216145949
606,595.9587008757736
607,595.9529703810242
608,595.9663184882467
609,596.0003344044675
610,596.0557883190173
611,596.132486078971
612,596.2291651783929
613,596.3434793727694
614,596.472084013584
615,596.6108100232973
616,596.7549085406882
617,596.8993489277121
618,597.0391470013803
619,597.1696874814886
620,597.2869973853725
621,597.3879384802974
622,597.470312782007
623,597.5328967502621
624,597.5754268778538
625,597.5985570275395
626,597.6038032581715
627,597.5934879134749
628,597.5706927134012
629,597.539226940734
630,597.503602204204
631,597.4689760439952
632,597.44099944065
633,597.4255087793175
634,597.4280524663762
635,597.4533090780292
636,597.5044992215816
637,597.5829018197388
638,597.6875634108802
639,597.8152492683507
640,597.9606439111087
641,598.1167785865968
642,598.2756433433334
643,598.4289201655317
644,598.5687460894139
645,598.688393827493
646,598.7827655947411
647,598.8486429090931
648,598.8847021248114
649,598.8913611900894
650,598.8705478897141
651,598.8254696723327
652,598.760425899509
653,598.6806506885414
654,598.5921320518496
655,598.501340236827
656,598.4148214153423
657,598.3386643240038
658,598.2779060370758
659,598.235985382359
660,598.2143653100824
661,598.212419935753
662,598.227614423134
663,598.2559218377692
664,598.2923706765642
665,598.3316235768579
666,598.3685247852532
667,598.3985839513764
668,598.4183764702952
669,598.42584084731
670,598.4204434807419
671,598.403171947743
672,598.3763340399504
673,598.343188760705
674,598.3074877543172
675,598.2730260103027
676,598.2432841009947
677,598.2212076899492
678,598.2091278796194
679,598.2087851823774
680,598.2213880744047
681,598.2476274076453
682,598.2875943735967
683,598.3406087037412
684,598.4050274371017
685,598.478141469804
686,598.5562589858557
687,598.6350169557479
688,598.709871376305
689,598.7766375553124
690,598.8319269370324
691,598.8733662443983
692,598.8995639336194
693,598.9098763277756
694,598.9040953749194
695,598.8822058322488
696,598.8443219976249
697,598.7908246609421
698,598.7226256636036
699,598.6414384055175
700,598.5499409001203
701,598.4517643170558
702,598.3512963676806
703,598.2533352289798
704,598.1626580710216
705,598.0835775805538
706,598.0195499036433
707,597.9728733542594
708,597.944493012995
709,597.9339132668451
710,597.9392191978791
711,597.9572150726384
712,597.9836964133056
713,598.0138645903935
714,598.0428583521673
715,598.0663298949554
716,598.080964393117
717,598.0848457859307
718,598.0775982487208
719,598.0602708556124
720,598.0349824779494
721,598.0043995688267
722,597.9711592232085
723,597.9373537955215
724,597.9041632672844
725,597.8716777036544
726,597.8389165690609
727,597.8040324148471
728,597.7646717892579
729,597.7184391021549
730,597.6633734008406
731,597.5983334751813
732,597.5232153916354
733,597.4389810449029
734,597.3475212946685
735,597.2514003184418
736,597.1535386773684
737,597.0568976297362
738,596.9642233261969
739,596.8778917611457
740,596.7998618036063
741,596.7317028001988
742,596.6746370388609
743,596.6295427875615
744,596.5968937835488
745,596.5766460194616
746,596.5681108639927
747,596.569870898311
748,596.57979369946
749,596.5951722196791
750,596.6129757715694
751,596.6301552521712
752,596.6439305188196
753,596.651999589606
754,596.6526371977036
755,596.6446820690998
756,596.6274392044256
757,596.6005366670366
758,596.5637713965579
759,596.5169648083776
760,596.4598467817981
761,596.3920030500988
762,596.3129330982686
763,596.222244476325
764,596.1199571006957
765,596.0068399021775
766,595.884680942777
767,595.7564062950231
768,595.6260009918111
769,595.4982311300689
770,595.3782059384072
771,595.2708448910927
772,595.1803284501945
773,595.1096151857997
774,595.0601008133024
775,595.0314684914825
776,595.0217340835057
777,595.0274459168244
778,595.0439875822715
779,595.0659597941466
780,595.0876473733222
781,595.1035713711218
782,595.1090883424362
783,595.100965614579
784,595.0778519937539
785,595.0405654252298
786,594.9921276816212
787,594.937505398837
788,594.8830660468527
789,594.8358042762769
790,594.8024263577233
791,594.7884053709306
792,594.7971390589829
793,594.8293391748996
794,594.882743072185
795,594.9521820462624
796,595.0299989307383
797,595.1067865543953
798,595.1723915577916
799,595.2170773275743
800,595.2326909996589
801,595.2136693416215
802,595.1577478116899
803,595.0662812575109
804,594.9441349166232
805,594.7991705424151
806,594.6414257007817
807,594.4821302125962
808,594.3327027924109
809,594.2038358885926
810,594.1047274322315
811,594.0424717814033
812,594.021601706074
813,594.0437907835186
814,594.1077586509784
815,594.2094298341435
816,594.3423620308922
817,594.4984010143253
818,594.6684718653638
819,594.8433996157255
820,595.0146609608195
821,595.1749895075812
822,595.3187868725339
823,595.4423289673753
824,595.5437885778068
825,595.6231120299788
826,595.6817936199052
827,595.7225901061789
828,595.7492035816714
829,595.7659362855284
830,595.7773025548189
831,595.7875895553609
832,595.8003928074011
833,595.8181984513219
834,595.8421128583471
835,595.8718246437111
836,595.9058205136826
837,595.941796810762
838,595.9771596768607
839,596.0095077439862
840,596.0370240040003
841,596.0587427914511
842,596.0746942568029
843,596.0859565276733
844,596.0946492884981
845,596.1038757450948
846,596.1175868802753
847,596.1403329743957
848,596.1768867080256
849,596.2317556739519
850,596.3086371633274
851,596.4098929085212
852,596.5361262971331
853,596.6859290951621
854,596.8558341177538
855,597.040471686668
856,597.2328968498849
857,597.4250482755094
858,597.6083125114152
859,597.7741714947852
860,597.9148931326237
861,598.0241984486898
862,598.0978222984647
863,598.1338855780584
864,598.1330199546939
865,598.0982334847957
866,598.0345637410227
867,597.9486051089041
868,597.8479975392474
869,597.7409339200283
870,597.635708467964
871,597.5403034627665
872,597.4619969933062
873,597.4069744126969
874,597.379944363846
875,597.3837858319232
876,597.4192730383564
877,597.4849409969466
878,597.5771655729308
879,597.6905181641382
880,597.8183975485656
881,597.9538545418022
882,598.0904543921095
883,598.2230078339553
884,598.3480487316588
885,598.4640116913051
886,598.5711276482231
887,598.6710924259797
888,598.7665764286162
889,598.8606427457556
890,598.9561371849011
891,599.0551153760255
892,599.1583777815594
893,599.2651837161816
894,599.3731999656081
895,599.4787060635267
896,599.5770374379889
897,599.663209524605
898,599.7326260073661
899,599.7817343445635
900,599.8084826330542
901,599.8124806742106
902,599.7948535148633
903,599.7578503298503
904,599.7043122559232
905,599.6371152973344
906,599.5586985068636
907,599.4707674635686
908,599.3742295775187
909,599.269372613838
910,599.1562467268014
911,599.0351636951674
912,598.9071990662432
913,598.7745840702038
914,598.6409010515512
915,598.5110347167421
916,598.3908709244369
917,598.2867727260937
