frame_number,force
0,509.41428000002463
1,509.4338431530715
2,509.4432888964493
3,509.43357208893
4,509.39769629220655
5,509.33148275473343
6,509.2340296484735
7,509.10781345759005
8,508.9584529515486
9,508.79419658587494
10,508.6251993359814
11,508.46265165709485
12,508.31783139739275
13,508.2011619176525
14,508.12136348437207
15,508.08477737071144
16,508.09492168336897
17,508.15230582714827
18,508.2544994524329
19,508.39643398460976
20,508.5709049332239
21,508.76922686633856
22,508.9819679522496
23,509.1996716963061
24,509.4134803189358
25,509.6156136242253
26,509.7997051930511
27,509.9610186773136
28,510.0965552586155
29,510.205045241477
30,510.2868123821267
31,510.34350970045176
32,510.37775049494695
33,510.39269570279873
34,510.3916834940255
35,510.377967937457
36,510.35457689622876
37,510.3242503753579
38,510.289414433523
39,510.2521702916928
40,510.21429634551373
41,510.17725907002676
42,510.1422248232342
43,510.11007128226436
44,510.0814067057291
45,510.0566075154491
46,510.03587812052893
47,510.01931996472723
48,510.0069760385041
49,509.99881616742357
50,509.9946593156477
51,509.99406648279546
52,509.99624916132575
53,510.0000249798718
54,510.00383830391604
55,510.00586242749364
56,510.00420104510385
57,509.99718819928995
58,509.98374324738967
59,509.96369595986135
60,509.93798553038226
61,509.9086615218125
62,509.878661833248
63,509.85139443830354
64,509.8301918028936
65,509.8177376587942
66,509.81558398531945
67,509.82386772030026
68,509.8412922914673
69,509.86537184828063
70,509.8928710199502
71,509.92033029117914
72,509.94455983884814
73,509.963014729983
74,509.97401359414846
75,509.97680322408786
76,509.9714923075286
77,509.95889173514263
78,509.9403161005223
79,509.9174074544358
80,509.8920218310699
81,509.86617988891635
82,509.8420501998574
83,509.8219223747409
84,509.8081357602531
85,509.80295067449106
86,509.80837545935753
87,509.8259842264339
88,509.85676790131964
89,509.90105420744095
90,509.9585198255223
91,510.02830610507266
92,510.10922979845753
93,510.2000454474381
94,510.2996834163375
95,510.40738706620715
96,510.52271326244096
97,510.645415585825
98,510.77526020043325
99,510.9118193013649
100,511.0542707261543
101,511.20122813139176
102,511.35063165566856
103,511.4997296983848
104,511.64517055411716
105,511.78320011354685
106,511.9099374020349
107,512.0216835604231
108,512.1152184090279
109,512.1880524697065
110,512.2386229688269
111,512.2664346833878
112,512.2721412196875
113,512.25754638398
114,512.2254961437824
115,512.1796434634326
116,512.124102649783
117,512.0630516736541
118,512.0003626136595
119,511.9393220006401
120,511.88245519177036
121,511.8314279975713
122,511.7869922848177
123,511.74896755885516
124,511.7162834646157
125,511.68712172355725
126,511.6591769609988
127,511.63001724681646
128,511.5974942703134
129,511.5601398812721
130,511.5174807892124
131,511.47020705449836
132,511.42015627538285
133,511.37012180738645
134,511.3235355517179
135,511.284093315541
136,511.2553837117986
137,511.2405627075259
138,511.24209467643686
139,511.2615592598927
140,511.2995059643367
141,511.35533712849065
142,511.4272231110297
143,511.51208996678764
144,511.60573540021977
145,511.7030972847872
146,511.79864324598674
147,511.88682164318277
148,511.9625283639829
149,512.0215661028293
150,512.0610724927022
151,512.0798720832437
152,512.0786852055234
153,512.0601273219684
154,512.0284659033432
155,511.98915394483424
156,511.94820512205104
157,511.91150462297963
158,511.88416254967944
159,511.87000736261416
160,511.8712794606215
161,511.88853553982483
162,511.9207401650756
163,511.96551015735037
164,512.0194772230648
165,512.0787339443967
166,512.1393256722309
167,512.1977431048625
168,512.2513554923767
169,512.2987137173519
170,512.3396674962781
171,512.3752894514923
172,512.4076571425634
173,512.4395722352942
174,512.4742761075186
175,512.515179433569
176,512.5656020926582
177,512.6285294863536
178,512.7064071873837
179,512.8009991435074
180,512.9133273636372
181,513.0436938419188
182,513.1917574470656
183,513.3566139310011
184,513.5368260980256
185,513.7303771072512
186,513.9345596091497
187,514.1458512602096
188,514.3598511629693
189,514.5713491702232
190,514.7745635105946
191,514.9635289575394
192,515.1325818013709
193,515.2768823895341
194,515.3929215110106
195,515.4789541205578
196,515.5352988027279
197,515.5644485847495
198,515.5709582870024
199,515.5610984485352
200,515.5422954529998
201,515.5224095560897
202,515.5089275190866
203,515.5081592878562
204,515.5245315119107
205,515.5600676441952
206,515.6141327944791
207,515.6834949073491
208,515.7627114171386
209,515.8448040016821
210,515.9221430513953
211,515.9874264887502
212,516.034611207923
213,516.0596610440514
214,516.0610185337827
215,516.0397635785752
216,515.9994630882599
217,515.9457369434529
218,515.8855802294253
219,515.8265073440864
220,515.7756248209579
221,515.738775386121
222,515.7198973845466
223,515.7207041994631
224,515.7407191398129
225,515.7776170344309
226,515.8277503379832
227,515.886711781468
228,515.9498192250708
229,516.0124719315911
230,516.0703826215317
231,516.1197175030319
232,516.157179912475
233,516.1800707306835
234,516.1863628301813
235,516.1748218970924
236,516.1451682957717
237,516.09821435005
238,516.0358729368758
239,515.9609517544079
240,515.876717601712
241,515.7862999322151
242,515.6920651534012
243,515.5951142936251
244,515.4950358125301
245,515.3899882328001
246,515.2771061022069
247,515.1531405483656
248,515.0151889430371
249,514.8613537213247
250,514.6911993200903
251,514.5059356610581
252,514.3083240709311
253,514.1023537440535
254,513.89276410671
255,513.6844984136153
256,513.4821750857394
257,513.289652964935
258,513.1097425160502
259,512.9440869498566
260,512.7932162810109
261,512.6567576115533
262,512.5337530210213
263,512.4230016133422
264,512.3233330870943
265,512.2337458678252
266,512.1533857243387
267,512.0813852693241
268,512.016626196916
269,511.95751574014207
270,511.9018689380977
271,511.8469466390452
272,511.7896296975104
273,511.72665482445404
274,511.6548337226355
275,511.5712186010818
276,511.4732245390396
277,511.35874146026623
278,511.2262636655003
279,511.07504754478373
280,510.9052912762138
281,510.7183152516707
282,510.5167021460684
283,510.3043377508684
284,510.0863024291856
285,509.86860627066613
286,509.65780941824806
287,509.46058789594633
288,509.2832903321264
289,509.13150468678214
290,509.00964218926543
291,508.92055853282045
292,508.86525731870967
293,508.8427324542258
294,508.84998924907325
295,508.88224632592534
296,508.93328543893205
297,508.99590111238894
298,509.06240415942835
299,509.1251374969236
300,509.1769617037931
301,509.2116716398692
302,509.22432596726185
303,509.21149801827744
304,509.17146094816593
305,509.1042904046853
306,509.01182985066146
307,508.89746086056294
308,508.7656693802999
309,508.62146946653445
310,508.46979494353917
311,508.3149778844694
312,508.160408324811
313,508.00842664541693
314,507.86044912575403
315,507.71727574571855
316,507.57948818225617
317,507.44782889575686
318,507.32346479163135
319,507.2080751276464
320,507.1037535388434
321,507.0127639098249
322,506.9372182744741
323,506.87874231799276
324,506.8381749124446
325,506.8153320670063
326,506.80885714731033
327,506.81617454768
328,506.8335620047736
329,506.8563531146739
330,506.8792674334099
331,506.8968402213512
332,506.90390037233567
333,506.89603730561896
334,506.87000768095095
335,506.8240489549587
336,506.75807300026685
337,506.6737062368629
338,506.574140222927
339,506.4637807504901
340,506.34773598604056
341,506.2312365771781
342,506.11909836313345
343,506.0153138027184
344,505.92280820949117
345,505.8433408133271
346,505.77749094870364
347,505.7246697875534
348,505.6831367834348
349,505.6500457732952
350,505.6215662860494
351,505.5931090809057
352,505.55963910608284
353,505.5160125610318
354,505.45726775666935
355,505.3788454307173
356,505.2767752656158
357,505.147888480363
358,504.99008687977164
359,504.80264534528743
360,504.58648543668073
361,504.3443513600905
362,504.08083827115234
363,503.8022453715241
364,503.5162423314758
365,503.23135710943245
366,502.956323838539
367,502.69935779124717
368,502.46743727674294
369,502.2656780003271
370,502.0968891253603
371,501.96138360198336
372,501.85707020372405
373,501.7798077988671
374,501.7239772600151
375,501.68321179081386
376,501.65120481405296
377,501.6224939218053
378,501.593117974302
379,501.5610664163718
380,501.5264738063229
381,501.49153946203035
382,501.46016547531514
383,501.43732875167234
384,501.4282561755074
385,501.4375337945513
386,501.46830176359333
387,501.5216497917174
388,501.59626625657955
389,501.6883536129034
390,501.7918176445019
391,501.898741786011
392,502.00013229336435
393,502.08686123048363
394,502.15068218636054
395,502.18518677671324
396,502.1865965969241
397,502.15430392347014
398,502.0910752379321
399,502.0028462897752
400,501.89809103023487
401,501.7868287858007
402,501.6794153129397
403,501.58531647091195
404,501.5120679318259
405,501.46457770582225
406,501.4448516953033
407,501.45214432916544
408,501.4834721496031
409,501.5343820943516
410,501.5998373900492
411,501.6750715494461
412,501.75627000634
413,501.84097579091974
414,501.92817517797596
415,502.0180859342101
416,502.1117309977372
417,502.2104223217544
418,502.3152874138799
419,502.42693697655443
420,502.5453104120077
421,502.66967423690556
422,502.798710238791
423,502.9306261538922
424,503.06324374814386
425,503.1940491290095
426,503.3202190123124
427,503.43866540371084
428,503.54616155124864
429,503.6396029058053
430,503.71640571494373
431,503.7749705261167
432,503.8150794875675
433,503.8380886449144
434,503.8468246902021
435,503.8451814169711
436,503.83750324308556
437,503.82790503330733
438,503.8196828788904
439,503.8149217206437
440,503.81433472620364
441,503.8173163893538
442,503.8221740652316
443,503.8265042950733
444,503.8276719589556
445,503.8233249435776
446,503.8118570890269
447,503.79274210617245
448,503.76669692346064
449,503.73566859073884
450,503.70266124137515
451,503.67143845443246
452,503.64615501499605
453,503.6309742686762
454,503.6297081418413
455,503.64549816308295
456,503.6805538995813
457,503.73597161811995
458,503.81165595259375
459,503.906355039112
460,504.0177966870585
461,504.14288719800743
462,504.27791829514575
463,504.4187387004837
464,504.5608933055934
465,504.69978812434306
466,504.83095264863255
467,504.9504230719533
468,505.05519739898773
469,505.14366990905575
470,505.21595609079765
471,505.2740495955715
472,505.3217804852391
473,505.36455809105894
474,505.40889622120216
475,505.4617515060414
476,505.52975359576396
477,505.6184462609325
478,505.7316729057941
479,505.87122190262016
480,506.0367963516932
481,506.2262975644802
482,506.4363318968928
483,506.6627951971378
484,506.9013830078507
485,507.1479200046641
486,507.3984725888782
487,507.64927039207697
488,507.8965018419216
489,508.1360742663959
490,508.3634482284021
491,508.57365788660934
492,508.7615921870874
493,508.9225292015005
494,509.0528152100932
495,509.1505086857908
496,509.2158012963164
497,509.2510868260009
498,509.26065154804763
499,509.25006519722086
500,509.2254196107315
501,509.1925759472016
502,509.1565518559565
503,509.12112836357653
504,509.0887031128313
505,509.06037364887794
506,509.03619898647673
507,509.01555716768127
508,508.9975043314618
509,508.98105850161755
510,508.96536877265385
511,508.9497718292128
512,508.93377563765097
513,508.9170359014752
514,508.8993902111161
515,508.88098161147775
516,508.8624498153667
517,508.84511997065493
518,508.83109686157087
519,508.82318350999435
520,508.8245859352911
521,508.83842959064873
522,508.86717127687604
523,508.91202015311694
524,508.9724860186264
525,509.04616379936056
526,509.12883068841904
527,509.2148615480016
528,509.29787832220387
529,509.3714914070285
530,509.4299964029482
531,509.46893978026577
532,509.48552004032035
533,509.4788209002004
534,509.4498805183603
535,509.40160447155745
536,509.33854645733754
537,509.2665995840979
538,509.19263507645593
539,509.1240936765171
540,509.0685135171385
541,509.03299030953116
542,509.0235972230745
543,509.04481946092795
544,509.09907398770895
545,509.18638859594927
546,509.304302502793
547,509.44801582705185
548,509.61076417572724
549,509.7843534034487
550,509.95978039566677
551,510.12788343213975
552,510.27998831418813
553,510.4085263399126
554,510.507590949905
555,510.57337839909763
556,510.60444706591744
557,510.6017558162875
558,510.5685027384357
559,510.50983976743555
560,510.4325395197808
561,510.3446375646059
562,510.2550141874102
563,510.1728631566062
564,510.107032407846
565,510.06528782674235
566,510.05360679197446
567,510.07562220555945
568,510.1323084769695
569,510.22195489796746
570,510.34043335474126
571,510.48173451290296
572,510.63871041942326
573,510.8039279048532
574,510.9705135862929
575,511.1328586444475
576,511.2870628168595
577,511.43104912032146
578,511.56436196022423
579,511.68773600836454
580,511.802565766113
581,511.91040648113875
582,512.0125946622957
583,512.1100100107504
584,512.2029502448389
585,512.2910829024626
586,512.3734658498986
587,512.4486608270065
588,512.5149701135922
589,512.5707932768014
590,512.6150485695945
591,512.6475634697418
592,512.6693289034903
593,512.6825361542725
594,512.6903684608099
595,512.6965808412314
596,512.704950927347
597,512.7187121210007
598,512.7400808992536
599,512.7699572950436
600,512.8078276856461
601,512.851859549955
602,512.8991577635614
603,512.9461409582359
604,512.9889864425783
605,513.0240877616312
606,513.0484773540175
607,513.0601824283706
608,513.0584908242886
609,513.0441031175836
610,513.0191516558182
611,512.9870841501985
612,512.9524267688995
613,512.920446435026
614,512.89672972456
615,512.8866992026324
616,512.8950984866675
617,512.9254881263222
618,512.9798040338732
619,513.0580388976986
620,513.1581060952738
621,513.2759253937659
622,513.4057357013774
623,513.540607261618
624,513.6730994601357
625,513.7959884760749
626,513.902976543473
627,513.9892995504458
628,514.0521668860691
629,514.0909855224548
630,514.1073382049101
631,514.1047087593603
632,514.0879788700313
633,514.0627608821627
634,514.0346730802323
635,514.0086850007194
636,513.988638101847
637,513.9769886000844
638,513.9747611630552
639,513.9816714481395
640,513.9963662158368
641,514.0167273432253
642,514.0401905102973
643,514.0640425827728
644,514.0856773111188
645,514.1028022731147
646,514.1136007001813
647,514.1168582180768
648,514.1120647698377
649,514.0994953162569
650,514.0802600163707
651,514.0563002747098
652,514.0302964744657
653,514.00545089523
654,513.985127944548
655,513.9723829468917
656,513.9694676018637
657,513.977424074714
658,513.9958603501673
659,514.0229579914067
660,514.0557141823392
661,514.0903670821771
662,514.1229086007496
663,514.1495685323374
664,514.1671715410349
665,514.1733225823475
666,514.1664420247839
667,514.1457150580886
668,514.1110249016925
669,514.0629126520902
670,514.0025683333603
671,513.9318313975629
672,513.8531755383082
673,513.769661114504
674,513.6848418591436
675,513.6026099309464
676,513.5269667509938
677,513.4617237483517
678,513.4101635413252
679,513.374718277061
680,513.3567348984126
681,513.3563850052673
682,513.3727380424481
683,513.4039674107106
684,513.447624932231
685,513.5009118552707
686,513.560890929519
687,513.6246193866226
688,513.6892286267871
689,513.7520110868185
690,513.8105723319834
691,513.8630594904248
692,513.9084085613325
693,513.9465065270323
694,513.9781744294179
695,514.0049407666454
696,514.0286509515721
697,514.0510078313133
698,514.073146464004
699,514.0953226704239
700,514.11675725344
701,514.1356443270148
702,514.1493142184509
703,514.154535369216
704,514.147928771281
705,514.1264413845082
706,514.0877957361366
707,514.0308316517477
708,513.9556933300404
709,513.863866045405
710,513.7580977903798
711,513.6422421846611
712,513.5210455782372
713,513.3998881514873
714,513.2844753068473
715,513.1804638212499
716,513.0930127792617
717,513.0262797997855
718,512.9829241928028
719,512.9637091508956
720,512.9672994098311
721,512.9903210813438
722,513.0276915988164
723,513.0731617377998
724,513.119966717705
725,513.1614759423543
726,513.191758151216
727,513.2060224028778
728,513.2009288922808
729,513.1747700889174
730,513.1275112451326
731,513.0606738570273
732,512.9770616414551
733,512.8803635831576
734,512.774701978988
735,512.6642003996255
736,512.5526242486665
737,512.4431183182925
738,512.338053131726
739,512.2389916652701
740,512.1467814353548
741,512.061755180369
742,511.98399615885324
743,511.91360732240173
744,511.85092461822364
745,511.79662838552696
746,511.75172652420747
747,511.7174088576057
748,511.69480130607656
749,511.68467002221087
750,511.6871341879778
751,511.70144844946225
752,511.7259130963301
753,511.75795016694303
754,511.794344090018
755,511.8316078401631
756,511.8664192373822
757,511.89606572775915
758,511.91882174051915
759,511.93417467191375
760,511.9428433681976
761,511.9465938424138
762,511.9479115119175
763,511.9496055175143
764,511.95440524188524
765,511.96459118229126
766,511.9816978964561
767,512.0063270481274
768,512.0381001975778
769,512.0757644656585
770,512.1174443576638
771,512.1610051014655
772,512.2044549695452
773,512.2462836588544
774,512.2856389264206
775,512.3222964104561
776,512.3564543374267
777,512.3884408971852
778,512.4184310830686
779,512.4462400998129
780,512.4712187525527
781,512.4922469881667
782,512.5078132349487
783,512.5161702637455
784,512.5155601416449
785,512.5044943232193
786,512.4820581454641
787,512.4481878390183
788,512.4038554864375
789,512.3511027299377
790,512.2928899331142
791,512.2327720553053
792,512.1744618865293
793,512.1213678719788
794,512.0761835255959
795,512.0405779998254
796,512.0150176826448
797,511.99873495549656
798,511.98983989336284
799,511.98554880581514
800,511.98249496491667
801,511.97709101366866
802,511.9659132739803
803,511.9460677938728
804,511.9154884661219
805,511.87312549594304
806,511.8190093999865
807,511.75420506922126
808,511.68068425510194
809,511.6011401525431
810,511.5187548662085
811,511.4369236343098
812,511.35894782215576
813,511.2877254657178
814,511.2254751525289
815,511.17351662383646
816,511.13211020610464
817,511.1003466491285
818,511.07608834857933
819,511.05598202521185
820,511.035571818117
821,511.0095308097964
822,510.97200969946215
823,510.9170928943494
824,510.8393541032842
825,510.7344921216527
826,510.5999894224972
827,510.43568901057864
828,510.24416038013624
829,510.03074508532035
830,509.80323610184337
831,509.57122670171304
832,509.34522593311374
833,509.1356600763445
834,508.95187816148905
835,508.80127905795365
836,508.6886750265887
837,508.6159779421051
838,508.5822343267902
839,508.5839715422837
840,508.61577667482965
841,508.6710106594354
842,508.7425548257527
843,508.8235004235951
844,508.90772351967786
845,508.9903186204652
846,509.0678762783808
847,509.13858613233896
848,509.2021469773487
849,509.25948439559903
850,509.3123114551799
851,509.3626067032726
852,509.4121154880961
853,509.46199332576487
854,509.51268748128376
855,509.5640904330756
856,509.61591677835384
857,509.668185565874
858,509.72165419580205
859,509.77805534338984
860,509.8400359379121
861,509.91077946505345
862,509.9933878902499
863,510.0901761084151
864,510.20206369620075
865,510.32822571090065
866,510.46609426668516
867,510.6117075198565
868,510.76031208136783
869,510.9070677312388
870,511.04769477677047
871,511.17893745787154
872,511.2987748059058
873,511.40638103819924
874,511.50190326364475
875,511.58615636102655
876,511.6603204445106
877,511.72568841091874
878,511.7834819733656
879,511.8347396807754
880,511.8802677613656
881,511.92063496745277
882,511.95619537583354
883,511.98713436333026
884,512.0135365432518
885,512.0354605581476
886,512.0529838778702
887,512.0661761735582
888,512.074989747933
889,512.0791062276453
890,512.0778119068788
891,512.0699623323668
892,512.0540522920884
893,512.0283708060388
894,511.9912167236766
895,511.9411626935115
896,511.8773525481398
897,511.7997960149901
898,511.7096080437426
899,511.6091401693625
900,511.5019579319888
901,511.39262505179204
902,511.2862731348249
