frame_number,force
0,611.27948000005
1,610.906888965374
2,610.5518097042784
3,610.2302513958605
4,609.9553964235614
5,609.7365897782486
6,609.5787212843978
7,609.482036112612
8,609.4423759885027
9,609.4518183962588
10,609.4996415173927
11,609.5735096871032
12,609.6607591764073
13,609.7496635848228
14,609.8305587036003
15,609.8967070959937
16,609.9447959433201
17,609.9749954190911
18,609.9905553317641
19,609.9969832853473
20,610.0009271819815
21,610.0089595368092
22,610.0264920915662
23,610.0570097920235
24,610.1017202791692
25,610.1596164175196
26,610.2278772302191
27,610.3024865789152
28,610.3789257297589
29,610.4528079625397
30,610.5203733064996
31,610.5788194250154
32,610.626475336758
33,610.6628307969726
34,610.688446208115
35,610.7047910054039
36,610.7140631346937
37,610.7190155245285
38,610.7227847883904
39,610.7287098419412
40,610.7401357304446
41,610.7601986226133
42,610.7915807626305
43,610.8362276922118
44,610.8950438858762
45,610.9676169890294
46,611.0520469651833
47,611.1449576910591
48,611.2417351823194
49,611.3369771190885
50,611.425080384938
51,611.5008649969843
52,611.5601416350767
53,611.6001613532093
54,611.6199175910314
55,611.6202876716073
56,611.6040045419713
57,611.5754521650139
58,611.5402905976788
59,611.5049393979186
60,611.4759742365088
61,611.4595158384955
62,611.4607030526054
63,611.4833252632716
64,611.5296354567022
65,611.6002993426293
66,611.6944056388422
67,611.8094915145584
68,611.9415965002053
69,612.0853939370668
70,612.2344356815177
71,612.3815081573616
72,612.519079251018
73,612.6398281445644
74,612.737265017609
75,612.8064293282295
76,612.8445959727302
77,612.8518442681259
78,612.8313032130668
79,612.7889192566577
80,612.7327048598132
81,612.6715760218683
82,612.6140071631007
83,612.5667733367303
84,612.5340160194471
85,612.5167959890808
86,612.5132041220932
87,612.5189849939302
88,612.5285081474763
89,612.5358496480279
90,612.5357561543817
91,612.5243386664084
92,612.4994400274234
93,612.4607022957335
94,612.4094079309667
95,612.3481806989779
96,612.2806186223764
97,612.210906129395
98,612.1434306592506
99,612.0824215943206
100,612.0316331614247
101,611.9940927053009
102,611.9719242316654
103,611.9662427877591
104,611.9771086684779
105,612.0035333587339
106,612.0435373117328
107,612.0942671975183
108,612.1521812061532
109,612.2133017562779
110,612.2735155711764
111,612.3288799318149
112,612.3758886925638
113,612.4116692693098
114,612.4341043305401
115,612.4418808736159
116,612.4344695954335
117,612.4120405662294
118,612.3753255986835
119,612.3254409124224
120,612.2636945838343
121,612.1914250059724
122,612.1099303361764
123,612.0205306941485
124,611.924755828307
125,611.8245984737397
126,611.7227435875882
127,611.622683737093
128,611.5286549989112
129,611.4453655624702
130,611.3775364436638
131,611.3293286486632
132,611.3037781406558
133,611.3023721748441
134,611.3248645153235
135,611.3693562735822
136,611.4325956387261
137,611.5104036934358
138,611.5981268106
139,611.6910422726809
140,611.7846843629826
141,611.8750914554835
142,611.9589893732378
143,612.0339262048744
144,612.0983644219455
145,612.1517191513885
146,612.194315633445
147,612.2272409920243
148,612.25209087358
149,612.2706451418826
150,612.2845276474804
151,612.2949035379688
152,612.3022513667621
153,612.3062328447464
154,612.3056771135713
155,612.2986914772988
156,612.2829013172908
157,612.2558112634501
158,612.2152635695561
159,612.1599367408129
160,612.0897865925513
161,612.006317451535
162,611.9126044983362
163,611.8130518341305
164,611.7129301691557
165,611.6177733980971
166,611.5327268935112
167,611.461941217828
168,611.4080942146951
169,611.3720991389895
170,611.353023847016
171,611.3482208377814
172,611.3536537398978
173,611.3643903197508
174,611.3752067494779
175,611.3812233329435
176,611.3784821434153
177,611.3643810164987
178,611.3378931716102
179,611.2995353491609
180,611.2510999992505
181,611.1952213039611
182,611.1348833871806
183,611.072989506177
184,611.0120782858779
185,610.9542005045433
186,610.9009010495001
187,610.8532345301617
188,610.8117786827329
189,610.7766513199873
190,610.7475497444505
191,610.7238210278576
192,610.7045600389603
193,610.6887314414454
194,610.6753153676838
195,610.6634714837123
196,610.6527014374861
197,610.6429765173883
198,610.6347950899117
199,610.6291429539954
200,610.6273466701812
201,610.6308344416134
202,610.6408450081474
203,610.6581392771211
204,610.6827680226614
205,610.7139437203828
206,610.7500607640824
207,610.7888887757468
208,610.8279125635321
209,610.8647273508543
210,610.8973652975924
211,610.9244594344591
212,610.945224295102
213,610.9593005448477
214,610.966545826178
215,610.966857238989
216,610.960089443425
217,610.9460946355206
218,610.9248716382314
219,610.8967825278141
220,610.8627792897041
221,610.8245797881925
222,610.7847373002967
223,610.7465563920897
224,610.7138288373733
225,610.6904084658617
226,610.6797006693649
227,610.6841771996883
228,610.7050179700784
229,610.7419359635476
230,610.7931871724526
231,610.8557351943433
232,610.925538357181
233,610.997934138855
234,611.0680867932778
235,611.1314439801106
236,611.1841399279841
237,611.223296835831
238,611.2472035363661
239,611.2553773027614
240,611.2485343832772
241,611.2285042785976
242,611.1981164143665
243,611.1610646119902
244,611.1217299649809
245,611.0849393662463
246,611.0556607103539
247,611.0386675116207
248,611.0382173108322
249,611.0577678421346
250,611.0997243381819
251,611.1652082476108
252,611.2538688854557
253,611.3637907639788
254,611.4915483588811
255,611.6324276065101
256,611.7807899526471
257,611.9305225710503
258,612.075514362793
259,612.2101186480897
260,612.3295825138415
261,612.430416283632
262,612.5106554534703
263,612.5699634572808
264,612.6095516718984
265,612.6319374559979
266,612.6405936833135
267,612.6395480233043
268,612.632974289957
269,612.6248044585171
270,612.6183932743053
271,612.6162756089412
272,612.620042802385
273,612.6303211785154
274,612.6467943647332
275,612.6682127592843
276,612.6923839493791
277,612.7161939989741
278,612.7357242761847
279,612.746499540855
280,612.7438646045798
281,612.7234625129748
282,612.6817687291667
283,612.6166104182231
284,612.5275791182627
285,612.4162532234018
286,612.2861897946152
287,612.1426989673772
288,611.9924440296681
289,611.8429078475585
290,611.7017584590081
291,611.5761593029576
292,611.4720980665369
293,611.3938270143888
294,611.3434977470718
295,611.3210379144859
296,611.324275322999
297,611.3492812999418
298,611.3908813014456
299,611.443260043686
300,611.500571963188
301,611.5574681286487
302,611.6094770592637
303,611.653221448057
304,611.6864923801129
305,611.7082158367101
306,611.718333360979
307,611.7176007674484
308,611.7073073925607
309,611.6889392312988
310,611.6638381766794
311,611.6329249324693
312,611.5965452597309
313,611.5544733762391
314,611.5060725302022
315,611.4505789486964
316,611.3874456760134
317,611.3166611394506
318,611.2389564001743
319,611.1558507838923
320,611.069548695361
321,610.9827484684379
322,610.8984217118015
323,610.8195824432255
324,610.7490374125155
325,610.6891203211295
326,610.6414438937113
327,610.6067174011259
328,610.5846607763355
329,610.5740177605732
330,610.5726498142408
331,610.5776861739988
332,610.5857124176362
333,610.5929937898015
334,610.5957357277549
335,610.5903733986844
336,610.5738642012777
337,610.5439467609691
338,610.4993300490746
339,610.4397866408431
340,610.3661481559589
341,610.2802295392214
342,610.1847180073006
343,610.0830446978805
344,609.9792375212521
345,609.877755911726
346,609.7833201761209
347,609.7007447534128
348,609.6347651354288
349,609.5898292618642
350,609.5698162309626
351,609.5776552174204
352,609.6148553584006
353,609.6810179664187
354,609.7734539255042
355,609.8870350228557
356,610.0143619803638
357,610.1462622725279
358,610.2725681535888
359,610.3830785419389
360,610.4685734269033
361,610.5217295166241
362,610.537797271817
363,610.51495319706
364,610.454318261388
365,610.3596944909343
366,610.2370966309575
367,610.0941547342201
368,609.9394544924704
369,609.781873979495
370,609.6299708569974
371,609.4914697598789
372,609.3728847161573
373,609.2792815710282
374,609.2141562599764
375,609.1793969267488
376,609.1753116862757
377,609.2007220277577
378,609.253128015421
379,609.3289420675426
380,609.4237758270011
381,609.5327640273464
382,609.6509155644533
383,609.7734790540848
384,609.8962947268797
385,610.0160844497909
386,610.1306143171719
387,610.2386638826216
388,610.3397732336736
389,610.4338142320267
390,610.5205107467599
391,610.5990668551977
392,610.6680271596048
393,610.7254061115603
394,610.7690276665256
395,610.7969531093872
396,610.8078632204066
397,610.8013007280687
398,610.7777484409312
399,610.7385820000314
400,610.6859682534375
401,610.622776999709
402,610.5525451847262
403,610.479492886166
404,610.4085528751691
405,610.3453497326988
406,610.2960570460401
407,610.2670750340507
408,610.2645027172108
409,610.2934235796815
410,610.3570807600331
411,610.4560794894247
412,610.5877937435991
413,610.7461420774445
414,610.9218333027463
415,611.1030922117225
416,611.2767880974574
417,611.4298201946987
418,611.5505686679837
419,611.6302028459717
420,611.6636603506748
421,611.650171626925
422,611.5932837534588
423,611.5004095157942
424,611.3819809034995
425,611.2503217107106
426,611.1183741797109
427,610.9984205001198
428,610.9009330495376
429,610.8336698661768
430,610.8011058553593
431,610.8042525440786
432,610.8408626193573
433,610.9059460961975
434,610.9924726268271
435,611.0921298017587
436,611.1960500267054
437,611.2954766238867
438,611.3823753834093
439,611.4499954574064
440,611.493361072198
441,611.5096624662548
442,611.4985175838057
443,611.4620798056683
444,611.404963921277
445,611.3339620996757
446,611.2575302571819
447,611.1850411751515
448,611.125830421553
449,611.0881165746367
450,611.0779470967085
451,611.0983623770813
452,611.1489453541411
453,611.2258417488234
454,611.3222424237534
455,611.4292487759569
456,611.5369926538966
457,611.6358433707187
458,611.7175156712952
459,611.7759135600622
460,611.8076068948317
461,611.8119195714368
462,611.7906828364897
463,611.7477519544708
464,611.688390583976
465,611.6186097517257
466,611.5445309704045
467,611.4718336262285
468,611.4053374338035
469,611.348753856261
470,611.304614321152
471,611.2743519528335
472,611.2584870457922
473,611.2568528568219
474,611.2687983985198
475,611.2933179511001
476,611.3290820538341
477,611.3743747782489
478,611.426970261444
479,611.4840076428346
480,611.541941032489
481,611.5966325567379
482,611.6436157623751
483,611.6784994829171
484,611.6974328248054
485,611.6975319026197
486,611.6771894887551
487,611.6362380662027
488,611.575982827325
489,611.4991364607076
490,611.4096726228173
491,611.3125938434104
492,611.213603152037
493,611.1186815009638
494,611.0336008624622
495,610.9634324273513
496,610.9121164411622
497,610.8821347831681
498,610.8742959720155
499,610.8876391601883
500,610.9194840070905
501,610.9656605314815
502,611.020926442798
503,611.0795318791869
504,611.1358505849623
505,611.184983308695
506,611.2232509927006
507,611.2485114057952
508,611.2602497367708
509,611.2594314543021
510,611.2481643586913
511,611.2292606974397
512,611.2057917076302
513,611.1806957164149
514,611.1564658640871
515,611.1349238075188
516,611.1170808700084
517,611.1030877865544
518,611.0922752534569
519,611.083292514526
520,611.0743503993425
521,611.0635498811866
522,611.0492327779334
523,611.0302666434776
524,611.0062004414098
525,610.9772820033929
526,610.9443692071459
527,610.9087767426627
528,610.8720940786302
529,610.8360044725939
530,610.802129053032
531,610.7719053237469
532,610.7464894505983
533,610.7266662509219
534,610.7127719336419
535,610.7046642431479
536,610.7017788500692
537,610.7032781739122
538,610.7082554606728
539,610.715937529701
540,610.7258405326761
541,610.7378528685273
542,610.7522299399664
543,610.7694933676536
544,610.7902500721668
545,610.8149801066891
546,610.8438580425168
547,610.876656607389
548,610.9127521712294
549,610.9512308806194
550,610.9910760587786
551,611.031389305751
552,611.0715724871282
553,611.1114032642587
554,611.1509783615268
555,611.1905513531996
556,611.2303264965792
557,611.2702740374954
558,611.3100066751612
559,611.3487152582193
560,611.3851318806283
561,611.417494709388
562,611.4435247153807
563,611.4604550079081
564,611.4651535738569
565,611.4543593995094
566,611.4250317535569
567,611.3747964558829
568,611.3024515495775
569,611.2084622484484
570,611.0953394062032
571,610.9677849894806
572,610.8325310360176
573,610.6978840209414
574,610.5730601710935
575,610.4674161669718
576,610.3896561314239
577,610.3470731391861
578,610.3448811927423
579,610.3856971449492
580,610.469224981018
581,610.5921753792969
582,610.7484276291758
583,610.9294197402244
584,611.1247436655925
585,611.3229142784022
586,611.5122543512996
587,611.68180155225
588,611.8221271532236
589,611.9259714634419
590,611.9886342373384
591,612.0080966288227
592,611.9848916575625
593,611.9217763113371
594,611.8232778420572
595,611.6951833584498
596,611.5440232624665
597,611.3765820655045
598,611.1994661506023
599,611.0187597516209
600,610.8397905667379
601,610.6670059511654
602,610.5039501987816
603,610.353339816065
604,610.2172341649818
605,610.0972712656223
606,609.9948964643155
607,609.911494446991
608,609.8483651534136
609,609.8065469277826
610,609.7865514616244
611,609.788104996127
612,609.8099798608805
613,609.8499662287975
614,609.9049999382477
615,609.9714346642012
616,610.0454154886982
617,610.1232750993412
618,610.2018557335053
619,610.2786844299552
620,610.3519890854933
621,610.4205978441812
622,610.483779878209
623,610.5410661348948
624,610.5920692615557
625,610.6363281335418
626,610.6732196557832
627,610.7019741872725
628,610.7217945004776
629,610.7320411844702
630,610.7324361396023
631,610.723246457774
632,610.7054228501585
633,610.680668649567
634,610.6514147245816
635,610.6206844142521
636,610.5918496779032
637,610.5682946134294
638,610.5530131329948
639,610.5481814004177
640,610.5547657464159
641,610.5722455185731
642,610.5985338917106
643,610.6301578639868
644,610.6627149129755
645,610.6915694161163
646,610.7126921724091
647,610.7234887002878
648,610.7234310551815
649,610.7143296983884
650,610.7001570536204
651,610.6864373360326
652,610.6793158131644
653,610.684489728314
654,610.7062076248723
655,610.7465222369078
656,610.8049265938322
657,610.8784278614735
658,610.9620304741987
659,611.0495256395423
660,611.134435727488
661,611.2109490211899
662,611.2747036060103
663,611.3233248456493
664,611.3566633346252
665,611.3767101606976
666,611.3872000141337
667,611.3929631228583
668,611.3991430105619
669,611.410429672509
670,611.4304418492637
671,611.4613331305063
672,611.5036294214312
673,611.5562592488884
674,611.6167200015369
675,611.6813297809608
676,611.7455404528894
677,611.804315359934
678,611.8525802191567
679,611.8857299216857
680,611.9001374488714
681,611.8935901099827
682,611.8655810367817
683,611.8174048843146
684,611.7520387816585
685,611.6738248565138
686,611.5880020936195
687,611.500159125643
688,611.4156892902083
689,611.3393159221324
690,611.2747245233717
691,611.2243113155507
692,611.1890488607786
693,611.1684723524495
694,611.1607934585775
695,611.1631453849376
696,611.1719475299552
697,611.1833530102974
698,611.1937222679288
699,611.2000632960173
700,611.2003879179991
701,611.1939399322998
702,611.1812574672465
703,611.1640544591796
704,611.1449404514964
705,611.1270193433504
706,611.1134118879987
707,611.1067543747208
708,611.1087435448973
709,611.1198080563792
710,611.1389774954945
711,611.1639919239701
712,611.1916480211605
713,611.2183182723663
714,611.2405325935187
715,611.2555014313635
716,611.2614851028958
717,611.2579592017686
718,611.2455760563525
719,611.225967155486
720,611.2014584256243
721,611.1747664724262
722,611.148710456709
723,611.1259368802879
724,611.1086465371078
725,611.0983389519206
726,611.0956206841199
727,611.100132091775
728,611.1106286321493
729,611.1252190313302
730,611.1417288790242
731,611.1581337892006
732,611.1729899417102
733,611.1857817679148
734,611.1971156829511
735,611.2087193849301
736,611.223249452849
737,611.2439494093333
738,611.2742204353933
739,611.3171636348089
740,611.3751402122383
741,611.4493930323744
742,611.5397816095443
743,611.6446841216004
744,611.7610977330978
745,611.8849288673753
746,612.0114305346643
747,612.1357248487577
748,612.2533348857555
749,612.3606348750161
750,612.4551304654507
751,612.5355231584343
752,612.6015827099211
753,612.6539091623878
754,612.693686120978
755,612.7225122622284
756,612.7423627626339
757,612.755684800425
758,612.765579605344
759,612.7759834694702
760,612.7917496761471
761,612.8185588310278
762,612.8626332445095
763,612.9302779995555
764,613.0273051303723
765,613.1584236715432
766,613.326697362714
767,613.5331665386202
768,613.7766940811503
769,614.0540493822238
770,614.3602141845473
771,614.6888744274237
772,615.0330295846438
773,615.3856096943564
774,615.7399779186612
775,616.0902339744094
776,616.4312990687718
777,616.7588250959368
778,617.0690159910537
779,617.3584660285219
780,617.6240985994353
781,617.8632420350297
782,618.0738324785307
783,618.2546983167964
784,618.4058535942692
785,618.5287140440862
786,618.6261579516989
787,618.7023828843627
788,618.7625492175495
789,618.8122467641047
790,618.8568657315964
791,618.9009850159906
792,618.9478946046132
793,618.9993393857554
794,619.0555212092493
795,619.115345352801
796,619.1768572288241
797,619.2377834306848
798,619.2960695884249
799,619.3503059922746
800,619.3999553216029
801,619.4453387710546
802,619.4873904908815
803,619.5272472357907
804,619.565778927717
805,619.6031655848948
806,619.6385939771001
807,619.6701112513832
808,619.6946508666365
809,619.7082377297479
810,619.7063721347895
811,619.6845708890712
812,619.6390047847256
813,619.5671301100323
814,619.4681918374157
815,619.34348930192
816,619.1963391256738
817,619.0317348163647
818,618.855767400684
819,618.6749105930777
820,618.4952774455516
821,618.3219360795842
822,618.158348709382
823,618.0059813687758
824,617.8641218992191
825,617.7299347570062
826,617.5987662357863
827,617.4646863167231
828,617.3212099870445
829,617.1620920240321
830,616.9820614269996
831,616.7773759859185
832,616.5461292523696
833,616.2883087341522
834,616.00566310736
835,615.7014687176751
836,615.3802794249671
837,615.0477066256876
838,614.7102294364632
839,614.3749923683548
840,614.0495205051396
841,613.7412922130012
842,613.4571672928778
843,613.2027455219024
844,612.981778853216
845,612.7957578443916
846,612.6437544923965
847,612.5225580480495
848,612.4271020967992
849,612.3511436273685
850,612.2881088354216
851,612.2319766790007
852,612.1780515211503
853,612.1234911112464
854,612.0675055759461
855,612.011218804714
856,611.9572578877036
857,611.9091744484306
858,611.8707981523268
859,611.8456060116047
860,611.8361875492002
861,611.8438876525635
862,611.8686890714388
863,611.9093484104257
864,611.9637428941572
865,612.0293396359972
866,612.1036743944217
867,612.1847299402237
868,612.2711355435994
869,612.3621576897293
870,612.4575027328086
871,612.556994144803
872,612.6602163845223
873,612.7662309588405
874,612.8734588486849
875,612.9797788575829
876,613.0828210929552
877,613.180366138047
878,613.2707266339445
879,613.3530050946115
880,613.4271767855344
881,613.4940051471622
882,613.5548285799472
883,613.6112587144758
884,613.6648239814724
885,613.716596739835
886,613.7668574114637
887,613.8148641523674
888,613.8587940510405
889,613.8958876911597
890,613.9227746754907
891,613.9359158261967
892,613.9320870977365
893,613.908843178037
894,613.8649189526146
895,613.8005417551769
896,613.7176307460286
897,613.6198550053527
898,613.5125169691189
899,613.4022321122939
900,613.2963990381639
901,613.2024971001542
902,613.1272964929002
903,613.0760956440286
904,613.0520971476277
905,613.0560012610498
906,613.0858581239636
907,613.1371951508967
908,613.2034204139832
909,613.2764758313065
910,613.3476657902594
911,613.4085383709206
912,613.4516823687305
913,613.4713349027636
914,613.4637505306499
915,613.4273347695265
916,613.3625766137704
