frame_number,force
0,494.41882000465375
1,494.44122198355103
2,494.4636511106857
3,494.48613410327295
4,494.50869682160146
5,494.53136385353275
6,494.5541581155792
7,494.5771004780986
8,494.6002094228637
9,494.6235007404896
10,494.64698727326856
11,494.6706787068177
12,494.6945814122675
13,494.7186983397006
14,494.7430289630616
15,494.7675692764892
16,494.7923118416365
17,494.8172458849616
18,494.84235744314736
19,494.86762955340185
20,494.89304248328665
21,494.91857399263563
22,494.94419961908517
23,494.9698929790077
24,494.9956260766075
25,495.02136961486326
26,495.04709330274216
27,495.07276615399024
28,495.0983567739722
29,495.12383363218015
30,495.1491653186916
31,495.1743207829031
32,495.1992695526721
33,495.2239819320204
34,495.2484291758211
35,495.272583640082
36,495.29641890638715
37,495.31990987898763
38,495.3430328534793
39,495.3657655573362
40,495.3880871645862
41,495.4099782889944
42,495.4314209616765
43,495.45239859963425
44,495.47289597104657
45,495.4928991616654
46,495.51239554522994
47,495.53137375981544
48,495.54982369110456
49,495.567736462407
50,495.5851044300249
51,495.6019211815113
52,495.618181533421
53,495.63388152412386
54,495.6490183963198
55,495.66359056373705
56,495.6775975577057
57,495.69103995158713
58,495.70391926342995
59,495.7162378390809
60,495.72799871924235
61,495.73920549462684
62,495.74986215337844
63,495.75997292457765
64,495.7695421211636
65,495.7785739849205
66,495.78707253508236
67,495.7950414206878
68,495.8024837756605
69,495.8094020756335
70,495.81579799724295
71,495.82167228330513
72,495.82702461944126
73,495.83185352806913
74,495.8361562841696
75,495.8399288549173
76,495.84316586343584
77,495.8458605762342
78,495.84800491407464
79,495.84958948649637
80,495.8506036505013
81,495.85103559392866
82,495.85087244395487
83,495.8501004010968
84,495.84870489901715
85,495.8466707901322
86,495.84398255641867
87,495.8406245440152
88,495.8365812194858
89,495.83183744508216
90,495.8263787696875
91,495.82019173104356
92,495.8132641635938
93,495.80558550522
94,495.7971470953944
95,495.78794245681206
96,495.77796755249364
97,495.7672210107133
98,495.7557043110277
99,495.7434219264255
100,495.73038141928504
101,495.7165934918724
102,495.7020719944452
103,495.6868338951109
104,495.6708992159091
105,495.6542909399481
106,495.63703489493605
107,495.61915961857005
108,495.60069621053515
109,495.58167817426687
110,495.5621412494893
111,495.54212323458006
112,495.5216637969211
113,495.50080426990377
114,495.4795874366053
115,495.45805730143064
116,495.43625885172054
117,495.4142378113884
118,495.39204038823385
119,495.3697130158793
120,495.3473020904875
121,495.324853701883
122,495.3024133587064
123,495.28002570776295
124,495.2577342485374
125,495.2355810447125
126,495.2136064352027
127,495.19184874743473
128,495.17034401518396
129,495.149125702391
130,495.12822443372147
131,495.10766773286775
132,495.0874797705907
133,495.06768112543364
134,495.0482885604349
135,495.0293148192927
136,495.0107684456297
137,494.99265362919715
138,494.97497008286416
139,494.957712954063
140,494.94087277412535
141,494.9244354486665
142,494.9083822917441
143,494.89269010589095
144,494.877331309403
145,494.86227411164026
146,494.8474827369634
147,494.83291769868765
148,494.81853612572763
149,494.80429214528135
150,494.79013732405053
151,494.77602116822254
152,494.7618916794752
153,494.7476959614743
154,494.73338086940925
155,494.71889369410667
156,494.7041828714885
157,494.6891987070461
158,494.6738941038635
159,494.65822528200465
160,494.6421524767979
161,494.6256406035798
162,494.60865987682394
163,494.59118637223105
164,494.5732025211698
165,494.5546975279412
166,494.5356677019405
167,494.51611669871795
168,494.496055665638
169,494.47550328891106
170,494.45448573938245
171,494.4330365153157
172,494.4111961824551
173,494.38901201508276
174,494.366537545349
175,494.3438320302145
176,494.320959845504
177,494.2979898158609
178,494.2749944890556
179,494.2520493639399
180,494.22923208334703
181,494.20662160535204
182,494.184297367124
183,494.1623384546522
184,494.14082278982755
185,494.119826344852
186,494.0994223929262
187,494.07968080326594
188,494.0606673877164
189,494.04244330579536
190,494.02506453464827
191,494.00858140942904
192,493.99303823770015
193,493.9784729890545
194,493.964917059127
195,493.95239510585
196,493.9409249550883
197,493.9305175723753
198,493.9211770971623
199,493.9129009357304
200,493.9056799087243
201,493.89949844909086
202,493.8943348460048
203,493.8901615302471
204,493.88694539647895
205,493.88464815754946
206,493.8832267252674
207,493.88263361182925
208,493.88281734727184
209,493.88372291047193
210,493.88529217295763
211,493.88746435537223
212,493.89017649605626
213,493.8933639302738
214,493.89696077735874
215,493.9009004319874
216,493.90511605559044
217,493.90954106476966
218,493.91410961478294
219,493.918757076837
220,493.9234205077717
221,493.9280391100359
222,493.9325546791731
223,493.9369120356518
224,493.94105943761497
225,493.94494897075293
226,493.94853691106437
227,493.951784055991
228,493.9546560195314
229,493.95712348767313
230,493.95916243181193
231,493.9607542793467
232,493.9618860419025
233,493.9625504024075
234,493.9627457625115
235,493.9624762517448
236,493.96175169959264
237,493.96058757131397
238,493.9590048675839
239,493.9570299868134
240,493.9546945477847
241,493.95203516961504
242,493.94909320612373
243,493.94591443229484
244,493.94254868177387
245,493.9390494361759
246,493.93547336898735
247,493.9318798486539
248,493.92833040708155
249,493.9248881813486
250,493.9216173378216
251,493.91858248879674
252,493.9158481120409
253,493.91347798318895
254,493.91153462995237
255,493.91007881556794
256,493.9091690571976
257,493.90886118361027
258,493.9092079353838
259,493.9102586095447
260,493.9120587491185
261,493.9146498772202
262,493.91806927530166
263,493.92234980527576
264,493.92751977480737
265,493.9336028441507
266,493.9406179718227
267,493.9485793951343
268,493.9574966402129
269,493.96737455508895
270,493.9782133590646
271,493.9900087019075
272,494.00275172724577
273,494.0164291358169
274,494.031023245894
275,494.04651205023856
276,494.06286927112615
277,494.08006441702025
278,494.0980628458317
279,494.1168258397475
280,494.1363106950795
281,494.1564708283401
282,494.17725589826784
283,494.19861194335476
284,494.22048153502107
285,494.24280394726566
286,494.2655153440993
287,494.28854898632824
288,494.31183545942633
289,494.3353029243693
290,494.3588773932028
291,494.38248303055894
292,494.40604248138754
293,494.4294772241299
294,494.45270794749564
295,494.47565494774614
296,494.49823854206505
297,494.5203794928258
298,494.541999437792
299,494.5630213222209
300,494.5833698297746
301,494.60297180966876
302,494.62175669778424
303,494.6396569298865
304,494.656608345522
305,494.6725505812127
306,494.6874274511366
307,494.701187312769
308,494.7137834142618
309,494.72517421993643
310,494.73532371019814
311,494.74420165229253
312,494.7517838385498
313,494.75805228918546
314,494.76299541732476
315,494.7666081545329
316,494.76889203557977
317,494.76985524120386
318,494.76951259714843
319,494.7678855272357
320,494.76500195858756
321,494.7608961784329
322,494.75560864356925
323,494.74918574482035
324,494.7416795294802
325,494.73314738454087
326,494.7236516825533
327,494.7132593909995
328,494.70204164590916
329,494.6900732912583
330,494.6774323866828
331,494.6641996863943
332,494.6504580918622
333,494.6362920805218
334,494.6217871130246
335,494.6070290221495
336,494.59210338692867
337,494.5770948959136
338,494.56208670444676
339,494.5471597925335
340,494.5323923317361
341,494.5178590704591
342,494.50363074668206
343,494.48977353608996
344,494.4763485424851
345,494.46341133671547
346,494.4510115496805
347,494.43919252378237
348,494.42799102577817
349,494.4174370231897
350,494.40755352646306
351,494.3983564993137
352,494.389854839411
353,494.38205043059
354,494.3749382664246
355,494.36850664369797
356,494.3627374233556
357,494.3576063559553
358,494.35308346834364
359,494.349133508099
360,494.34571644195364
361,494.3427880037934
362,494.34030028688494
363,494.338202373608
364,494.33644099412203
365,494.3349612035856
366,494.33370706665715
367,494.33262233840105
368,494.33165113180587
369,494.33073856309693
370,494.32983136675887
371,494.3288784730693
372,494.32783154194397
373,494.32664544738304
374,494.3252787065387
375,494.3236938471407
376,494.3218577077636
377,494.3197416674503
378,494.31732180404384
379,494.31457898369877
380,494.31149888703334
381,494.30807197992306
382,494.3042934388123
383,494.30016304155754
384,494.29568503502446
385,494.29086798973293
386,494.2857246498603
387,494.280271784373
388,494.27453004252135
389,494.2685238144774
390,494.26228109532616
391,494.25583334807044
392,494.24921535930804
393,494.24246508019456
394,494.23562344527636
395,494.228734162722
396,494.22184347116786
397,494.2149998603026
398,494.2082537540538
399,494.20165715696123
400,494.1952632661982
401,494.1891260532939
402,494.1832998201788
403,494.17783873371866
404,494.17279634235723
405,494.1682250787136
406,494.1641757528862
407,494.1606970422005
408,494.1578349838746
409,494.15563247753863
410,494.154128804617
411,494.1533591712239
412,494.1533542806413
413,494.15413994087817
414,494.1557367124886
415,494.15815960194726
416,494.16141780618307
417,494.1655145133705
418,494.1704467629011
419,494.17620536395907
420,494.1827748688159
421,494.1901335952072
422,494.1982536921948
423,494.2071012451073
424,494.2166364166994
425,494.2268136230998
426,494.237581744515
427,494.2488843723026
428,494.26066009573844
429,494.27284283281966
430,494.2853622091298
431,494.29814398710175
432,494.3111105454765
433,494.32418140617636
434,494.33727380376604
435,494.3503032912456
436,494.3631843750033
437,494.37583117137626
438,494.3881580773217
439,494.40008044781376
440,494.41151527252794
441,494.4223818443609
442,494.4326024125439
443,494.4421028135553
444,494.4508130737768
445,494.4586679787304
446,494.4656076042125
447,494.47157780427955
448,494.476530650263
449,494.48042481488216
450,494.4832258968999
451,494.48490668456157
452,494.4854473590593
453,494.4848356410199
454,494.4830668833049
455,494.48014411330274
456,494.4760780281361
457,494.47088694636255
458,494.464596719112
459,494.45724060226917
460,494.4488590899474
461,494.4394997086909
462,494.4292167717208
463,494.4180710927599
464,494.4061296590984
465,494.39346526373373
466,494.38015609707236
467,494.36628529967015
468,494.3519404781809
469,494.33721318684746
470,494.3221983769101
471,494.30699381666915
472,494.2916994858104
473,494.27641694877616
474,494.26124871299794
475,494.24629757832207
476,494.2316659839474
477,494.2174553589162
478,494.20376548192644
479,494.1906938561926
480,494.17833510535894
481,494.16678039681585
482,494.15611689861527
483,494.1464272752159
484,494.13778922587505
485,494.13027506821237
486,494.12395136840956
487,494.1188786185209
488,494.11511096057086
489,494.11269595685343
490,494.1116744061958
491,494.1120802065635
492,494.113940264814
493,494.11727445419564
494,494.1220956190918
495,494.1284096249057
496,494.13621544976377
497,494.14550531431604
498,494.1562648460471
499,494.16847327473863
500,494.1821036558859
501,494.19712311905846
502,494.21349313854563
503,494.23116982408976
504,494.25010423001726
505,494.2702426818551
506,494.2915271206933
507,494.31389546643453
508,494.33728200051837
509,494.3616177665495
510,494.38683098491856
511,494.41284747657147
512,494.43959109152064
513,494.4669841380663
514,494.49494780808755
515,494.5234025926063
516,494.55226868104916
517,494.58146633767626
518,494.6109162495336
519,494.64053984201564
520,494.6702595607728
521,494.69999912208687
522,494.729683737091
523,494.7592403170187
524,494.7885976663698
525,494.81768666911535
526,494.84644047089165
527,494.87479465816307
528,494.902687433682
529,494.93005978640474
530,494.95685565344536
531,494.98302207152733
532,495.00850931549616
533,495.0332710217151
534,495.05726429452983
535,495.0804497943496
536,495.10279180629914
537,495.1242582889122
538,495.1448209028321
539,495.16445502000454
540,495.1831397146185
541,495.200857737774
542,495.21759547769193
543,495.2333429059614
544,495.2480935085977
545,495.2618441996389
546,495.27459521513555
547,495.2863499863919
548,495.2971149925063
549,495.3068995930057
550,495.31571584167085
551,495.3235782830203
552,495.330503733564
553,495.33651105042475
554,495.34162088996203
555,495.3458554588814
556,495.34923826025323
557,495.35179383679144
558,495.35354751341197
559,495.35452514057675
560,495.354752839737
561,495.3542567527754
562,495.3530627984706
563,495.3511964399247
564,495.34868246727
565,495.34554480009893
566,495.3418063140733
567,495.33748869564346
568,495.3326123276077
569,495.3271962070282
570,495.3212578964674
571,495.3148135093345
572,495.3078777293584
573,495.30046386246585
574,495.2925839174068
575,495.28424871037
576,495.2754679887524
577,495.26625056961154
578,495.2566044886538
579,495.24653715597094
580,495.2360555153979
581,495.2251662051518
582,495.2138757178015
583,495.20219055726693
584,495.19011738977923
585,495.17766318540737
586,495.1648353476677
587,495.1516418307986
588,495.1380912463706
589,495.12419296165746
590,495.10995719120314
591,495.09539508117456
592,495.0805187847017
593,495.06534152601375
594,495.04987765138435
595,495.03414266497646
596,495.0181532470589
597,495.0019272508942
598,494.9854836739053
599,494.96884259958324
600,494.95202510897496
601,494.93505316338747
602,494.9179494620073
603,494.90073727904013
604,494.88344028509545
605,494.8660823575321
606,494.848687384653
607,494.83127906874404
608,494.81388073249536
609,494.79651513244795
610,494.7792042827634
611,494.7619692934774
612,494.7448302287168
613,494.7278059905792
614,494.7109142328849
615,494.69417130669615
616,494.67759223759515
617,494.6611907336363
618,494.6449792223973
619,494.62896891529107
620,494.6131698970908
621,494.59759123834465
622,494.5822411277637
623,494.567127020496
624,494.5522557968448
625,494.5376339254808
626,494.5232676260317
627,494.5091630274343
628,494.4953263196374
629,494.48176389679213
630,494.46848248994064
631,494.4554892865348
632,494.44279203341097
633,494.43039911977564
634,494.41831963728737
635,494.4065634147596
636,494.39514102506604
637,494.38406376189926
638,494.3733435847379
639,494.36299303209006
640,494.3530251054902
641,494.34345312869857
642,494.3342905871197
643,494.3255509516936
644,494.3172474900435
645,494.3093930659448
646,494.3019999267078
647,494.2950794775553
648,494.28864204286407
649,494.28269661576485
650,494.2772505992125
651,494.2723095429158
652,494.2678768818145
653,494.2639536834227
654,494.2605384128961
655,494.2576267253006
656,494.2552112938226
657,494.2532816807204
658,494.2518242552556
659,494.2508221603706
660,494.2502553280909
661,494.25010054272065
662,494.2503315507071
663,494.2509192160999
664,494.2518317201323
665,494.25303480214455
666,494.25449203722656
667,494.256165144604
668,494.2580143207821
669,494.25999859283894
670,494.26207618907824
671,494.2642049252491
672,494.2663426040785
673,494.26844742434963
674,494.2704783941384
675,494.2723957417865
676,494.2741613178813
677,494.27573898177945
678,494.277094966954
679,494.2781982205797
680,494.2790207138857
681,494.2795377203833
682,494.27972805926646
683,494.27957430193925
684,494.2790629412549
685,494.2781845249248
686,494.276933755529
687,494.27530955930604
688,494.2733151249941
689,494.2709579130578
690,494.2682496348742
691,494.2652062007552
692,494.2618476350113
693,494.2581979557564
694,494.25428501693017
695,494.25014030997926
696,494.24579872266037
697,494.24129825261105
698,494.23667967402076
699,494.23198615726
700,494.2272628435826
701,494.22255637939475
702,494.2179144166863
703,494.21338508829905
704,494.2090164691501
705,494.20485603708084
706,494.2009501487546
707,494.1973435460261
708,494.19407890616685
709,494.19119644595713
710,494.1887335861051
711,494.1867246794396
712,494.18520080381455
713,494.18418961846527
714,494.183715280831
715,494.1837984198086
716,494.1844561606542
717,494.18570219572354
718,494.18754689390147
719,494.189997440324
720,494.1930579971044
721,494.19672987549114
722,494.2010117106994
723,494.20589963255645
724,494.2113874272353
725,494.21746668698154
726,494.2241269458351
727,494.2313558001176
728,494.23913901282504
729,494.2474606009994
730,494.25630290515994
731,494.2656466405572
732,494.2754709312853
733,494.28575332942154
734,494.2964698218907
735,494.3075948277998
736,494.31910118884946
737,494.3309601555005
738,494.34314137226335
739,494.35561286679575
740,494.3683410488301
741,494.38129072556757
742,494.394425139834
743,494.4077060362843
744,494.4210937595695
745,494.4345473867001
746,494.44802489400683
747,494.46148335737723
748,494.4748791828311
749,494.48816836277996
750,494.50130675155776
751,494.5142503525482
752,494.5269556090619
753,494.5393796919378
754,494.55148077793655
755,494.5632183139057
756,494.57455326257246
757,494.5854483268336
758,494.5958681506053
759,494.6057794958504
760,494.6151513973554
761,494.6239552986975
762,494.6321651738508
763,494.6397576386107
764,494.64671205476793
765,494.65301062854076
766,494.6586385037661
767,494.6635838496677
768,494.6678379422084
769,494.6713952369259
770,494.6742534299953
771,494.6764135034077
772,494.6778797499324
773,494.67865977415306
774,494.67876446729616
775,494.6782079553745
776,494.6770075217236
777,494.67518350588335
778,494.6727591809355
779,494.66976061106084
780,494.6662164904979
781,494.6621579646485
782,494.65761843414435
783,494.65263334320065
784,494.64723995393445
785,494.641477107933
786,494.6353849753306
787,494.6290047908261
788,494.6223785761387
789,494.61554884917473
790,494.60855832096667
791,494.60144958191717
792,494.59426477912314
793,494.5870452866784
794,494.57983137106373
795,494.5726618544623
796,494.565573780054
797,494.55860208422945
798,494.5517792804753
799,494.5451351587031
800,494.5386965029657
801,494.5324868305873
802,494.526526156796
803,494.52083079024305
804,494.5154131654429
805,494.51028171810043
806,494.50544080891217
807,494.50089070066633
808,494.4966275918082
809,494.4926437069326
810,494.48892744145553
811,494.4854635551266
812,494.4822334081618
813,494.47921523465055
814,494.4763844493015
815,494.4737139841173
816,494.47117465090736
817,494.468735524512
818,494.46636434108467
819,494.4640279058501
820,494.4616925049379
821,494.459324315813
822,494.45688981064865
823,494.45435614731673
824,494.4516915438719
825,494.44886563400956
826,494.44584980214563
827,494.4426174970635
828,494.4391445226818
829,494.43540930390657
830,494.43139312521475
831,494.4270803395893
832,494.4224585452705
833,494.417518727284
834,494.412255360371
835,494.40666647038586
836,494.4007536522131
837,494.39452204302347
838,494.3879802499384
839,494.3811402313174
840,494.3740171314974
841,494.366629070061
842,494.3589968883303
843,494.35114385755196
844,494.3430953550417
845,494.334878516064
846,494.32652186995546
847,494.3180549687895
848,494.30950801594844
849,494.3009115008216
850,494.29229584502696
851,494.2836910652795
852,494.2751264580192
853,494.26663031065704
854,494.2582296434776
855,494.24994998503286
856,494.2418151828125
857,494.23384725045224
858,494.226066252563
859,494.21849022793333
860,494.2111351511778
861,494.2040149321394
862,494.1971414515708
863,494.1905246304581
864,494.18417252871245
865,494.17809146745765
866,494.17228616840674
867,494.1667599038769
868,494.16151465146135
869,494.15655124804175
870,494.15186953862695
871,494.1474685163984
872,494.1433464512198
873,494.13950100465786
874,494.13592933027104
875,494.1326281586333
876,494.12959386707996
877,494.12682253418933
878,494.1243099786224
879,494.12205178162156
880,494.1200432924421
881,494.1182796161588
882,494.11675558368125
883,494.1154657044528
884,494.1144041028968
885,494.11356444013893
886,494.11293982365765
887,494.1125227098758
888,494.1123048073826
889,494.11227698976114
890,494.1124292262335
891,494.11275053650235
892,494.1132289746532
893,494.11385164616894
894,494.1146047614884
895,494.115473728576
896,494.1164432854601
897,494.1174976716946
