frame_number,force
0,642.8081700000312
1,642.82431875518
2,642.8368134456568
3,642.8421118359213
4,642.8369736268043
5,642.8187564120005
6,642.7857741870604
7,642.7376244220958
8,642.6753854928216
9,642.6016272593695
10,642.5202371705648
11,642.4361084497631
12,642.3547469122541
13,642.2818354015849
14,642.2227727320143
15,642.1821988693735
16,642.1635356409607
17,642.1685986767986
18,642.1973508155023
19,642.247860562113
20,642.3165022057644
21,642.3983873288759
22,642.4879586827695
23,642.5796320307554
24,642.6683653718031
25,642.7500700055438
26,642.8218330003341
27,642.8819703663945
28,642.9299563839933
29,642.9662700429831
30,642.9921758853327
31,643.009440106793
32,643.0199928930907
33,643.0255799365826
34,643.0274744034734
35,643.0263173736387
36,643.0221130978265
37,643.0143484981662
38,643.0021701749198
39,642.9845580312958
40,642.9604738999585
41,642.9290049800791
42,642.889534160294
43,642.8419419403397
44,642.7867960624095
45,642.7254537176959
46,642.6600192709075
47,642.5931623641459
48,642.5278611829578
49,642.4671462957186
50,642.4138800687468
51,642.3705612701838
52,642.3391366708503
53,642.320825131847
54,642.3159788981587
55,642.3240060412988
56,642.3433698791425
57,642.3716753349246
58,642.4058444118385
59,642.4423736289431
60,642.4776633379776
61,642.5084077225458
62,642.5320166528604
63,642.5470024536772
64,642.5532313580553
65,642.5519452115694
66,642.5455153501974
67,642.5369738854369
68,642.529436352682
69,642.5255536623455
70,642.5271072956807
71,642.534809108146
72,642.5483118618239
73,642.5663954827219
74,642.5872729853529
75,642.6089591819289
76,642.6296553097128
77,642.6481058661501
78,642.6638736819749
79,642.6774723128685
80,642.6903121011117
81,642.704454475762
82,642.7222061936174
83,642.7456149223838
84,642.7759599949433
85,642.8133546697859
86,642.856556855043
87,642.9030266038599
88,642.9492123037219
89,642.9910164978928
90,643.0243712535412
91,643.045829095217
92,643.0530633662455
93,643.0451894203351
94,643.0228629602943
95,642.9881659094735
96,642.944330390466
97,642.8953631715931
98,642.8456262369046
99,642.7994276944112
100,642.7606837336635
101,642.7327028665947
102,642.718104815155
103,642.7188387834628
104,642.7362413379574
105,642.7710821038642
106,642.8235688273401
107,642.8933015095257
108,642.979176383113
109,643.0792574824458
110,643.1906596646605
111,643.3095048082309
112,643.4310044286798
113,643.549689763015
114,643.6597736274665
115,643.7556041280086
116,643.8321629154728
117,643.8855628979635
118,643.9135016136945
119,643.9156230593519
120,643.8937382642295
121,643.8518585022582
122,643.7960022278004
123,643.7337478335158
124,643.6735318266395
125,643.6237451451542
126,643.5917428963081
127,643.5829209729746
128,643.6000069124282
129,643.642672825131
130,643.7075269925161
131,643.7884853839457
132,643.8774669452087
133,643.9653113895401
134,644.0427987553326
135,644.1016482962593
136,644.1353737938018
137,644.1398766659195
138,644.113689649154
139,644.0578510738034
140,643.9754707114604
141,643.8711098949616
142,643.7501244110945
143,643.6181090627362
144,643.4805392770722
145,643.3426299856144
146,643.2093451355048
147,643.0854330578966
148,642.9753698050221
149,642.8831630914063
150,642.8120577926547
151,642.7642348693879
152,642.7405871088148
153,642.7406070675439
154,642.7623747066382
155,642.8026166245538
156,642.8568312430689
157,642.9195102657208
158,642.984497846544
159,643.0454933800149
160,643.0966393741379
161,643.1330882337581
162,643.1514422858982
163,643.1500011124281
164,643.1287991192996
165,643.0894546933324
166,643.0348781984784
167,642.9689009334302
168,642.8958866872746
169,642.8203700123178
170,642.7467413259641
171,642.6789821397011
172,642.6204477274298
173,642.5736945928722
174,642.5403517051872
175,642.5210379615568
176,642.5153348725374
177,642.521828882325
178,642.5382361733791
179,642.5616124647614
180,642.5886326404465
181,642.6159062417472
182,642.6402846499066
183,642.6591177660637
184,642.6704291549876
185,642.6729974116247
186,642.6663539148205
187,642.6507206350853
188,642.6269072642832
189,642.5961726078627
190,642.5600481499355
191,642.5201301395722
192,642.4778634663079
193,642.4343537768717
194,642.3902470665238
195,642.3457074606938
196,642.3005032600369
197,642.254177059361
198,642.2062362483306
199,642.1562826695128
200,642.1040309943331
201,642.0492324064044
202,641.9915731863615
203,641.9306188745959
204,641.8658357360043
205,641.7966828847146
206,641.7227535736191
207,641.6439420541461
208,641.5606046879685
209,641.473673951901
210,641.3846908393094
211,641.2957519040681
212,641.2094036159357
213,641.1285297067266
214,641.0562548825147
215,640.9958499232087
216,640.9505998282817
217,640.92360292914
218,640.9174992522719
219,640.934165303251
220,640.9744383966824
221,641.0379278376931
222,641.1229346118853
223,641.2264617651342
224,641.3442822715891
225,641.4710491601945
226,641.600469729823
227,641.7255890507068
228,641.8392108076999
229,641.9344339952316
230,642.0052368442936
231,642.0470219390139
232,642.0570499075017
233,642.0347138453212
234,641.9816251092088
235,641.9014972225951
236,641.7998418749833
237,641.6835245694432
238,641.5602453027035
239,641.4379990883999
240,641.3245426463304
241,641.2268727810153
242,641.1507301131601
243,641.100173941491
244,641.0772999790869
245,641.0821679781026
246,641.1129711043762
247,641.1664263445425
248,641.2383097956049
249,641.3240222966352
250,641.4190705353094
251,641.5193917769694
252,641.6215161576215
253,641.7226107087442
254,641.8204551082102
255,641.9133709991454
256,642.0001056403631
257,642.0796803373523
258,642.1512382259218
259,642.2139373683905
260,642.2669242903446
261,642.3093952998795
262,642.3407202654895
263,642.3605839654078
264,642.3691056073602
265,642.3669173735324
266,642.3551938420821
267,642.3356172897265
268,642.3102580342647
269,642.2813643940261
270,642.251084994486
271,642.2211646981178
272,642.1926637875669
273,642.1657602994056
274,642.1396992967968
275,642.1129306784767
276,642.0834299034143
277,642.0491456082009
278,642.0084852822395
279,641.9607435774685
280,641.9063938689113
281,641.8471915509571
282,641.7860685500219
283,641.7268304881645
284,641.6736998961859
285,641.6307766637018
286,641.6015048164139
287,641.5882352586029
288,641.5919510120781
289,641.6121821917778
290,641.6471022340883
291,641.6937738719491
292,641.7484958943503
293,641.8071877677218
294,641.8657509311479
295,641.9203711382529
296,641.9677601736629
297,642.0053491120137
298,642.0314320705039
299,642.0452422780179
300,642.0469421138347
301,642.0375224085275
302,642.0186212004753
303,641.9922852533228
304,641.9607112863226
305,641.9260132680324
306,641.8900618826718
307,641.8544352528301
308,641.8205037369307
309,641.7896364710859
310,641.763470308953
311,641.7441465458279
312,641.7344138682481
313,641.7375227240711
314,641.7568932682357
315,641.795606807984
316,641.8558210856597
317,641.9382253220858
318,642.0416349816445
319,642.1627988019549
320,642.2964686256338
321,642.4357577861967
322,642.5727655535899
323,642.6993805620397
324,642.8081350739367
325,642.892988409316
326,642.9499502572406
327,642.977481000449
328,642.9766263298969
329,642.9508771864223
330,642.9057978581769
331,642.8485117732786
332,642.7871434631589
333,642.7302774260113
334,642.6864401173458
335,642.6635807814913
336,642.6685358509616
337,642.7064967097141
338,642.780535536151
339,642.891256940926
340,643.0366289618008
341,643.2120159217
342,643.410404363349
343,643.6227972446438
344,643.838755208575
345,644.0470730200219
346,644.2365734590055
347,644.3969758532564
348,644.5197676595944
349,644.5989883579892
350,644.6318251579003
351,644.6189240291186
352,644.5643549275239
353,644.4752384210508
354,644.36110611313
355,644.2330875001494
356,644.1029923796831
357,643.9823330097938
358,643.8813384880709
359,643.8080489347662
360,643.7676062963684
361,643.7618541468315
362,643.7893127863355
363,643.8455216548743
364,643.9236668668083
365,644.0153646079756
366,644.1114650563874
367,644.202774509631
368,644.2806479708472
369,644.3374560636994
370,644.3669618889787
371,644.3646474927515
372,644.3280044455074
373,644.2567618783431
374,644.1529944239586
375,644.0210497013568
376,643.8672604856813
377,643.6994508053376
378,643.5262899224902
379,643.3565727616909
380,643.1985054774203
381,643.0590654840756
382,642.9434968345197
383,642.8549859052486
384,642.7945304041442
385,642.7609813101908
386,642.7512274956853
387,642.7605059186609
388,642.7828285491793
389,642.811506017384
390,642.8397332053437
391,642.8611983899801
392,642.8706767808601
393,642.8645605519597
394,642.8412675934185
395,642.801472832891
396,642.748120970836
397,642.6862028875495
398,642.6223051946977
399,642.5639676410955
400,642.5189026461433
401,642.4941489750266
402,642.4952522212226
403,642.5255824863132
404,642.5858975261642
405,642.6742237880462
406,642.7860658996154
407,642.9148966786673
408,643.0528471428539
409,643.1915004850267
410,643.3226771352748
411,643.4390938600835
412,643.534820757786
413,643.6055347574678
414,643.6486190680339
415,643.6631559913383
416,643.6498367326358
417,643.6108012734614
418,643.5494249164402
419,643.4700760214768
420,643.3778754800422
421,643.2784807990049
422,643.1778909762583
423,643.0822389111477
424,642.9975262169576
425,642.9292648219757
426,642.8820157246731
427,642.8588571803623
428,642.8608688470895
429,642.8867633503758
430,642.9327987785443
431,642.9930488418253
432,643.0600144788468
433,643.1254768989943
434,643.1814491324873
435,643.2210841812011
436,643.2394274847614
437,643.2339375720825
438,643.2047260810735
439,643.1544919018885
440,643.0881585664833
441,643.0122667916609
442,642.9342061199204
443,642.8613794982125
444,642.8003897279087
445,642.7563305487922
446,642.7322614879386
447,642.7289354317384
448,642.7448202103775
449,642.7764110983283
450,642.8187832194889
451,642.8662959605039
452,642.9133427209135
453,642.9550357934078
454,642.9877231863036
455,643.0092603965519
456,643.0190176861256
457,643.0176757293927
458,643.0069079236661
459,642.9890437493781
460,642.9667705564108
461,642.9428916430303
462,642.9201357077693
463,642.9010101789144
464,642.8877006220062
465,642.8820257235382
466,642.8854523705945
467,642.8991603628094
468,642.9241255543683
469,642.9611687153906
470,643.0109138228149
471,643.0736304913754
472,643.148987343198
473,643.2357877857293
474,643.3317810026593
475,643.4336287495634
476,643.5370576915313
477,643.6371627199777
478,643.7287926235142
479,643.8069578484984
480,643.8672250408263
481,643.9060794475826
482,643.9212358633047
483,643.9118662942166
484,643.878706809807
485,643.8240239528235
486,643.7514526528215
487,643.6657380396798
488,643.5724126877728
489,643.4774263442879
490,643.3867313081075
491,643.3058276791755
492,643.2392954967975
493,643.190376373766
494,643.1606895975981
495,643.1501486213213
496,643.1570844631887
497,643.1785222553425
498,643.2105366296885
499,643.2486333828764
500,643.2881373607853
501,643.3245798366561
502,643.3540697322778
503,643.3736149540317
504,643.3813447237281
505,643.3765859276184
506,643.3597791263976
507,643.3322686732052
508,643.2960295938464
509,643.2533845665197
510,643.2067397685502
511,643.1583602699361
512,643.1102164455646
513,643.0639335856752
514,643.0208453280616
515,642.9821050821998
516,642.9487881864846
517,642.9219383099597
518,642.9025556928957
519,642.8915626683283
520,642.8897919484817
521,642.8980162718058
522,642.9169890728616
523,642.9474315098593
524,642.989908577343
525,643.0445822092424
526,643.1108884612597
527,643.1872330754146
528,643.2708121855602
529,643.3576318664955
530,643.4427390874041
531,643.5206238394823
532,643.585726839153
533,643.6329787175404
534,643.658291104108
535,643.6589217913706
536,643.6336598689012
537,643.5828247495753
538,643.5081239847989
539,643.4124405698484
540,643.2996141340407
541,643.1742545275356
542,643.0415895415989
543,642.9073078874483
544,642.7773374839736
545,642.6575209190304
546,642.5532047994213
547,642.4688102722475
548,642.4074686601884
549,642.3707857282384
550,642.358757842925
551,642.3698259317215
552,642.4010352720662
553,642.448274431948
554,642.5065804854603
555,642.5704970577411
556,642.6344549139797
557,642.6931361865378
558,642.7417982166857
559,642.7765545554207
560,642.794612963208
561,642.7944495521251
562,642.7758770000185
563,642.7399707225816
564,642.6888541232659
565,642.6253861152986
566,642.5528120567493
567,642.4744294655884
568,642.3933001241382
569,642.3120268407533
570,642.2326084497805
571,642.1563848102271
572,642.0840799548753
573,642.0159424740901
574,641.9519654560194
575,641.8921477680796
576,641.8367423897105
577,641.7864318737492
578,641.7423786380022
579,641.7061207772754
580,641.6793220080912
581,641.6634285853737
582,641.6593184180489
583,641.6670301504514
584,641.6856283502894
585,641.7132104747974
586,641.747021842064
587,641.7836413798982
588,641.8192302427168
589,641.8498657373106
590,641.8719788008584
591,641.8828635828038
592,641.8811590322482
593,641.8671605389981
594,641.8428357373414
595,641.8114939111514
596,641.7771668366256
597,641.7438549468142
598,641.7148337582819
599,641.6921865873278
600,641.6766486626631
601,641.6677523146201
602,641.664190530233
603,641.664285554797
604,641.6664531594739
605,641.6695736110559
606,641.6732087302729
607,641.677640027465
608,641.6837397190352
609,641.6927155481786
610,641.7057896647914
611,641.7238818974156
612,641.7473656340499
613,641.7759494034277
614,641.8087131362314
615,641.844299246577
616,641.8812278539269
617,641.918273196876
618,641.9548087511549
619,641.9910210034092
620,642.027927625046
621,642.0672059894229
622,642.1109008088733
623,642.1610968464266
624,642.2196130315815
625,642.2877314741517
626,642.3659536088466
627,642.4537838832308
628,642.5495627411564
629,642.6503856326084
630,642.7521457082889
631,642.8497283830486
632,642.9373714564682
633,643.0091862590778
634,643.0598107546193
635,643.0851309184288
636,643.0829655542227
637,643.0535805260394
638,642.9999057397696
639,642.9273808254621
640,642.8434342169124
641,642.7566720008155
642,642.6758982345788
643,642.6091106390553
644,642.5626218913756
645,642.5404442822156
646,642.5440360592511
647,642.5724378457305
648,642.6227378233519
649,642.6907251348482
650,642.7715602469989
651,642.860326424424
652,642.9524053020986
653,643.0436947234998
654,643.1307263934892
655,643.2107432217476
656,643.2817728244195
657,643.3426951495773
658,643.3932668673583
659,643.4340592468504
660,643.4662995146995
661,643.4916535160503
662,643.5120120331809
663,643.5293302441606
664,643.5455363154117
665,643.5624959426037
666,643.5820054499562
667,643.6057810514761
668,643.6354106622991
669,643.6722430327881
670,643.7172125863806
671,643.7706305035049
672,643.8319977524152
673,643.8998976229436
674,643.9719983709169
675,644.0451585245411
676,644.1156085570526
677,644.1791935912395
678,644.2316806291839
679,644.2691311526922
680,644.2883104417969
681,644.2870710735189
682,644.2646363120934
683,644.2217255774061
684,644.1604966110394
685,644.0843154057031
686,643.997399328796
687,643.9044050827054
688,643.810042188255
689,643.7187746704088
690,643.6346303447694
691,643.5610914983979
692,643.5010185274157
693,643.4565624084681
694,643.4290386381025
695,643.4187561346441
696,643.4248228643041
697,643.4449855283888
698,643.4755875895319
699,643.5117255215844
700,643.5476395541798
701,643.5773081430902
702,643.5951532051033
703,643.5967285256472
704,643.579263549076
705,643.5419644954203
706,643.4860285234371
707,643.4143949294618
708,643.3313174223912
709,643.2418645728092
710,643.1514308213236
711,643.0652892184387
712,642.9881783950493
713,642.9239142285311
714,642.8750411755417
715,642.8425602830579
716,642.8257742343407
717,642.822283244395
718,642.8281619876765
719,642.838338193575
720,642.8471604054358
721,642.8490929576521
722,642.839438741141
723,642.8149805298673
724,642.7744451586885
725,642.7187237033883
726,642.6508198512893
727,642.5755417627358
728,642.4989903084379
729,642.4279183239473
730,642.3690401276485
731,642.3283681707293
732,642.3106537463129
733,642.3190081425579
734,642.3547625302156
735,642.4175715928878
736,642.5056866904894
737,642.6162658657609
738,642.745599035718
739,642.8892066722186
740,643.0418620426709
741,643.1976295411638
742,643.3499942635427
743,643.4921142609829
744,643.6171874354355
745,643.7188976394748
746,643.791888875188
747,643.8322120328097
748,643.8376905848369
749,643.8081565284305
750,643.745519978504
751,643.653658565768
752,643.5381407411356
753,643.4058217525641
754,643.2643650636321
755,643.1217383024639
756,642.9857133777771
757,642.8633825124361
758,642.7607011619034
759,642.6820794581207
760,642.6300516571794
761,642.6050578388375
762,642.6053801208534
763,642.627278985765
764,642.6653563354371
765,642.7131246212974
766,642.7637020303506
767,642.8105142940545
768,642.8478904098756
769,642.8714887937424
770,642.8785507753302
771,642.8680170754872
772,642.8405452287714
773,642.7984398869556
774,642.7454795740666
775,642.6866172030842
776,642.627550162022
777,642.5741843226534
778,642.5320416059906
779,642.5056776483143
780,642.4981820164834
781,642.5108244484173
782,642.5428872255835
783,642.5916978424601
784,642.652861930451
785,642.720690342274
786,642.7887963631722
787,642.8508024032336
788,642.9010610838591
789,642.9352878173124
790,642.9510227403374
791,642.9478727361571
792,642.927515021667
793,642.8934709686681
794,642.8506853372265
795,642.804966053795
796,642.7623444716941
797,642.7284118968362
798,642.7076920398117
799,642.7031240370812
800,642.7157376576945
801,642.7445812424547
802,642.7869139409063
803,642.8386151334821
804,642.8947192079168
805,642.9499716966604
806,642.9993262700727
807,643.0383452911555
808,643.0635047853006
809,643.0724202241851
810,643.0640027640643
811,643.0385404992304
812,642.9976872429534
813,642.9443345782731
814,642.882347218119
815,642.8161685836959
816,642.750348347188
817,642.689079173455
818,642.6358327060519
819,642.5931573808456
820,642.5626603576951
821,642.5451520226003
822,642.5408862178334
823,642.5497989208392
824,642.5716570791685
825,642.606076582723
826,642.6524231918153
827,642.7096438811402
828,642.776081399913
829,642.8493144363424
830,642.9260608780634
831,643.0021895349888
832,643.0728858531348
833,643.1329882955091
834,643.1774653009531
835,643.2019677802643
836,643.203383941407
837,643.1803348044333
838,643.1335603410512
839,643.066141265451
840,642.9834871819097
841,642.8930264721677
842,642.8035775599183
843,642.724456798014
844,642.6644527702597
845,642.6308333523548
846,642.628534594271
847,642.6596295304012
848,642.7231282253537
849,642.81513360527
850,642.9293499024703
851,643.057885767721
852,643.1922226612312
853,643.3241757923827
854,643.4466932683986
855,643.5544061664884
856,643.6439123367996
857,643.7138160357794
858,643.7645558295809
859,643.7980568336656
860,643.8172549464102
861,643.8255566590956
862,643.8263070015938
863,643.8223364975522
864,643.8156492613152
865,643.807296802611
866,643.7974487503217
867,643.785626381714
868,643.7710269771792
869,643.7528561338693
870,643.7306038792868
871,643.7042318841698
872,643.674261060979
873,643.6417552324036
874,643.6082030975173
875,643.5753216753029
876,643.5448289861338
877,643.518238645577
878,643.4967099996048
879,643.480963049341
880,643.4712526251608
881,643.4673884628141
882,643.4687830656201
883,643.4745132191769
884,643.4833960537628
885,643.4940967357819
886,643.5052874396312
887,643.5158553432691
888,643.5251170713557
889,643.5329677305078
890,643.5399012124032
891,643.546880676208
892,643.5550900223436
893,643.56563699597
894,643.5792925915409
895,643.5963373029894
896,643.6165509921051
897,643.639339611363
898,643.6639486192199
899,643.6896858471515
900,643.7160812113136
901,643.7429434296859
902,643.7703118131501
903,643.798327003911
904,643.8270611736702
905,643.8563607748587
906,643.885753913711
907,643.9144491572011
908,643.9414125441749
909,643.9654793568591
910,643.985454401505
911,644.000180110533
912,644.0085911420318
913,644.0097991918483
914,644.003239007595
915,643.9888635447184
916,643.9673376641778
