frame_number,force
0,710.7953500084532
1,710.7612144948384
2,710.727327594368
3,710.6939358694545
4,710.6612818089535
5,710.6296018605178
6,710.5991245437043
7,710.5700686665901
8,710.5426416654341
9,710.5170380839656
10,710.4934382060469
11,710.4720068522432
12,710.4528923475691
13,710.4362256650624
14,710.4221197477746
15,710.4106690093938
16,710.4019490107614
17,710.3960163068226
18,710.3929084568829
19,710.3926441901859
20,710.3952237179012
21,710.4006291813355
22,710.4088252252355
23,710.4197596850868
24,710.4333643782688
25,710.449555990271
26,710.468237048363
27,710.4892969757269
28,710.5126132188262
29,710.5380524397763
30,710.5654717640728
31,710.5947200727095
32,710.6256393268296
33,710.6580659126771
34,710.6918319944564
35,710.7267668623442
36,710.7626982620851
37,710.7994536915116
38,710.8368616485815
39,710.8747528160454
40,710.9129611702365
41,710.9513250052003
42,710.9896878671607
43,711.0278993972486
44,711.0658160824936
45,711.1033019166804
46,711.14022897408
47,711.1764779003446
48,711.2119383255714
49,711.2465092039897
50,711.2800990828543
51,711.3126263009536
52,711.3440191160144
53,711.3742157607935
54,711.4031644293387
55,711.4308231965454
56,711.4571598745232
57,711.4821518083734
58,711.505785612967
59,711.5280568523655
60,711.548969664566
61,711.5685363354216
62,711.5867768261406
63,711.6037182586588
64,711.6193943628073
65,711.6338448891405
66,711.6471149918594
67,711.6592545872647
68,711.6703176940425
69,711.6803617620511
70,711.6894469961413
71,711.6976356811856
72,711.7049915143306
73,711.7115789508941
74,711.7174625712967
75,711.7227064773356
76,711.7273737261678
77,711.7315258092409
78,711.735222181653
79,711.7385198458792
80,711.7414729929785
81,711.7441327039832
82,711.7465467134671
83,711.748759235967
84,711.7508108544598
85,711.752738468863
86,711.7545753013094
87,711.7563509535221
88,711.7580915103055
89,711.7598196824672
90,711.7615549822419
91,711.763313923821
92,711.765110240538
93,711.7669551092034
94,711.7688573720263
95,711.7708237478358
96,711.7728590263757
97,711.7749662416129
98,711.7771468218812
99,711.7794007158965
100,711.7817264939019
101,711.7841214226513
102,711.786581512351
103,711.7891015335996
104,711.7916750027167
105,711.7942941345956
106,711.7969497636452
107,711.7996312354364
108,711.8023262735808
109,711.805020827478
110,711.8076989069932
111,711.810342410368
112,711.8129309520115
113,711.8154416971379
114,711.8178492102626
115,711.8201253243207
116,711.8222390368611
117,711.8241564395216
118,711.8258406867386
119,711.8272520092955
120,711.8283477777458
121,711.8290826199376
122,711.8294085960521
123,711.8292754337798
124,711.8286308249465
125,711.8274207824757
126,711.8255900534796
127,711.8230825816952
128,711.8198420113533
129,711.8158122247951
130,711.810937906757
131,711.8051651282096
132,711.7984419415959
133,711.7907189777075
134,711.7819500331184
135,711.7720926369093
136,711.7611085866812
137,711.7489644460832
138,711.7356319982568
139,711.7210886510171
140,711.7053177901488
141,711.6883090773749
142,711.6700586899209
143,711.6505694994818
144,711.6298511894882
145,711.6079203102737
146,711.5848002718388
147,711.5605212737242
148,711.5351201715672
149,711.5086402804674
150,711.4811311162589
151,711.4526480771143
152,711.4232520693934
153,711.3930090830463
154,711.3619897232834
155,711.3302687068291
156,711.2979243324405
157,711.2650379356851
158,711.2316933371243
159,711.197976291721
160,711.163973946122
161,711.129774309409
162,711.095465741471
163,711.0611364614308
164,711.0268740775042
165,710.9927651399025
166,710.9588947193357
167,710.9253460143423
168,710.8921999905334
169,710.8595350539699
170,710.8274267596886
171,710.7959475553745
172,710.7651665596694
173,710.7351493745009
174,710.7059579304979
175,710.6776503634894
176,710.650280918369
177,710.6238998751934
178,710.5985534922717
179,710.5742839621705
180,710.5511293779044
181,710.5291237071125
182,710.5082967717424
183,710.4886742302647
184,710.4702775592654
185,710.4531240318706
186,710.4372266920526
187,710.422594325942
188,710.4092314328861
189,710.39713819968
190,710.3863104815554
191,710.3767397937268
192,710.3684133177126
193,710.3613139270269
194,710.3554202367745
195,710.3507066809334
196,710.3471436196617
197,710.3446974771682
198,710.343330909253
199,710.3430029990668
200,710.3436694797092
201,710.3452829820826
202,710.3477933056686
203,710.3511477092915
204,710.3552912190767
205,710.3601669513495
206,710.3657164485245
207,710.3718800259704
208,710.3785971277415
209,710.3858066892966
210,710.3934475059099
211,710.40145860602
212,710.4097796288646
213,710.4183512054367
214,710.4271153413742
215,710.4360157999649
216,710.4449984827821
217,710.4540118043248
218,710.4630070554898
219,710.4719387491641
220,710.4807649403102
221,710.4894475133367
222,710.4979524316064
223,710.5062499471134
224,710.5143147713532
225,710.5221262099526
226,710.5296682631923
227,710.5369296926833
228,710.5439040524028
229,710.5505896811769
230,710.5569896536908
231,710.5631116876012
232,710.5689680048165
233,710.5745751453703
234,710.5799537324199
235,710.5851281866761
236,710.5901263884846
237,710.5949792866749
238,710.5997204555147
239,710.6043856040119
240,710.6090120445288
241,710.6136381297601
242,710.6183026684892
243,710.6230443310809
244,710.6279010555012
245,710.6329094640489
246,710.6381043002672
247,710.6435178948086
248,710.6491796686051
249,710.6551156816822
250,710.6613482361593
251,710.6678955417685
252,710.6747714509467
253,710.6819852679993
254,710.6895416333849
255,710.6974404806061
256,710.7056770602846
257,710.7142420241124
258,710.7231215604473
259,710.7322975732827
260,710.7417478971576
261,710.7514465419515
262,710.7613639626957
263,710.771467350198
264,710.7817209387229
265,710.7920863274649
266,710.8025228131175
267,710.8129877313471
268,710.8234368053519
269,710.8338244999763
270,710.8441043804273
271,710.8542294757342
272,710.864152648241
273,710.8738269709263
274,710.8832061141536
275,710.8922447429011
276,710.900898924529
277,710.9091265454491
278,710.9168877329889
279,710.924145277006
280,710.9308650446056
281,710.9370163803266
282,710.9425724834367
283,710.9475107540923
284,710.9518131013261
285,710.9554662075194
286,710.9584617452149
287,710.9607965427023
288,710.9624726955398
289,710.9634976225391
290,710.9638840660562
291,710.9636500367984
292,710.9628187030239
293,710.9614182239708
294,710.9594815282595
295,710.9570460396047
296,710.9541533537576
297,710.9508488717937
298,710.9471813956574
299,710.9432026922215
300,710.9389670318272
301,710.9345307065362
302,710.9299515327216
303,710.9252883425078
304,710.92060046881
305,710.9159472291673
306,710.9113874140951
307,710.9069787861878
308,710.9027775965268
309,710.8988381249864
310,710.8952122504753
311,710.891949055885
312,710.8890944709478
313,710.8866909548345
314,710.8847772191493
315,710.883387991011
316,710.8825538154348
317,710.8823008964528
318,710.882650976945
319,710.8836212575543
320,710.8852243553524
321,710.8874683033829
322,710.8903565924302
323,710.8938882555381
324,710.8980579938565
325,710.9028563403664
326,710.9082698569543
327,710.9142813602796
328,710.9208701723632
329,710.9280123924293
330,710.9356811870284
331,710.9438470955586
332,710.9524783479065
333,710.9615411905127
334,710.9710002172753
335,710.9808187023982
336,710.9909589332948
337,711.0013825427235
338,711.0120508400994
339,711.022925142001
340,711.0339671010261
341,711.0451390305278
342,711.056404220971
343,711.0677272424487
344,711.0790742277445
345,711.0904131310178
346,711.1017139581404
347,711.1129489655201
348,711.1240928247479
349,711.1351227505211
350,711.146018589247
351,711.1567628660899
352,711.1673407892697
353,711.1777402117651
354,711.1879515517658
355,711.1979676742751
356,711.2077837374544
357,711.2173970085107
358,711.2268066549589
359,711.2360135180427
360,711.2450198760523
361,711.2538292057736
362,711.2624459497919
363,711.2708752958378
364,711.279122972221
365,711.2871950613097
366,711.2950978315973
367,711.3028375883232
368,711.3104205425685
369,711.317852698841
370,711.3251397614324
371,711.3322870605502
372,711.3392995002515
373,711.3461815308492
374,711.3529371482549
375,711.3595699219509
376,711.3660830524186
377,711.3724794578411
378,711.3787618884387
379,711.3849330649143
380,711.3909958354906
381,711.3969533443695
382,711.4028092039176
383,711.4085676640766
384,711.4142337748428
385,711.4198135394206
386,711.4253140555909
387,711.4307436413133
388,711.4361119389204
389,711.4414299915509
390,711.4467102859475
391,711.4519667570856
392,711.4572147517788
393,711.4624709501628
394,711.467753245923
395,711.4730805884878
396,711.4784727930194
397,711.4839503261597
398,711.4895340763595
399,711.4952451170417
400,711.5011044693697
401,711.5071328694188
402,711.513350542141
403,711.5197769819854
404,711.526430738314
405,711.5333292035357
406,711.5404884028285
407,711.5479227854916
408,711.5556450187576
409,711.5636657853146
410,711.57199358617
411,711.5806345512416
412,711.5895922611589
413,711.5988675847526
414,711.608458537365
415,711.6183601657293
416,711.6285644658083
417,711.63906034005
418,711.6498335992583
419,711.6608670116971
420,711.6721403990883
421,711.6836307768607
422,711.6953125348268
423,711.707157654113
424,711.7191359559635
425,711.7312153775681
426,711.7433622695845
427,711.7555417101564
428,711.7677178309643
429,711.7798541516873
430,711.7919139198195
431,711.8038604530742
432,711.8156574817798
433,711.8272694888881
434,711.8386620455126
435,711.8498021400234
436,711.8606584982068
437,711.8712018906965
438,711.8814054223474
439,711.89124479744
440,711.9006985552159
441,711.9097482721635
442,711.9183787299327
443,711.9265780499277
444,711.9343377970647
445,711.941653055791
446,711.9485224814114
447,711.9549483294101
448,711.9609364650985
449,711.966496355386
450,711.9716410432632
451,711.9763871035221
452,711.9807545759064
453,711.9847668702785
454,711.9884506380665
455,711.9918356050271
456,711.9949543617909
457,711.9978421103398
458,712.0005363660159
459,712.0030766154799
460,712.0055039313028
461,712.0078605441649
462,712.0101893745309
463,712.0125335271399
464,712.0149357531826
465,712.0174378863118
466,712.0200802599832
467,712.0229011154091
468,712.0259360114179
469,712.0292172491414
470,712.0327733253542
471,712.0366284284743
472,712.0408019906171
473,712.0453083073232
474,712.0501562335294
475,712.0553489606691
476,712.0608838766094
477,712.0667525082066
478,712.0729405454526
479,712.0794279458775
480,712.0861891175972
481,712.0931931786789
482,712.100404288913
483,712.1077820478597
484,712.1152819509213
485,712.1228558935431
486,712.1304527122977
487,712.138018750662
488,712.1454984375156
489,712.1528348680853
490,712.1599703793863
491,712.1668471138059
492,712.173407564882
493,712.1795950991939
494,712.1853544485607
495,712.1906321678632
496,712.1953770553072
497,712.1995405330115
498,712.2030769863029
499,712.2059440607503
500,712.2081029172
501,712.2095184464085
502,712.2101594457152
503,712.2099987605136
504,712.2090133930388
505,712.2071845799906
506,712.2044978390743
507,712.200942983757
508,712.1965141062046
509,712.1912095302237
510,712.1850317377823
511,712.17798727312
512,712.170086627602
513,712.1613441076731
514,712.1517776885681
515,712.141408857337
516,712.1302624489211
517,712.118366477821
518,712.1057519657917
519,712.0924527640312
520,712.07850536729
521,712.0639487172301
522,712.0488239926395
523,712.0331743843531
524,712.0170448530038
525,712.0004818680886
526,711.9835331272417
527,711.9662472550996
528,711.9486734817965
529,711.9308613019607
530,711.9128601161436
531,711.894718858038
532,711.876485612775
533,711.8582072339193
534,711.8399289688126
535,711.8216941026683
536,711.8035436308508
537,711.7855159665042
538,711.7676466879101
539,711.7499683272903
540,711.7325102004659
541,711.7152982747102
542,711.6983550702993
543,711.6816995900319
544,711.6653472707596
545,711.6493099517782
546,711.6335958565832
547,711.6182095865069
548,711.6031521265724
549,711.5884208651638
550,711.5740096296702
551,711.5599087399607
552,711.5461050806371
553,711.5325821922337
554,711.5193203814491
555,711.5062968509015
556,711.4934858493851
557,711.4808588438515
558,711.4683847143049
559,711.4560299723993
560,711.4437590034297
561,711.4315343294543
562,711.4193168891329
563,711.4070663287554
564,711.39474129929
565,711.3822997556158
566,711.3696992557939
567,711.3568972599534
568,711.3438514296292
569,711.3305199286801
570,711.3168617260585
571,711.302836899017
572,711.2884069335296
573,711.2735350176529
574,711.2581863237924
575,711.2423282772237
576,711.2259308099943
577,711.2089666006351
578,711.1914113005435
579,711.1732437475758
580,711.1544461665561
581,711.1350043552347
582,711.1149078529845
583,711.0941500885372
584,711.0727285026549
585,711.0506446419918
586,711.0279042214966
587,711.0045171541317
588,710.9804975478055
589,710.9558636698376
590,710.9306378792126
591,710.9048465269838
592,710.8785198259543
593,710.8516916919243
594,710.8243995595611
595,710.796684175955
596,710.7685893746902
597,710.7401618332354
598,710.7114508162006
599,710.6825079058165
600,710.6533867189479
601,710.6241426079674
602,710.5948323418049
603,710.5655137637973
604,710.5362454245083
605,710.507086190209
606,710.4780948309036
607,710.4493295952401
608,710.4208477827475
609,710.3927053258298
610,710.3649563944292
611,710.3376530354841
612,710.3108448577336
613,710.2845787704358
614,710.2588987822797
615,710.233845864202
616,710.209457877029
617,710.1857695622341
618,710.1628125920887
619,710.1406156743285
620,710.1192047057519
621,710.0986029681793
622,710.0788313587698
623,710.0599086455562
624,710.0418517389209
625,710.0246759705224
626,710.0083953725996
627,709.9930229523743
628,709.9785709578927
629,709.9650511321931
630,709.9524749518572
631,709.9408538444279
632,709.9301993781155
633,709.9205234175917
634,709.911838241695
635,709.9041566219413
636,709.897491864009
637,709.891857817072
638,709.8872688573822
639,709.8837398525839
640,709.8812861120759
641,709.8799233269375
642,709.879667500995
643,709.880534872819
644,709.8825418271963
645,709.8857047942437
646,709.8900401347174
647,709.8955640108727
648,709.9022922431601
649,709.9102401539316
650,709.9194224000356
651,709.9298527965805
652,709.9415441340747
653,709.9545079906416
654,709.968754540365
655,709.9842923585397
656,710.0011282248946
657,710.0192669264108
658,710.0387110616053
659,710.0594608480003
660,710.081513934405
661,710.1048652197984
662,710.129506680613
663,710.1554272077852
664,710.1826124540892
665,710.2110446911386
666,710.240702674277
667,710.2715615130322
668,710.3035925455532
669,710.3367632173994
670,710.3710369675258
671,710.4063731266874
672,710.4427268352855
673,710.4800489886924
674,710.5182862185134
675,710.5573809184076
676,710.5972713226643
677,710.6378916438528
678,710.6791722724363
679,710.721040037511
680,710.7634185252937
681,710.8062284509953
682,710.8493880793785
683,710.8928136886148
684,710.9364200710405
685,710.9801210636372
686,711.0238301003528
687,711.0674607770949
688,711.1109274186625
689,711.1541456364843
690,711.1970328675687
691,711.2395088877576
692,711.2814962947477
693,711.3229209578158
694,711.3637124319915
695,711.4038043348843
696,711.4431346844298
697,711.4816461956668
698,711.5192865345763
699,711.5560085271422
700,711.5917703219974
701,711.6265355051473
702,711.6602731654815
703,711.6929579104713
704,711.7245698327292
705,711.755094429319
706,711.78452247608
707,711.8128498589767
708,711.8400773644395
709,711.8662104310887
710,711.8912588656005
711,711.9152365255347
712,711.9381609718771
713,711.960053093945
714,711.9809367092494
715,712.0008381414237
716,712.0197857808893
717,712.0378096351776
718,712.0549408778076
719,712.0712114055225
720,712.0866534134195
721,712.1012989964322
722,712.1151797841859
723,712.1283266145131
724,712.140769248894
725,712.1525361310893
726,712.1636541887016
727,712.1741486765409
728,712.1840430603963
729,712.1933589399947
730,712.2021160104209
731,712.2103320619268
732,712.2180230184637
733,712.2252030148304
734,712.2318845108239
735,712.2380784388607
736,712.2437943801662
737,712.2490407639834
738,712.2538250838103
739,712.2581541241366
740,712.2620341909472
741,712.2654713396408
742,712.2684715947247
743,712.2710411564025
744,712.2731865900322
745,712.2749149954727
746,712.2762341542889
747,712.2771526532908
748,712.2776799830422
749,712.2778266102792
750,712.2776040239673
751,712.2770247556864
752,712.276102375549
753,712.27485146443
754,712.2732875621947
755,712.2714270909726
756,712.2692872533531
757,712.2668859074737
758,712.2642414229381
759,712.2613725221635
760,712.2582981110231
761,712.255037101488
762,712.25160822826
763,712.2480298611399
764,712.2443198144134
765,712.2404951535143
766,712.2365719980393
767,712.2325653194742
768,712.2284887322008
769,712.2243542774288
770,712.2201722010772
771,712.2159507277886
772,712.2116958343338
773,712.2074110270732
774,712.2030971297601
775,712.1987520889571
776,712.1943708039588
777,712.189944986477
778,712.1854630533176
779,712.1809100536353
780,712.176267631337
781,712.1715140225826
782,712.1666240878889
783,712.1615693780697
784,712.1563182331439
785,712.1508359129509
786,712.1450847571745
787,712.1390243713017
788,712.132611834808
789,712.1258019288356
790,712.1185473818878
791,712.1107991326503
792,712.1025066090972
793,712.0936180232067
794,712.0840806811553
795,712.0738413094408
796,712.0628463975519
797,712.0510425573452
798,712.038376898354
799,712.0247974171891
800,712.0102533982675
801,711.9946958225115
802,711.97807778062
803,711.9603548882022
804,711.9414857014183
805,711.9214321334656
806,711.9001598736927
807,711.8776388115133
808,711.8538434660655
809,711.8287534199669
810,711.8023537526155
811,711.7746354662921
812,711.7455958970207
813,711.7152391014473
814,711.6835762107653
815,711.6506257428068
816,711.6164138633591
817,711.5809745874066
818,711.5443499110454
819,711.5065898659963
820,711.4677524908902
821,711.427903716326
822,711.3871171636687
823,711.3454738601517
824,711.3030618743938
825,711.2599758769711
826,711.2163166309937
827,711.1721904184463
828,711.1277084093202
829,711.0829859815349
830,711.0381419996727
831,710.9932980599078
832,710.948577708332
833,710.904105640835
834,710.8600068942383
835,710.8164060393887
836,710.7734263867593
837,710.7311892137423
838,710.6898130205475
839,710.6494128190003
840,710.6100994563849
841,710.5719789754136
842,710.5351520114345
843,710.4997132290027
844,710.465750801665
845,710.4333459407015
846,710.4025724799725
847,710.3734965244021
848,710.3461761686011
849,710.3206612897405
850,710.2969934159494
851,710.2752056693645
852,710.2553227818463
853,710.2373611806546
854,710.2213291402957
855,710.207226995145
856,710.1950474055851
857,710.1847756686593
858,710.1763900631244
859,710.1698622189402
860,710.1651575030475
861,710.1622354164434
862,710.1610500009796
863,710.1615502565785
864,710.1636805697798
865,710.1673811527237
866,710.1725884888153
867,710.179235778554
868,710.1872533773663
869,710.1965692173129
870,710.2071092059871
871,710.2187975978029
872,710.2315573342502
873,710.2453103502295
874,710.2599778437302
875,710.275480506618
876,710.2917387154216
877,710.3086726826776
878,710.3262025717389
879,710.3442485809167
880,710.3627310054775
881,710.3815702874795
882,710.4006870636896
883,710.4200022212574
884,710.4394369693205
885,710.4589129320937
886,710.4783522658394
887,710.4976777996716
888,710.5168131991762
889,710.5356831520207
890,710.5542135751633
891,710.5723318432489
892,710.5899670371633
893,710.6070502108557
894,710.6235146737736
895,710.6392962856257
896,710.6543337596013
897,710.6685689698102
898,710.6819472587799
899,710.6944177411985
900,710.7059336002892
901,710.7164523729776
902,710.7259362196762
903,710.7343521746243
904,710.7416723734178
905,710.7478742550478
906,710.7529407358866
907,710.75686035263
908,710.759627370765
909,710.7612418551319
910,710.7617096996535
911,710.7610426140801
912,710.7592580665176
913,710.7563791815701
914,710.7524345951211
915,710.7474582678299
916,710.741489259789
917,710.7345714680944
