acceleration,velocity,displacement
-0.010744791851840596,0.0,0.0
-0.010160305039280402,-5.22627422278025e-06,-1.3065685556950623e-09
-0.009576735935456347,-1.0160534466464437e-05,-5.153270728006235e-09
-0.008994997723014982,-1.480346788108227e-05,-1.1394271314892912e-08
-0.008415994626138965,-1.9156215968370758e-05,-1.9884192277256167e-08
-0.007840617667654719,-2.322036904181918e-05,-3.047833852980365e-08
-0.007269740715717847,-2.699795863766232e-05,-4.303292044967402e-08
-0.006704216921593431,-3.049144804699014e-05,-5.7405272120837135e-08
-0.006144875638531643,-3.370372118702141e-05,-7.345406442934002e-08
-0.005592519881756577,-3.663807006709347e-05,-9.103951224286874e-08
-0.005047924347399887,-3.9298181124382584e-05,-1.1002357504073776e-07
-0.0045118339662768465,-4.168812070280177e-05,-1.3027015049753384e-07
-0.003984962936449863,-4.3812319928483445e-05,-1.5164526065535516e-07
-0.003467994160035668,-4.567555920260483e-05,-1.7401723043812724e-07
-0.002961579003986227,-4.72829524936103e-05,-1.97256858362181e-07
-0.002466337309518427,-4.863993157198647e-05,-2.212375793785802e-07
-0.001982857586190396,-4.9752230295913674e-05,-2.458356198455552e-07
-0.0015116973366050654,-5.0625869026612536e-05,-2.7093014467618677e-07
-0.0010533834628377323,-5.1267139226473235e-05,-2.964033967394582e-07
-0.0006084127085581735,-5.168258826932221e-05,-3.2214082861340706e-07
-0.00017725209422767685,-5.187900447001867e-05,-3.480312267982423e-07
0.00023966069360507436,-5.186340232017432e-05,-3.7396682849579055e-07
0.0006419169912938037,-5.16430078989496e-05,-3.9984343105057154e-07
0.001029136942832524,-5.122524441541802e-05,-4.255604941291634e-07
0.0014009693765126003,-5.0617717835581734e-05,-4.5102123469191337e-07
0.0017570917532440484,-4.982820255314257e-05,-4.761327147890944e-07
0.0020972101595548966,-4.886462707494283e-05,-5.008059221961158e-07
0.0024210593131762997,-4.773505970676003e-05,-5.249558438915415e-07
0.0027284025387220604,-4.644769424378544e-05,-5.485015323791779e-07
0.003019031663438859,-4.5010835693245214e-05,-5.713661648634356e-07
0.0032927667906983552,-4.343288607971091e-05,-5.934770953066746e-07
0.0035494559315421325,-4.1722330399150786e-05,-6.1476589942639e-07
0.0037889745007940326,-3.9887722791066744e-05,-6.351684127239444e-07
0.004011224705770935,-3.79376729894255e-05,-6.546247616690675e-07
0.004216134871816738,-3.588083309502858e-05,-6.73079388190181e-07
0.004403658758530668,-3.3725884687441726e-05,-6.904810676357985e-07
0.00457377491840711,-3.148152626820728e-05,-7.067829203747108e-07
0.004726486135048342,-2.915646100484342e-05,-7.219424171929734e-07
0.004861818958493843,-2.6759384731457873e-05,-7.359213786270487e-07
0.004979823340386012,-2.429897415673791e-05,-7.486859683490977e-07
0.005080572363278855,-2.178387523082169e-05,-7.602066806959876e-07
0.0051641620489123125,-1.92226916277739e-05,-7.704583224106366e-07
0.005230711214688508,-1.6623973311873694e-05,-7.794199886455485e-07
0.005280361332209262,-1.3996205175149251e-05,-7.870750332673042e-07
0.005313276338370067,-1.1347795757504419e-05,-7.934110335004676e-07
0.0053296423619033015,-8.687066082436076e-06,-7.984197489604528e-07
0.005329667348541206,-6.0222386548249495e-06,-8.020970751447681e-07
0.005313580586144296,-3.361426671153574e-06,-8.044429914762628e-07
0.005281632145562688,-7.126234882268276e-07,-8.054615040161079e-07
0.005234092265780272,1.9163076146089126e-06,-8.051605829845124e-07
0.005171250719977125,4.517643361048262e-06,-8.035520952405981e-07
0.005093416198499799,7.083810090667493e-06,-8.006517318776692e-07
0.005000915737806873,9.607393074744162e-06,-7.964789310863163e-07
0.004894094218038152,1.2081145563705419e-05,-7.910567964267039e-07
0.0047733139493199,1.4497997605544932e-05,-7.844120106343913e-07
0.004638954368257056,1.6851064684939173e-05,-7.765747450617703e-07
0.00449141187027716,1.9133656244572726e-05,-7.675785648293923e-07
0.00433109980708726,2.1339284163913832e-05,-7.574603297272707e-07
0.00415844867581229,2.346167128463872e-05,-7.462600908651326e-07
0.003973906513877497,2.5494760082061168e-05,-7.340209830234576e-07
0.0037779394949735163,2.743272158427392e-05,-7.207891126068738e-07
0.003571032704969629,2.9269964634259708e-05,-7.066134410522404e-07
0.003353691067593041,3.100114557740038e-05,-6.915456634993254e-07
0.0031264403848025833,3.2621178440499286e-05,-6.756400824948505e-07
0.002889828451740371,3.412524564963502e-05,-6.589534764723169e-07
0.0026444262009746654,3.550880931281378e-05,-6.415449627317047e-07
0.0023908288269867102,3.676762306980412e-05,-6.234758546360502e-07
0.0021296568383661167,3.7897744486142324e-05,-6.048095127470636e-07
0.0018615569809327945,3.8895547940967054e-05,-5.856111896402863e-07
0.0015872029729250543,3.9757737929431515e-05,-5.659478681726867e-07
0.001307295999253737,4.048136267247621e-05,-5.458880930222098e-07
0.001022564926502038,4.106382790391516e-05,-5.25501795378112e-07
0.0007337662160939409,4.1502910689564155e-05,-5.048601107297421e-07
0.0004416835204396859,4.179677312369756e-05,-4.840351897764267e-07
0.0001471269437605412,4.1943975739747614e-05,-4.631000025605654e-07
-0.00014906805893000465,4.194349046095525e-05,-4.421281360103897e-07
-0.0004460421775863503,4.179471290182616e-05,-4.211935851696944e-07
-0.0007429141725085065,4.149747381430245e-05,-4.0037053849066223e-07
-0.0010387832585359842,4.1052049456541326e-05,-3.797331576729513e-07
-0.001332731957017123,4.045917065265305e-05,-3.593553526456527e-07
-0.0016238293902283995,3.972003031584167e-05,-3.39310552403529e-07
-0.001911134958739013,3.8836289228599816e-05,-3.1967147251741865e-07
-0.002193702321911198,3.781007990843726e-05,-3.005098802331594e-07
-0.002470583595106688,3.664400842918279e-05,-2.8189635814875436e-07
-0.0027408336748305064,3.534115411169849e-05,-2.6390006751353406e-07
-0.0030035146013312327,3.3905067042658054e-05,-2.4658851222494494e-07
-0.003257699870517565,3.233976342469585e-05,-2.3002730460810646e-07
-0.003502478614088703,3.0649718803544285e-05,-2.1427993405104642e-07
-0.003736959572533672,2.883985925688869e-05,-1.9940753953593818e-07
-0.003960274787202807,2.691555066695457e-05,-1.8546868705497737e-07
-0.004171582940348808,2.4882586235066665e-05,-1.7251915282947206e-07
-0.004370072282351137,2.274717242939168e-05,-1.6061171316335748e-07
-0.004554963099665249,2.0515913583887583e-05,-1.4979594166003766e-07
-0.004725509687548337,1.8195795387084186e-05,-1.401180144172947e-07
-0.00488100179884775,1.5794167515485165e-05,-1.3162052369165238e-07
-0.005020765552936334,1.3318725677539144e-05,-1.243423003933963e-07
-0.005144163813581492,1.0777493335909688e-05,-1.1831824564003409e-07
-0.005250596077519445,8.178803363134455e-06,-1.1357917146527305e-07
-0.005339497945180809,5.531279857459391e-06,-1.1015165066012459e-07
-0.005410340260249385,2.843820306101842e-06,-1.0805787561923427e-07
-0.005462628004944177,1.2557823980345147e-07,-1.0731552598275795e-07
-0.0054958990330935984,-2.6140535197059924e-06,-1.0793764480273359e-07
-0.005509722725070825,-5.365458959247098e-06,-1.0993252292247187e-07
-0.005503698660981264,-8.11881430576012e-06,-1.1330359123872367e-07
-0.00547745542296909,-1.0864102826747708e-05,-1.1804932052185063e-07
-0.005430649642340822,-1.3591129093075186e-05,-1.2416312850180637e-07
-0.005362965394613885,-1.6289532852313864e-05,-1.3163329398815361e-07
-0.005274114013682536,-1.894880270438797e-05,-1.4044287787732908e-07
-0.005163834349492936,-2.155828979518184e-05,-1.5056965100222154e-07
-0.005031893443663815,-2.4107221743471026e-05,-1.6198602888688476e-07
-0.004878087558259447,-2.6584716993951842e-05,-1.7465901357124047e-07
-0.004702243470988834,-2.8979799751263913e-05,-1.885501427575444e-07
-0.004504219944113642,-3.128141560503953e-05,-2.0361544659662027e-07
-0.004283909279480659,-3.347844791093811e-05,-2.1980541247561468e-07
-0.004041238883052369,-3.5559734951571366e-05,-2.3706495819124206e-07
-0.003776172775600606,-3.751408786623461e-05,-2.5533341389569355e-07
-0.003488713001553847,-3.9330309310523224e-05,-2.74544513189883e-07
-0.00317890090593572,-4.0997212787395615e-05,-2.9462639371436274e-07
-0.0028468182686379093,-4.250364258103902e-05,-3.155016075564714e-07
-0.0024925883023680837,-4.383849422379052e-05,-3.370871417576788e-07
-0.002116376531376012,-4.499073543222654e-05,-3.5929444917168307e-07
-0.00171839156992844,-4.5949427457552654e-05,-3.8202948989412786e-07
-0.0012988858127464292,-4.670374680322137e-05,-4.051927834593214e-07
-0.0008581560371514075,-4.724300726569583e-05,-4.286794719765507e-07
-0.00039654390295430753,-4.755668225072226e-05,-4.523793943556552e-07
8.556367411438101e-05,-4.763442730793225e-05,-4.761771717453188e-07
0.0005877343033592119,-4.746610281356385e-05,-4.999523042756929e-07
0.0011094900784131636,-4.7041796718120757e-05,-5.235792791586141e-07
0.0016503077273643221,-4.6351847266676385e-05,-5.469276901548133e-07
0.0022096189526168,-4.5386865596681106e-05,-5.698623683706527e-07
0.0027868109526627475,-4.413775812036122e-05,-5.922435242999133e-07
0.003381227123474662,-4.259574860132687e-05,-6.139269009803353e-07
0.003992167950387461,-4.075239983286134e-05,-6.347639380888823e-07
0.0046188921124885995,-3.859963481714232e-05,-6.546019467513833e-07
0.00526061782584097,-3.612975733255993e-05,-6.732842947888088e-07
0.005916524451663756,-3.3335471763183747e-05,-6.906506020627448e-07
0.006585754394344809,-3.0209902051681606e-05,-7.065369455164611e-07
0.007267415311555146,-2.6746609625206616e-05,-7.207760734356831e-07
0.007960582652777612,-2.2939610134123426e-05,-7.331976283755156e-07
0.008664302531646611,-1.878338883801737e-05,-7.436283781185508e-07
0.00937759491949609,-1.4272914475231696e-05,-7.518924539468631e-07
0.010099457122347093,-9.4036514647709e-06,-7.578115954318638e-07
0.010828867479145961,-4.171570314397637e-06,-7.612054008766559e-07
0.011564789206465679,1.4268438570052734e-06,-7.618915824910041e-07
0.012306174317109482,7.394584737899064e-06,-7.59686225342278e-07
0.013051967548107118,1.3734120204203214e-05,-7.544040491067524e-07
0.013801110236413705,2.0447389650333418e-05,-7.458586716431183e-07
0.014552544073607778,2.7535803227838788e-05,-7.338628734235752e-07
0.01530521465710327,3.500024291051655e-05,-7.182288618889864e-07
0.01605807474355715,4.284106526068165e-05,-6.987685348461868e-07
0.016810087110862862,5.105810572428665e-05,-6.752937420999448e-07
0.017560226952261455,5.965068424006773e-05,-6.476165446088562e-07
0.018307483756781772,6.861761191732853e-05,-6.155494705695071e-07
0.01905086266966775,7.795719852394091e-05,-5.789057679591898e-07
0.019789385371134456,8.766726053414146e-05,-5.374996531946692e-07
0.020522090554243217,9.774512951548588e-05,-4.911465556822623e-07
0.021248034111716427,0.00010818766068197579,-4.396633581328969e-07
0.021966289147435633,0.0001189912414967638,-3.8286863258821197e-07
0.02267594590966252,0.00013015180026103835,-3.2058287214876145e-07
0.02337611170722652,0.0001416648146652606,-2.526287184171867e-07
0.02406591083085569,0.00015352532029978114,-1.7883118467592628e-07
0.02474448447628232,0.00016572791912656564,-9.901787481933959e-08
0.025410990666112597,0.00017826678791216436,-1.3019198059657082e-08
0.02606460419215655,0.00019113568662673165,7.933142057506693e-08
0.026704516630692295,0.00020432796683244385,1.7819733393986083e-07
0.027329936500095152,0.00021783658011514072,2.8373847067675696e-07
0.02794008962830338,0.00023165408664724036,3.961111373673522e-07
0.028534219784943967,0.0002457726640005522,5.154678250293004e-07
0.02911158961631474,0.0002601841163508669,6.419570201171551e-07
0.029671481901186934,0.0002748798842302423,7.757230202624324e-07
0.03021320112211977,0.000289851054986069,9.169057550665103e-07
0.030736075326258657,0.0003050883740981636,1.0656406123375684e-06
0.031239458238824947,0.0003205822574894345,1.222058270234468e-06
0.03172273159296544,0.0003363228049473821,1.386284535843672e-06
0.03218530764480585,0.0003522998147568249,1.5584401907697237e-06
0.032626631842819144,0.00036850279962873117,1.7386408443661127e-06
0.033046185613788415,0.00038492100399288305,1.9269967952715163e-06
0.03344348921714684,0.0004015434227006169,2.123612901944891e-06
0.033818104606150035,0.0004183588211564411,2.3285884629091555e-06
0.03416963821681542,0.0004353557568621825,2.5420171074138115e-06
0.03449774358880493,0.0004525226023135876,2.763986697207754e-06
0.034802123716906504,0.00046984756914001546,2.9945792400711548e-06
0.03508253304152443,0.0004873187333296232,3.2338708156885643e-06
0.03533877900351366,0.0005049240613408827,3.4819315143561907e-06
0.03557072310159966,0.000522651436867161,3.7388253889082017e-06
0.035778281397477754,0.0005404886879919303,4.004610420122975e-06
0.03596142442386542,0.0005584236144472661,4.2793384957327735e-06
0.036120176473573386,0.0005764440146716259,4.563055403012497e-06
0.03625461428304794,0.0005945377123607812,4.855800834770599e-06
0.03636486516379941,0.0006126925822224931,5.157608408416417e-06
0.036451104671155726,0.0006308965746812319,5.468505697642348e-06
0.03651355392370675,0.0006491377393299476,5.788514276145144e-06
0.03655247669433911,0.0006674042469844591,6.117649772723745e-06
0.03656817638717967,0.0006856844102548388,6.455921937033569e-06
0.03656099299883986,0.0007039667026013436,6.803334715247615e-06
0.03653130014040636,0.0007222397758861552,7.15988633486949e-06
0.03647950217438712,0.0007404924764648536,7.525569397957242e-06
0.036406031506016255,0.0007587138598849544,7.900370982044694e-06
0.03631134606053143,0.0007768932042765914,8.28427274808508e-06
0.036195926969049004,0.0007950200225339865,8.677251054787726e-06
0.03606027647190382,0.0008130840733942248,9.079277078769778e-06
0.03590491603597373,0.0008310753715211941,9.490316939998633e-06
0.03573038467777682,0.0008489841966996317,9.91033183205384e-06
0.03553723748529478,0.0008668011022403997,1.0339278156788847e-05
0.03532604433528544,0.0008845169226955448,1.0777107663022834e-05
0.03509738881013396,0.0009021227809818996,1.1223767588942195e-05
0.03485186732812169,0.0009196100950164635,1.1679200807941785e-05
0.034590088505886296,0.0009369705839749655,1.2143345977689642e-05
0.03431267276187724,0.0009541962742919064,1.261613769225636e-05
0.03402025214135549,0.0009712795055177146,1.3097506637208765e-05
0.03371347030351129,0.0009882129361289313,1.3587379747620426e-05
0.03339298257366031,0.0010049895493482242,1.4085680368989715e-05
0.03305945594184949,0.0010216026589771018,1.4592328421071046e-05
0.03271356888865652,0.0010380459151847284,1.5107240564611505e-05
0.03235601093466723,0.0010543133101405594,1.5630330370942826e-05
0.031987481832803574,0.001070399183332427,1.6161508494311074e-05
0.03160869034705526,0.0010862982263773917,1.6700682846738527e-05
0.031220352587273112,0.0011020054871109738,1.7247758775110617e-05
0.03082318989836498,0.0011175163727323834,1.7802639240071456e-05
0.030417926331082746,0.0011328266517897454,1.836522499620199e-05
0.0300052857462901,0.0011479324548090886,1.89354147728517e-05
0.029585988622634785,0.0011628302734013197,1.95131054549043e-05
0.029160748649156885,0.0011775169577192676,2.0098192262684448e-05
0.028730269189403825,0.0011919897121789077,2.0690568930158993e-05
0.028295239700827396,0.0012062460894014656,2.1290127880554085e-05
0.02785633218271362,0.001220283982372351,2.189676039849754e-05
0.027414197712845794,0.0012341016148462408,2.251035679780219e-05
0.026969463124620775,0.0012476975300556073,2.313080658402765e-05
0.026522727874826072,0.001261070577805469,2.375799861099292e-05
0.02607456115072013,0.0012742199000618556,2.439182123045975e-05
0.02562549925518663,0.0012871449151633323,2.5032162434266047e-05
0.025176043289510626,0.0012998453007995066,2.5678909988256755e-05
0.024726657133401733,0.0013123209759052347,2.6331951557432942e-05
0.024277765711411884,0.0013245720816164382,2.699117482181336e-05
0.023829753537352994,0.0013365989614286295,2.7656467582574626e-05
0.023382963537519886,0.0013484021406973477,2.832771785810612e-05
0.02293769616203126,0.0013599823056222354,2.9004813969686018e-05
0.0224942088002715,0.001371340281862811,2.968764461655728e-05
0.022052715523781515,0.0013824770129438244,3.037609894025894e-05
0.021613387188033857,0.0013933935386217782,3.107006657815034e-05
0.02117635192896621,0.0014040909734010282,3.176943770615604e-05
0.02074169608544617,0.0014145704854046312,3.247410307085746e-05
0.0203094655622844,0.0014248332758165637,3.3183954011162756e-05
0.019879667623415597,0.0014348805591129887,3.3898882469895145e-05
0.019452273080371077,0.0014447135442889354,3.461878099574563e-05
0.01902721882406049,0.0014543334172650432,3.534354273613412e-05
0.018604410634831422,0.0014637413246297662,3.607306142160782e-05
0.018183726187417842,0.0014729383588353284,3.6807231342474096e-05
0.017765018145344442,0.001481925544918519,3.754594731841256e-05
0.017348117229077527,0.0014907038287621244,3.828910466183272e-05
0.01693283515509963,0.0014992740668581686,3.903659913573779e-05
0.016518967372658396,0.0015076370174901081,3.978832690682486e-05
0.01610629555390088,0.001515793333221748,4.054418449450282e-05
0.015694589812338643,0.001523743554563308,4.1304068716449085e-05
0.015283610638095664,0.0015314881046759165,4.206787663125889e-05
0.014873110554081529,0.0015390272849739608,4.283550547867136e-05
0.014462835518767514,0.001546361271492173,4.36068526177879e-05
0.014052526127676157,0.0015534901119037838,4.4381815463636884e-05
0.013641918693334008,0.0015604137231090363,4.5160291422390086e-05
0.013230746305526791,0.0015671318893587514,4.5942177825507034e-05
0.01281873998151085,0.0015736442609305108,4.672737186307935e-05
0.01240563000268016,0.0015799503534265585,4.751577051666862e-05
0.011991147504000418,0.0015860495478032287,4.8307270491976064e-05
0.011575026350385152,0.0015919410912668252,4.910176815174358e-05
0.011157005316023672,0.0015976240991834275,4.989915944935614e-05
0.010736830577871004,0.001603097558156901,5.069933986369122e-05
0.010314258526281959,0.0016083603304329393,5.1502204335838684e-05
0.009889058872763873,0.0016134111597827009,5.230764720839259e-05
0.009461018005752353,0.00161824867900233,5.311556216808885e-05
0.00902994252350985,0.0016228714191346455,5.392584219262309e-05
0.008595662857480833,0.0016272778204798931,5.4738379502526725e-05
0.008158036880928697,0.0016314662454144954,5.555306551900032e-05
0.007716953377217751,0.001635434992979032,5.63697908285987e-05
0.007272335231140287,0.0016391823151311214,5.718844515562624e-05
0.006824142213760459,0.0016427064344923465,5.800891734303211e-05
0.006372373255682784,0.0016460055633597073,5.883109534249512e-05
0.0059170681397082035,0.001649077923708555,5.9654866214262185e-05
0.0054583085849464474,0.0016519217678897188,6.0480116137161754e-05
0.004996218733332539,0.0016545353997192886,6.1306730429064e-05
0.00453096508049853,0.0016569171956727464,6.213459357791201e-05
0.004062755910753205,0.0016590656259205592,6.296358928331034e-05
0.0035918402966837164,0.0016609792749724185,6.379360050853358e-05
0.0031185067089011136,0.0016626568617238147,6.462450954270764e-05
0.0026430812621960568,0.001664097258716589,6.545619807281774e-05
0.002165925614191491,0.0016652995104356858,6.62885472651058e-05
0.0016874345356054177,0.001666262850473135,6.712143785533301e-05
0.001208033178434226,0.001666986717401645,6.795475024730171e-05
0.0007281740681332977,0.0016674707692132867,6.878836461895544e-05
0.0002483338349408267,0.0016677148961890553,6.962216103530603e-05
-0.00023099031519470368,0.0016677192320689919,7.045601956737054e-05
-0.0007092843983256379,0.0016674841633906117,7.128982041623544e-05
-0.001186021723610331,0.0016670103368601277,7.212344404129812e-05
-0.0016606672287205488,0.001666298664622045,7.295677129166866e-05
-0.0021326820531821634,0.0016653503273015692,7.378968353964956e-05
-0.0026015283109653065,0.0016641667747105324,7.462206281515258e-05
-0.0030666740201491004,0.001662749724127754,7.545379193986216e-05
-0.003527598148982855,0.0016611011560854708,7.628475465991547e-05
-0.0039837957342928896,0.0016592233076146519,7.71148357758405e-05
-0.00443478301255921,0.0016571186629279388,7.794392126847615e-05
-0.004880102480271631,0.0016547899415547311,7.877189841959681e-05
