frame_number,force
0,873.5976406675042
1,873.6767955363683
2,873.758140763116
3,873.8411754472559
4,873.9254226201446
5,874.0104277992639
6,874.0957575665828
7,874.1809985062409
8,874.2657567026982
9,874.3496579406145
10,874.4323487013238
11,874.5134979641493
12,874.592799692504
13,874.6699757577472
14,874.7447789845437
15,874.8169960208548
16,874.8864498149195
17,874.9530015393112
18,875.016551784559
19,875.0770407954227
20,875.1344475319987
21,875.1887874312065
22,875.2401088619191
23,875.2884883459424
24,875.3340246616641
25,875.3768320189906
26,875.4170326430288
27,875.4547493007782
28,875.4900984424037
29,875.5231846038887
30,875.5540965169411
31,875.5829050724229
32,875.609662992348
33,875.6344058572513
34,875.6571540285966
35,875.6779149753386
36,875.6966855265446
37,875.7134536205994
38,875.7281992343791
39,875.7408943744274
40,875.7515022501151
41,875.7599759337877
42,875.7662569044753
43,875.7702739020777
44,875.7719425094417
45,875.7711657961426
46,875.7678361714557
47,875.7618383646848
48,875.7530533079777
49,875.7413627083176
50,875.7266541941982
51,875.7088269831451
52,875.6877979561278
53,875.6635078465056
54,875.6359270552721
55,875.605060522953
56,875.5709511619115
57,875.5336815220634
58,875.4933735590924
59,875.4501865379493
60,875.4043131802921
61,875.3559741684572
62,875.3054111527808
63,875.2528785465697
64,875.1986345942436
65,875.1429323627713
66,875.0860113621037
67,875.0280904435534
68,874.9693625078312
69,874.9099914186704
70,874.8501113398471
71,874.7898284463167
72,874.7292246351296
73,874.6683626039281
74,874.6072915952096
75,874.546053238252
76,874.4846871639481
77,874.4232363066004
78,874.3617519782994
79,874.3002988744987
80,874.2389601136011
81,874.1778422502065
82,874.1170800226062
83,874.0568404620296
84,873.997325897504
85,873.9387753655753
86,873.8814640637067
87,873.8257007617684
88,873.7718233514439
89,873.7201928368758
90,873.6711860894172
91,873.625187710364
92,873.5825813792621
93,873.5437410613598
94,873.5090224151792
95,873.4787547382784
96,873.4532338276227
97,873.4327161587239
98,873.4174147439838
99,873.407496879134
100,873.4030837390172
101,873.4042515279434
102,873.411033742013
103,873.4234240969981
104,873.4413797468387
105,873.4648244812917
106,873.4936516303187
107,873.5277264667064
108,873.5668880470226
109,873.6109506758748
110,873.6597054351317
111,873.7129223097182
112,873.7703532293863
113,873.8317359147946
114,873.8967980169128
115,873.9652608480814
116,874.036842027906
117,874.111256552757
118,874.1882160947051
119,874.2674266609046
120,874.3485849941488
121,874.4313742381854
122,874.5154594773013
123,874.6004838179006
124,874.6860656841923
125,874.771797937901
126,874.8572493143346
127,874.9419684781255
128,875.0254907236414
129,875.1073470383474
130,875.1870750460596
131,875.2642313336288
132,875.3384047672719
133,875.4092304634981
134,875.476404006526
135,875.5396953342178
136,875.5989615342546
137,875.6541576737247
138,875.705344765168
139,875.7526940577427
140,875.7964870394775
141,875.8371108560923
142,875.8750492659094
143,875.9108696583367
144,875.9452069260867
145,875.9787450163385
146,876.0121968539955
147,876.0462832025174
148,876.0817110274795
149,876.1191520158145
150,876.1592219473288
151,876.2024615489786
152,876.2493193538602
153,876.3001370529367
154,876.3551379080922
155,876.414418918818
156,876.4779474830062
157,876.5455631612795
158,876.6169847967626
159,876.6918227212843
160,876.769595268781
161,876.8497484836071
162,876.931677780392
163,877.0147502823912
164,877.0983265578324
165,877.1817805147308
166,877.264516373781
167,877.3459819260772
168,877.4256776182605
169,877.5031613107116
170,877.5780488350076
171,877.6500107696197
172,877.7187660990966
173,877.7840735378013
174,877.8457213050175
175,877.9035161140624
176,877.9572721157474
177,878.0068005041425
178,878.0519004401244
179,878.0923518697133
180,878.1279107115653
181,878.1583067890022
182,878.1832448146326
183,878.2024086716858
184,878.2154691040997
185,878.2220946955508
186,878.2219657304886
187,878.2147902644798
188,878.2003215458419
189,878.1783758476148
190,878.1488497634654
191,878.1117360310049
192,878.067136920316
193,878.0152741680964
194,877.9564943984807
195,877.891269018939
196,877.8201877972197
197,877.7439457896576
198,877.6633239928668
199,877.5791648692335
200,877.4923444893817
201,877.4037432428885
202,877.3142169048879
203,877.2245694983245
204,877.1355290354564
205,877.0477269168603
206,876.9616815036896
207,876.8777861548193
208,876.7963018429475
209,876.7173543324456
210,876.640935803312
211,876.5669107298563
212,876.4950257645785
213,876.4249233187112
214,876.3561584463187
215,876.2882185228922
216,876.220545064205
217,876.1525568554306
218,876.0836733855092
219,876.0133374718255
220,875.9410359459818
221,875.8663173442718
222,875.7888057273238
223,875.7082100853399
224,875.6243292422055
225,875.5370526226791
226,875.4463575324178
227,875.3523036515321
228,875.2550253346543
229,875.1547221930906
230,875.0516483949337
231,874.9461011307137
232,874.8384086857478
233,874.728918515034
234,874.617985684289
235,874.5059620893013
236,874.3931869855988
237,874.279979449802
238,874.1666333681408
239,874.0534154090035
240,873.9405662006386
241,873.8283045922146
242,873.7168344851372
243,873.6063534226613
244,873.4970620022277
245,873.3891731914784
246,873.2829207206854
247,873.1785658623239
248,873.0764020971718
249,872.9767574196594
250,872.879994320612
251,872.7865077092872
252,872.696721139382
253,872.6110817173549
254,872.5300540385848
255,872.4541134197048
256,872.383738604304
257,872.3194040888336
258,872.2615722528891
259,872.2106854802117
260,872.1671583484994
261,872.1313698131901
262,872.103655221028
263,872.0842979617722
264,872.0735205434455
265,872.0714749017332
266,872.0782319362572
267,872.0937706072363
268,872.1179672902457
269,872.1505863263469
270,872.1912727556752
271,872.239548103769
272,872.2948098637288
273,872.3563350698806
274,872.4232881820708
275,872.494733428271
276,872.5696517008254
277,872.6469619093142
278,872.7255462757363
279,872.8042785066822
280,872.8820533165173
281,872.9578156039229
282,873.0305877250939
283,873.0994936160891
284,873.1637788343751
285,873.22282585533
286,873.276164208158
287,873.323475332357
288,873.3645923907734
289,873.3994955978181
290,873.4283037933143
291,873.4512629878894
292,873.4687325052012
293,873.4811692414727
294,873.4891104929537
295,873.4931557879066
296,873.4939482367025
297,873.4921560651434
298,873.4884551012717
299,873.4835129179759
300,873.4779750942732
301,873.4724537724188
302,873.4675184985156
303,873.4636892917662
304,873.4614319018409
305,873.4611551586701
306,873.4632102087492
307,873.46789140458
308,873.4754387162902
309,873.4860416298781
310,873.4998444230148
311,873.5169524734159
312,873.5374390310357
313,873.5613518365294
314,873.5887190908526
315,873.6195544368593
316,873.6538606997833
317,873.6916321815476
318,873.7328553997238
319,873.7775083057406
320,873.8255581253928
321,873.8769579966803
322,873.9316425953259
323,873.9895230176758
324,874.0504813290369
325,874.114365289217
326,874.180983762503
327,874.2501032459293
328,874.3214459059805
329,874.394689525438
330,874.4694697544487
331,874.5453849410014
332,874.622003553556
333,874.6988738599323
334,874.7755352044626
335,874.8515300237577
336,874.9264157034323
337,874.9997755023957
338,875.0712279986591
339,875.1404347310203
340,875.2071058457724
341,875.2710036360478
342,875.3319439680768
343,875.3897957437455
344,875.44447870281
345,875.4959599825247
346,875.5442499064624
347,875.5893974439408
348,875.6314856864811
349,875.6706275985509
350,875.7069622544809
351,875.7406517273289
352,875.7718786696411
353,875.8008444163343
354,875.8277672698742
355,875.852880642977
356,875.876430950218
357,875.8986754160985
358,875.9198801027986
359,875.9403183498791
360,875.9602695374766
361,875.9800178121171
362,875.9998502812512
363,876.0200542167073
364,876.0409129616212
365,876.0627004454064
366,876.0856744362462
367,876.1100688707855
368,876.136085752043
369,876.1638871616219
370,876.1935878930644
371,876.2252491126097
372,876.2588733321435
373,876.2944008831546
374,876.3317080561849
375,876.3706071374413
376,876.4108487081852
377,876.452126682537
378,876.4940865038287
379,876.5363366299121
380,876.5784630086474
381,876.6200458348446
382,876.6606775903836
383,876.6999812527354
384,876.7376276302282
385,876.7733509881298
386,876.8069623559069
387,876.8383600586903
388,876.8675370722996
389,876.8945848290924
390,876.9196932176229
391,876.9431467699565
392,876.9653173189863
393,876.9866535841887
394,877.0076681790019
395,877.0289225429195
396,877.0510103897526
397,877.0745404033682
398,877.1001189994698
399,877.1283339300313
400,877.1597393320984
401,877.1948425847743
402,877.2340931428079
403,877.2778734307387
404,877.3264918909362
405,877.3801782942054
406,877.4390813626483
407,877.5032686298864
408,877.5727283457367
409,877.6473731616232
410,877.7270453003928
411,877.8115229033066
412,877.900527240275
413,877.9937304445352
414,878.0907633890176
415,878.1912232906658
416,878.2946806560338
417,878.4006852956949
418,878.5087713004184
419,878.6184609754441
420,878.7292676943065
421,878.8406975343065
422,878.9522495412276
423,879.0634146040616
424,879.1736731379898
425,879.282491982728
426,879.389321088332
427,879.4935906767445
428,879.5947095986284
429,879.6920655204507
430,879.7850274194526
431,879.8729507154874
432,879.9551852532977
433,880.0310862172206
434,880.1000278712412
435,880.161419803295
436,880.2147251642476
437,880.2594802056906
438,880.2953141847215
439,880.3219684572576
440,880.3393134357675
441,880.3473621084781
442,880.3462789963813
443,880.3363837260925
444,880.318148776026
445,880.2921913593067
446,880.2592597943911
447,880.2202150367393
448,880.1760082505186
449,880.1276553782222
450,880.0762096762043
451,880.022733186457
452,879.9682681093852
453,879.9138090034774
454,879.8602766793002
455,879.8084946297264
456,879.759168877886
457,879.7128721737396
458,879.6700333986305
459,879.6309327601898
460,879.595702927647
461,879.564335791539
462,879.5366941213142
463,879.5125270927945
464,879.4914885132721
465,879.473156588652
466,879.4570541844242
467,879.4426686600676
468,879.429470489862
469,879.4169300153762
470,879.404531787403
471,879.39178606901
472,879.3782372437081
473,879.3634691274921
474,879.3471074769739
475,879.3288202177017
476,879.3083159880887
477,879.2853415092129
478,879.2596781738105
479,879.231138204703
480,879.1995607382303
481,879.1648081614495
482,879.1267629539796
483,879.0853251861686
484,879.0404107178591
485,878.9919500241607
486,878.93988747587
487,878.8841808874879
488,878.8248012382206
489,878.7617325955692
490,878.6949723336306
491,878.6245317280151
492,878.5504369481438
493,878.4727303432517
494,878.3914717595774
495,878.3067395546158
496,878.2186310940456
497,878.127262781881
498,878.0327698865244
499,877.9353064048131
500,877.835044993348
501,877.7321768058082
502,877.6269110348899
503,877.5194740173114
504,877.4101078417564
505,877.2990684940189
506,877.186623689491
507,877.073050656004
508,876.9586341841945
509,876.8436652048916
510,876.7284399949275
511,876.6132599353872
512,876.4984316103588
513,876.3842669287345
514,876.2710828580751
515,876.1592003113066
516,876.048941784222
517,875.9406275374079
518,875.8345704021913
519,875.7310695191268
520,875.6304033446665
521,875.5328220945029
522,875.4385396000903
523,875.3477245187364
524,875.2604909997523
525,875.176889179797
526,875.0968961620567
527,875.0204083631965
528,874.947236193846
529,874.8771018696987
530,874.8096407613931
531,874.7444062715326
532,874.6808779562498
533,874.6184725018312
534,874.5565571071231
535,874.4944647171907
536,874.4315104339282
537,874.367008392214
538,874.3002884637359
539,874.2307122488618
540,874.1576878507605
541,874.0806829330736
542,873.9992356706797
543,873.9129634585818
544,873.8215695342005
545,873.7248478347103
546,873.6226863976532
547,873.5150694900873
548,873.4020785227495
549,873.2838917359978
550,873.1607826589561
551,873.0331174120703
552,872.9013509464609
553,872.7660222144389
554,872.627748089029
555,872.4872157156141
556,872.3451729697147
557,872.202416810954
558,872.0597794985404
559,871.9181127978378
560,871.7782704323008
561,871.6410891306402
562,871.5073687267663
563,871.3778519392611
564,871.2532046829647
565,871.1339979726066
566,871.020692583042
567,870.9136275770646
568,870.8130135700954
569,870.7189311887571
570,870.6313346776619
571,870.5500601161448
572,870.4748373127862
573,870.4053042391533
574,870.3410228892687
575,870.2814956343893
576,870.2261813587096
577,870.1745108624262
578,870.1259012161418
579,870.0797689337832
580,870.0355419823989
581,869.9926707759727
582,869.9506383985344
583,869.9089703128678
584,869.8672436835784
585,869.8250961990278
586,869.7822340185996
587,869.7384383188377
588,869.6935699151448
589,869.6475715578558
590,869.6004676724373
591,869.552361491775
592,869.5034297157626
593,869.4539150360881
594,869.4041170462191
595,869.3543821489952
596,869.30509303074
597,869.2566581133403
598,869.2095012224084
599,869.1640516332816
600,869.1207346868514
601,869.0799631925261
602,869.042129770665
603,869.0076001699863
604,868.9767074976669
605,868.9497472315378
606,868.9269728436832
607,868.9085918951263
608,868.8947626034683
609,868.8855911135587
610,868.8811299081764
611,868.8813778489786
612,868.8862821868996
613,868.8957426081238
614,868.9096171240236
615,868.9277294478529
616,868.9498774212353
617,868.9758420214818
618,869.0053964665785
619,869.0383149347164
620,869.0743804529187
621,869.1133916059149
622,869.1551678557087
623,869.1995533897629
624,869.2464194863952
625,869.2956654118012
626,869.3472178814683
627,869.4010291330684
628,869.4570736643205
629,869.5153437231148
630,869.57584372317
631,869.6385838561747
632,869.7035732265863
633,869.7708128479969
634,869.840288838132
635,869.9119661322862
636,869.9857829843062
637,870.0616464466897
638,870.1394289530062
639,870.218966109982
640,870.3000558466013
641,870.3824590917629
642,870.4659020889364
643,870.5500803386648
644,870.6346640713084
645,870.7193051007126
646,870.8036448364328
647,870.8873231216551
648,870.9699874734413
649,871.051302289807
650,871.1309576470236
651,871.2086773889284
652,871.2842262732732
653,871.3574159797902
654,871.42810980031
655,871.496225846882
656,871.561738685528
657,871.6246794633282
658,871.6851348000572
659,871.7432448680458
660,871.7992011111753
661,871.8532439430742
662,871.9056605640848
663,871.9567828247967
664,872.0069848948643
665,872.0566803713616
666,872.1063183825175
667,872.1563782597907
668,872.2073624995003
669,872.2597879652624
670,872.3141755003155
671,872.3710382484741
672,872.4308689845335
673,872.4941266684001
674,872.5612224009551
675,872.6325051020739
676,872.708247526581
677,872.7886335170122
678,872.8737475033224
679,872.9635671522087
680,873.0579598055018
681,873.1566830274834
682,873.2593892706749
683,873.3656343946111
684,873.4748895579555
685,873.5865558855171
686,873.6999813020689
687,873.8144790038275
688,873.9293471488414
689,874.0438893894989
690,874.1574357626979
691,874.2693632464117
692,874.3791151551982
693,874.4862185918621
694,874.5902993303571
695,874.6910936309177
696,874.7884565252285
697,874.8823661168083
698,874.9729235191438
699,875.0603482732265
700,875.1449694359752
701,875.2272128928969
702,875.3075856911234
703,875.3866583075024
704,875.4650458468662
705,875.5433892122235
706,875.6223372018951
707,875.7025302422293
708,875.7845861784973
709,875.8690883302733
710,875.9565758376825
711,876.0475360820185
712,876.1423986462427
713,876.2415300099623
714,876.3452281147111
715,876.4537161521346
716,876.5671353254386
717,876.6855367513946
718,876.8088729876022
719,876.9369898418138
720,877.0696191810458
721,877.2063734951238
722,877.3467430164665
723,877.4900961870402
724,877.6356841080762
725,877.7826492896176
726,877.9300386135985
727,878.0768200988834
728,878.221902939953
729,878.3641603301838
730,878.502454580467
731,878.6356638949223
732,878.7627099675768
733,878.882585473848
734,878.9943805628569
735,879.0973075183404
736,879.1907227981628
737,879.2741456886007
738,879.3472728195082
739,879.4099878076039
740,879.4623653966836
741,879.5046696806231
742,879.5373462945103
743,879.5610087969201
744,879.5764198219183
745,879.5844679221043
746,879.5861412858973
747,879.5824996317784
748,879.5746455652858
749,879.563696583747
750,879.550758759573
751,879.5369029306987
752,879.523143994056
753,879.5104236605032
754,879.4995968074943
755,879.4914213832495
756,879.4865516814351
757,879.4855346805061
758,879.4888089838793
759,879.4967057289166
760,879.5094507420763
761,879.5271672750036
762,879.5498788434763
763,879.5775119389589
764,879.6098986614617
765,879.6467796229838
766,879.6878077134475
767,879.7325533782663
768,879.7805118790724
769,879.8311126973986
770,879.8837309796586
771,879.9377008024236
772,879.9923299646099
773,880.0469158485207
774,880.1007616347981
775,880.1531919367083
776,880.2035668841397
777,880.251293905103
778,880.2958368414434
779,880.3367224212241
780,880.3735443681054
781,880.4059655098547
782,880.4337181422586
783,880.4566026959338
784,880.4744846209418
785,880.4872894459915
786,880.4949961305783
787,880.497629032104
788,880.4952490266379
789,880.4879445105561
790,880.4758230909307
791,880.459004681282
792,880.4376164762349
793,880.4117899878937
794,880.3816600931788
795,880.3473659080138
796,880.3090532621452
797,880.266878551032
798,880.2210137212201
799,880.1716520575551
800,880.1190142823243
801,880.0633542908735
802,880.0049637256129
803,879.9441746210266
804,879.8813595547473
805,879.8169290442587
806,879.7513262166937
807,879.6850189505509
808,879.6184897409445
809,879.5522235858731
810,879.4866943410491
811,879.4223502231436
812,879.3595993335271
813,879.2987961352402
814,879.2402297243208
815,879.1841145193961
816,879.1305837201342
817,879.0796856387416
818,879.0313828350463
819,878.985553880103
820,878.9419975110453
821,878.9004389184216
822,878.8605379418665
823,878.8218990285573
824,878.784082886503
825,878.7466198004307
826,878.7090245520831
827,878.6708127945759
828,878.6315185784258
829,878.5907125372466
830,878.5480200604921
831,878.5031386604664
832,878.4558536865914
833,878.4060515049874
834,878.3537292315574
835,878.2990001623524
836,878.2420942820751
837,878.1833536373099
838,878.1232228091568
839,878.062235072753
840,878.0009950280057
841,877.9401585502209
842,877.8804108972223
843,877.8224437728268
844,877.7669321241161
845,877.7145114512739
846,877.6657564108755
847,877.6211614596293
848,877.5811241700394
849,877.5459316208321
850,877.5157499642589
851,877.4906170232089
852,877.4704376938663
853,877.4549820348718
854,877.4438861048734
855,877.4366557462005
856,877.4326735434719
857,877.4312091057767
858,877.4314326669561
859,877.4324318342664
860,877.4332311774097
861,877.4328142315655
862,877.430147383579
863,877.424205036995
864,877.4139954232935
865,877.3985864156036
866,877.377130655403
867,877.3488892280259
868,877.3132531006668
869,877.2697616084016
870,877.2181173706732
871,877.1581970815365
872,877.0900576963483
873,877.0139377117588
874,876.9302534864468
875,876.839590811063
876,876.7426921644138
877,876.6404402370664
878,876.5338382980501
879,876.4239878540261
880,876.3120639618226
881,876.1992886273005
882,876.0869029038907
883,875.9761384700942
884,875.8681895821646
885,875.764186394576
886,875.6651707068296
887,875.5720751862766
888,875.485707008355
889,875.4067366459958
890,875.3356922423332
891,875.2729596510521
892,875.2187878588649
893,875.1732991319316
894,875.1365029016434
895,875.1083122029091
896,875.0885614242972
897,875.0770241845086
898,875.0734302857122
899,875.0774809029466
900,875.088861413437
901,875.1072515092851
902,875.1323324828385
903,875.1637918645607
904,875.2013259112479
905,875.2446406848629
906,875.293452515009
907,875.3474884847807
908,875.4064873100092
909,875.4702006963022
910,875.5383950016069
911,875.6108528098691
912,875.6873738451613
913,875.7677745822566
914,875.8518860375314
915,875.939549585615
916,876.0306110988482
917,876.1249140285505
