acceleration,velocity,displacement
-0.025412044065928008,0.0,0.0
-0.024804172047031798,-1.2554054028239951e-05,-3.138513507059988e-09
-0.02415988805177711,-2.479506905294218e-05,-1.2475794277355521e-08
-0.023482061827849378,-3.67055565228488e-05,-2.785095067130327e-08
-0.022773665737005705,-4.826948841406257e-05,-4.9094711905531115e-08
-0.02203775745420536,-5.947234421186534e-05,-7.603017006201309e-08
-0.02127746247518905,-7.030114919421394e-05,-1.0847354341353291e-07
-0.02049595652279658,-8.074450394371035e-05,-1.46234956698014e-07
-0.01969644796989723,-9.079260506688381e-05,-1.8911923395066254e-07
-0.018882160403699583,-0.00010043725716028302,-2.3692669950745424e-07
-0.018056315457967164,-0.0001096718761256997,-2.8945398282894994e-07
-0.01722211605016728,-0.0001184914840027333,-3.4649482286105817e-07
-0.016382730180486988,-0.00012689269556039688,-4.078408677518407e-07
-0.01554127546812722,-0.00013487369697255043,-4.732824658850775e-07
-0.014700804603186388,-0.00014243421699037883,-5.426094443758098e-07
-0.013864291872099005,-0.00014957549110920017,-6.156118714007046e-07
-0.013034620878640537,-0.00015630021929688507,-6.920807990022258e-07
-0.012214573551780043,-0.00016261251790449023,-7.718089833025696e-07
-0.011406820520145073,-0.0001685178664224715,-8.545915793843101e-07
-0.010613912929756523,-0.0001740230497849469,-9.402268084361646e-07
-0.009838275764008825,-0.00017913609695838825,-1.0285165951219985e-06
-0.00908220268639426,-0.000183866216570989,-1.1192671735043427e-06
-0.008347852382583506,-0.00018822373033823344,-1.2122896602316483e-06
-0.0076372463454692455,-0.00019222000502024664,-1.3074005940712683e-06
-0.00695226802356116,-0.00019586738361250424,-1.404422441229456e-06
-0.006294663224309617,-0.00019917911642447194,-1.5031840662387e-06
-0.005666041616785185,-0.00020216929263474563,-1.6035211685035044e-06
-0.005067879120169064,-0.00020485277281898418,-1.7052766848669369e-06
-0.004501520923215168,-0.00020724512282983024,-1.8083011587791404e-06
-0.003968184881343283,-0.00020936254928096985,-1.9124530768068403e-06
-0.0034689650859153084,-0.0002112218367727845,-2.017599173320279e-06
-0.003004835474802018,-0.00021284028691296382,-2.123614704241716e-06
-0.0025766534271953,-0.00021423565913846314,-2.2303836907545727e-06
-0.0021851633396659824,-0.00021542611333017847,-2.3377991338717333e-06
-0.0018310002100970087,-0.0002164301542176192,-2.4457632007586826e-06
-0.0015146932673751488,-0.00021726657758698725,-2.554187383709834e-06
-0.0012366696860881179,-0.00021795441832535306,-2.662992632687919e-06
-0.0009972584185930927,-0.00021851290035152337,-2.7721094623571382e-06
-0.0007966941545042134,-0.00021896138849479769,-2.8814780345687187e-06
-0.0006351213741049583,-0.00021931934237694997,-2.9910482172866556e-06
-0.0005125984092844396,-0.00021960627232279733,-3.1007796209615922e-06
-0.00042910138653441714,-0.00021984169727175203,-3.2106416133602294e-06
-0.0003845279116933437,-0.00022004510459630897,-3.3206133138272445e-06
-0.0003787003569896031,-0.0002202359116634797,-3.4306835678921915e-06
-0.0004113686220061534,-0.00022043342890822864,-3.5408509030351186e-06
-0.0004822122700692915,-0.0002206568241312475,-3.6511234662949876e-06
-0.0005908419974047627,-0.000220925087698116,-3.7615189442523286e-06
-0.0007368004588578912,-0.00022125699831218167,-3.872064465754903e-06
-0.0009195625180725619,-0.0002216710890564143,-3.982796487597051e-06
-0.0011385349940869736,-0.00022218561343445418,-4.0937606632197684e-06
-0.001393055957664271,-0.000222818511172392,-4.20501169437148e-06
-0.001682393620982539,-0.0002235873735670537,-4.316613165556341e-06
-0.0020057448847807338,-0.0002245094081934945,-4.428637360996478e-06
-0.0023622336568991345,-0.00022560140282891448,-4.54116506375208e-06
-0.002750909109663261,-0.00022687968852055508,-4.6542853365894475e-06
-0.0031707440672180997,-0.00022836010181477543,-4.7680952841732805e-06
-0.0036206336973042034,-0.000230057946255906,-4.88269979619095e-06
-0.004099394640278163,-0.0002319879533403016,-4.998211271090002e-06
-0.004605764658886736,-0.00023416424316509283,-5.1147493202163505e-06
-0.005138402850749821,-0.00023660028504250198,-5.232440452268249e-06
-0.005695890445645284,-0.00023930885836660076,-5.351417738120525e-06
-0.006276732207723945,-0.00024230201402994307,-5.4718204562196606e-06
-0.006879358452550789,-0.00024559103669501175,-5.593793718900899e-06
-0.007502127651965749,-0.0002491864082211409,-5.717488080129937e-06
-0.008143329546152796,-0.0002530977725206705,-5.84305912531539e-06
-0.008801188637738084,-0.0002573339020666432,-5.970667043962219e-06
-0.009473867925629839,-0.00026190266620748523,-6.100476186030751e-06
-0.010159472747489724,-0.0002668110013757651,-6.232654602926563e-06
-0.010856054626092857,-0.00027206488321916076,-6.367373574075295e-06
-0.011561615045535437,-0.00027766930063706784,-6.504807120039352e-06
-0.012274109124558584,-0.0002836282316795913,-6.645131503118517e-06
-0.012991449217785634,-0.00028994462126517737,-6.788524716354708e-06
-0.013711508553747588,-0.0002966203607080607,-6.935165961848018e-06
-0.014432125079121824,-0.00030365626911627806,-7.085235119304102e-06
-0.015151105690872288,-0.0003110520768087766,-7.238912205785366e-06
-0.015866230998034806,-0.0003188064109810034,-7.396376827732811e-06
-0.01657526068665375,-0.00032691678390217555,-7.557807626453606e-06
-0.01727593949400736,-0.0003353795839473408,-7.723381718415984e-06
-0.017966003747748534,-0.00034419006975777976,-7.893274131842264e-06
-0.01864318839991312,-0.0003533423677946952,-8.067657241230382e-06
-0.01930523449277253,-0.0003628294735178666,-8.246700201558522e-06
-0.01994989702780374,-0.00037264325639801065,-8.430568384037492e-06
-0.020574953247377438,-0.00038277446896680593,-8.619422815378697e-06
-0.021178211365483784,-0.0003932127601200212,-8.813419622650404e-06
-0.021757519800724833,-0.00040394669291157336,-9.012709485908303e-06
-0.022310776964442208,-0.00041496376710286513,-9.217437100911913e-06
-0.022835941617697315,-0.0004262504467484,-9.42774065437473e-06
-0.02333104373501035,-0.00043779219308657695,-9.643751314333474e-06
-0.023794195740358383,-0.0004495735029554191,-9.865592738343974e-06
-0.02422360394553746,-0.0004615779528768931,-1.0093380602302051e-05
-0.024617580013049766,-0.0004737882488665399,-1.032722215273791e-05
-0.024974552258513107,-0.0004861862819344306,-1.0567215785438152e-05
-0.02529307659831923,-0.0004987531891486387,-1.081345065320892e-05
-0.025571846949921442,-0.0005114694200356989,-1.1066006305505004e-05
-0.025809704902310802,-0.000524314807998757,-1.1324952362513618e-05
-0.026005648478253464,-0.000537268646343898,-1.1590348226099282e-05
-0.026158839804636333,-0.0005503097684146205,-1.1862242829788911e-05
-0.02626861150609018,-0.0005634166312423021,-1.2140674429703142e-05
-0.026334471655388686,-0.0005765674020326719,-1.2425670438021886e-05
-0.026356107161070806,-0.0005897400467367867,-1.2717247300214251e-05
-0.0263333855453756,-0.0006029124199133983,-1.3015410416876797e-05
-0.026266355141319572,-0.000616062355085072,-1.3320154110626415e-05
-0.02615524378680928,-0.0006291677548171042,-1.3631461638101959e-05
-0.02600045610680457,-0.0006422066797905077,-1.3949305246753861e-05
-0.025802569469087988,-0.0006551574361844809,-1.4273646275747608e-05
-0.02556232869622514,-0.0006679986607258092,-1.460443529997518e-05
-0.02528063961987383,-0.0006807094028048339,-1.494161231585784e-05
-0.024958561560952518,-0.0006932692031000405,-1.528510696733406e-05
-0.024597298794929952,-0.0007056581681890112,-1.5634838810156323e-05
-0.024198191012525468,-0.000717857040640875,-1.5990717612363793e-05
-0.02376270273375282,-0.0007298472640774446,-1.6352643688543373e-05
-0.023292411622909893,-0.0007416110426666104,-1.6720508265229386e-05
-0.02278899571811961,-0.0007531313945018677,-1.7094193874521505e-05
-0.022254219710022366,-0.0007643921983589032,-1.7473574772736696e-05
-0.021689920516166267,-0.0007753782334154503,-1.7858517380680284e-05
-0.021097992455343505,-0.0007860752116583278,-1.8248880741948728e-05
-0.02048037232774465,-0.0007964698028540999,-1.8644516995576835e-05
-0.019839024666104217,-0.0008065496521025621,-1.9045271859316002e-05
-0.019175927352501933,-0.0008163033901072137,-1.9450985119868446e-05
-0.01849305771638047,-0.0008257206363744343,-1.9861491126488858e-05
-0.017792379167838806,-0.0008347919955954892,-2.027661928448134e-05
-0.01707582838436991,-0.0008435090474835414,-2.0696194545251097e-05
-0.016345303046169848,-0.0008518643303411763,-2.1120037889707276e-05
-0.015602650097409602,-0.0008598513186270711,-2.154796680194934e-05
-0.01484965450504068,-0.0008674643947776837,-2.1979795730300527e-05
-0.014088028496116524,-0.000874698815527973,-2.2415336532876942e-05
-0.013319401276321464,-0.0008815506729710824,-2.2854398905001707e-05
-0.012545309270545734,-0.0008880168506077992,-2.329679078589643e-05
-0.011767186985480859,-0.0008940949746718058,-2.374231874221633e-05
-0.010986358658974767,-0.0008997833610829198,-2.4190788326155013e-05
-0.010204030897149587,-0.0009050809584719508,-2.4642004406043732e-05
-0.00942128648721712,-0.0009099872878180425,-2.509577146761623e-05
-0.008639079529914268,-0.0009145023793223254,-2.5551893884401323e-05
-0.007858232001603188,-0.0009186267072052047,-2.6010176156033204e-05
-0.007079431854810294,-0.0009223611231693081,-2.6470423113626833e-05
-0.00630323278874984,-0.0009257067893301981,-2.693244009175171e-05
-0.005530055846400696,-0.0009286651114889858,-2.7396033066956505e-05
-0.004760193003965638,-0.0009312376737015773,-2.7861008763254147e-05
-0.003993812902852893,-0.0009334261751782819,-2.832717472547411e-05
-0.003230968832368274,-0.0009352323706120873,-2.8794339361921705e-05
-0.0024716090017790943,-0.0009366580150706242,-2.9262311958342383e-05
-0.0017155890410084148,-0.000937704814581321,-2.973090266575537e-05
-0.0009626865474335467,-0.0009383743834784316,-3.0199922465270308e-05
-0.0002126173779325418,-0.0009386682094597731,-3.0669183113504856e-05
0.0005349466937188746,-0.0009385876271308265,-3.113849707265251e-05
0.0012803593523890023,-0.0009381338006192995,-3.160767742959004e-05
0.0020239805215413556,-0.000937307715650817,-3.207653780865757e-05
0.002766156890302385,-0.000936110181297856,-3.254489228289474e-05
0.003507202531082374,-0.0009345418414425098,-3.301255528857983e-05
0.004247379971222784,-0.0009326031958169336,-3.347934154789469e-05
0.004986882087837507,-0.0009302946303021686,-3.394506600442447e-05
0.005725815169721401,-0.0009276164559877788,-3.440954377599696e-05
0.006464183451220024,-0.0009245689563325435,-3.4872590129077035e-05
0.007201875400233701,-0.0009211524416196801,-3.533402047856509e-05
0.00793865204659982,-0.0009173673097579718,-3.57936504164095e-05
0.008674137650025058,-0.0009132141123338155,-3.625129577193245e-05
0.009407812998601557,-0.0009086936246716588,-3.670677270618382e-05
0.01013901157367613,-0.0009038069185285894,-3.715989784198388e-05
0.010866918702895337,-0.0008985554359594465,-3.761048843060589e-05
0.011590573666972213,-0.0008929410628669796,-3.80583625553125e-05
0.012308874572029564,-0.0008869662008072291,-3.8503339371231055e-05
0.01302058569101054,-0.0008806338357414691,-3.894523938036823e-05
0.013724346921371334,-0.0008739476025883736,-3.9383884739950693e-05
0.014418684976760805,-0.0008669118446138406,-3.9819099601751244e-05
0.015102025907823934,-0.0008595316668926945,-4.025071047962788e-05
0.015772708538597368,-0.0008518129832810891,-4.067854664217133e-05
0.01642899842822085,-0.0008437625565393845,-4.110244052712644e-05
0.01706910202547317,-0.0008353880314259611,-4.152222817411778e-05
0.017691180756065215,-0.0008266979607305765,-4.1937749672156914e-05
0.01829336484879604,-0.0008177018243293612,-4.2348849618421896e-05
0.018873766769512582,-0.000808410041424784,-4.275537758486043e-05
0.019430494199956825,-0.0007988339761824167,-4.3157188589262235e-05
0.019961662557248832,-0.0007889859369931152,-4.355414356755612e-05
0.020465407077415274,-0.0007788791695844492,-4.394610984420051e-05
0.020939894488123806,-0.0007685278441930645,-4.433296159764489e-05
0.021383334292105146,-0.0007579470369980072,-4.471458031794266e-05
0.02179398968153372,-0.0007471527060045975,-4.509085525369331e-05
0.02217018810182976,-0.0007361616615587566,-4.546168384558415e-05
0.022510331478262632,-0.0007249915316637335,-4.582697214388977e-05
0.022812906108764033,-0.0007136607222669768,-4.618663520737245e-05
0.023076492211863187,-0.00070218837268682,-4.65405974811109e-05
0.02329977310663235,-0.0006905943063571961,-4.68887931508719e-05
0.02348154399895007,-0.0006788989770808005,-4.72311664717314e-05
0.023620720348008797,-0.0006671234109940608,-4.756767206875012e-05
0.02371634577031211,-0.0006552891444644805,-4.7898275207614755e-05
0.023767599397345296,-0.0006434181581725662,-4.822295203327402e-05
0.023773802548728285,-0.0006315328076860478,-4.854168977473867e-05
0.023734424534397964,-0.0006196557509152663,-4.8854486914389e-05
0.023649087371956628,-0.0006078098729386776,-4.916135332035249e-05
0.02351756920421941,-0.0005960182087946335,-4.946231034078581e-05
0.02333980622056075,-0.0005843038649384385,-4.975739085921908e-05
0.02311589290773765,-0.0005726899401563638,-5.004663931049278e-05
0.02284608046821854,-0.0005611994468123747,-5.033011165723496e-05
0.022530773247320172,-0.0005498552333834901,-5.060787532728393e-05
0.022170523017035332,-0.0005386799093174012,-5.0880009112959154e-05
0.021766020991452428,-0.0005276957733152793,-5.1146603033617326e-05
0.021318087517102503,-0.0005169247461881406,-5.140775816349318e-05
0.020827659510725204,-0.0005063883094311837,-5.166358642739801e-05
0.02029577590399776,-0.0004961074505775029,-5.191421036740018e-05
0.01972356155867325,-0.00048610261621183517,-5.2159762884097514e-05
0.01911221026920694,-0.00047639367325486514,-5.240038695646419e-05
0.01846296752251994,-0.0004669998788069334,-5.2636235344479645e-05
0.01777711363924193,-0.00045793985851649296,-5.28674702788105e-05
0.017055947825409427,-0.0004492315931503301,-5.309426314172721e-05
0.01630077356310758,-0.0004408924128032008,-5.331679414321559e-05
0.015512885678112412,-0.0004329389979928958,-5.3535251995914615e-05
0.014693559340446203,-0.00042538738673825616,-5.3749833592097404e-05
0.013844041179031203,-0.0004182529866083868,-5.396074368543407e-05
0.01296554262671562,-0.0004115505906569501,-5.4168194579750404e-05
0.012059235557217938,-0.0004052943961109667,-5.4372405826442384e-05
0.011126250227965333,-0.0003994980246646709,-5.4573603931636296e-05
0.01016767550025083,-0.00039417454323261683,-5.4772022073610616e-05
0.009184561269770583,-0.0003893364840401115,-5.49678998304288e-05
0.008177923002187325,-0.000384995862972122,-5.516148291718186e-05
0.0071487482241468355,-0.00038116419516553843,-5.5353022931716276e-05
0.006098004768916433,-0.0003778525069172726,-5.5542777107236977e-05
0.0050266505186891824,-0.0003750713430953712,-5.573100806974014e-05
0.003935644322497965,-0.0003728307693850744,-5.591798359786025e-05
0.002825957707915344,-0.0003711403688774711,-5.610397638242589e-05
0.0016985869629802747,-0.0003700092327097472,-5.628926378282269e-05
0.0005545651500530049,-0.0003694459446814889,-5.6474127577170496e-05
-0.0006050263764682807,-0.0003694585599880927,-5.665885370333789e-05
-0.0017790473360210926,-0.0003700545784162151,-5.684373198793897e-05
-0.0029662890768412595,-0.0003712409125194307,-5.702905586067288e-05
-0.004165466508919848,-0.00037302385141587096,-5.7215122051656705e-05
-0.005375211485994251,-0.0003754090209145995,-5.740223026973932e-05
-0.006594067629378046,-0.00037840134069344253,-5.759068286014133e-05
-0.007820486565578834,-0.0003820049792421817,-5.778078444012524e-05
-0.009052825566980359,-0.0003862233072753215,-5.797284151175462e-05
-0.01028934660274102,-0.0003910588503177518,-5.8167162051152886e-05
-0.011528216803344125,-0.0003965132411692731,-5.8364055074024645e-05
-0.012767510324030909,-0.00040258717295111685,-5.856383017755474e-05
-0.014005211577408992,-0.0004092803534264768,-5.876679705914914e-05
-0.015239219799597893,-0.00041659146127072855,-5.897326501282344e-05
-0.016467354904300804,-0.0004245181049467032,-5.91835424043778e-05
-0.017687364548026527,-0.00043305678480978505,-5.939793612681692e-05
-0.01889693228018219,-0.00044220285901683726,-5.961675103777358e-05
-0.02009368660982123,-0.00045195051373933813,-5.984028938096262e-05
-0.02127521080849298,-0.0004622927380939167,-6.0068850193920936e-05
-0.022439053285224737,-0.0004732213041173461,-6.030272870447375e-05
-0.0235827384115347,-0.00048472675204153597,-6.054221571851347e-05
-0.02470377774409606,-0.0004967983810804437,-6.078759700179397e-05
-0.025799681675505674,-0.0005094242459353441,-6.103915265854791e-05
-0.026867971603760275,-0.0005225911592551606,-6.129715650984554e-05
-0.02790619272758946,-0.000536284700337998,-6.156187547474382e-05
-0.02891192755676238,-0.0005504892304090859,-6.18335689574306e-05
-0.029882810190588242,-0.0005651879148459236,-6.211248824374435e-05
-0.030816541371609885,-0.0005803627527364732,-6.239887591063995e-05
-0.031710904263962135,-0.0005959946141453662,-6.269296525236041e-05
-0.032563780833538204,-0.0006120632854197413,-6.299497972725169e-05
-0.033373168628574125,-0.0006285475227852693,-6.330513242930295e-05
-0.03413719769833384,-0.0006454251143669963,-6.362362558859102e-05
-0.03485414735970138,-0.000662672950631505,-6.395065010484064e-05
-0.03552246251852083,-0.0006802671031010606,-6.428638511827378e-05
-0.03614076926375805,-0.0006981829110466303,-6.46309976218107e-05
-0.03670788947745228,-0.0007163950757319329,-6.498464211850534e-05
-0.037222854234420254,-0.000734877761659901,-6.534746032785329e-05
-0.03768491578351853,-0.0007536047041643857,-6.571958094430937e-05
-0.0380935579054118,-0.0007725493225866183,-6.610111945099712e-05
-0.038448504456204055,-0.0007916848381770223,-6.649217799118803e-05
-0.03874972595122245,-0.0008109843957788789,-6.689284529967701e-05
-0.038997444101677076,-0.0008304211882921038,-6.730319669569476e-05
-0.03919213426120235,-0.0008499685828828237,-6.772329413848848e-05
-0.039334525769582664,-0.00086960024789052,-6.815318634618182e-05
-0.0394256002116694,-0.000889290279385833,-6.859290897800091e-05
-0.03946658762918263,-0.000909013326346046,-6.904248487943388e-05
-0.039458960703814536,-0.0009287447134292953,-6.950192438937772e-05
-0.039404426870854714,-0.0009484605603229625,-6.997122570781578e-05
-0.0393049182576878,-0.0009681378966050982,-7.04503753220478e-05
-0.03916257930820466,-0.0009877547709965712,-7.093934848894822e-05
-0.03897975196837176,-0.0010072903538157153,-7.143810977015129e-05
-0.03875895836461966,-0.001026725031398963,-7.194661361645496e-05
-0.0385028809890415,-0.0010460404912373785,-7.246480499711404e-05
-0.03821434049120911,-0.001065219796607441,-7.299262006907525e-05
-0.037896271241868,-0.0010842474495407104,-7.352998688061229e-05
-0.037551694869719376,-0.0011031094410686073,-7.407682610326461e-05
-0.037183692000538754,-0.001121793287786172,-7.46330517854783e-05
-0.03679537248817934,-0.0011402880539083515,-7.519857212090193e-05
-0.036389844541042396,-0.001158584358165657,-7.577329022392044e-05
-0.035970183291847466,-0.0011766743651238794,-7.635710490474283e-05
-0.03553939947582266,-0.001194551760815797,-7.694991143622774e-05
-0.03510040892202342,-0.0012122117129152584,-7.755160230466051e-05
-0.0346560035184219,-0.0012296508160253698,-7.816206793689567e-05
-0.034208824220575536,-0.001246867022960119,-7.878119739664205e-05
-0.033761336577025146,-0.0012638595631595192,-7.940887904317195e-05
-0.03331580915767115,-0.0012806288495931933,-8.004500114636013e-05
-0.03287429518570795,-0.0012971763756790382,-8.068945245267819e-05
-0.03243861757308416,-0.0013135046038687361,-8.134212269756513e-05
-0.03201035744163558,-0.001329616847622416,-8.200290306043792e-05
-0.03159084610074001,-0.00134551714850801,-8.267168655947053e-05
-0.031181160378049782,-0.0013612101501277074,-8.334836838412945e-05
-0.030782121169740745,-0.001376700970514655,-8.403284616429004e-05
-0.030394295070845057,-0.0013919950745748015,-8.47250201755624e-05
-0.03001799894160042,-0.0014070981480779129,-8.542479348122559e-05
