acceleration,velocity,displacement
-0.02541204407959277,0.0,0.0
-0.02480417206141389,-1.2554054035251665e-05,-3.1385135088129163e-09
-0.024159888066823083,-2.4795069067310907e-05,-1.2475794284453558e-08
-0.02348206184351087,-3.6705556544894394e-05,-2.7850950687504883e-08
-0.022773665753238175,-4.826948844408166e-05,-4.9094711934748894e-08
-0.022037757470973175,-5.947234425013449e-05,-7.603017010830294e-08
-0.021277462492465492,-7.030114924099416e-05,-1.084735434810851e-07
-0.020495956540554926,-8.074450399924926e-05,-1.4623495679114596e-07
-0.019696447988110755,-9.079260513141569e-05,-1.8911923407381221e-07
-0.018882160422337736,-0.00010043725723402781,-2.369266996651731e-07
-0.01805631547699685,-0.00010967187620886145,-2.894539830258954e-07
-0.017222116069555395,-0.00011849148409549951,-3.464948231019857e-07
-0.016382730200196618,-0.00012689269566293752,-4.0784086804159493e-07
-0.01554127548811889,-0.0001348736970850164,-4.732824662285834e-07
-0.014700804623414259,-0.0001424342171128997,-5.426094447780624e-07
-0.013864291892517235,-0.00014957549124188256,-6.15611871866758e-07
-0.01303462089920583,-0.00015630021943981333,-6.92080799537182e-07
-0.012214573572444005,-0.00016261251805772578,-7.718089839115667e-07
-0.011406820540864402,-0.0001685178665860529,-8.545915800725114e-07
-0.01061391295049683,-0.0001740230499588932,-9.40226809208748e-07
-0.009838275784738264,-0.000179136097142702,-1.0285165959841468e-06
-0.00908220270707207,-0.00018386621676565458,-1.1192671744612359e-06
-0.008347852403168925,-0.00018822373054321485,-1.2122896612884532e-06
-0.007637246365922784,-0.00019222000523548777,-1.3074005952331288e-06
-0.006952268043835686,-0.00019586738383792738,-1.4044224425014826e-06
-0.006294663244357996,-0.0001991791166599758,-1.5031840676259584e-06
-0.005666041636556465,-0.00020216929288020442,-1.6035211700110035e-06
-0.00506787913961229,-0.0002048527730742466,-1.7052766864996162e-06
-0.004501520942285748,-0.0002072451230947211,-1.808301160541858e-06
-0.003968184899995355,-0.00020936254955529138,-1.912453078704361e-06
-0.003468965104099187,-0.000211221837056315,-2.0175991753572624e-06
-0.0030048354924641983,-0.00021284028720545587,-2.123614706422705e-06
-0.0025766534442797293,-0.00021423565943964185,-2.2303836930839794e-06
-0.002185163356115334,-0.0002154261136397406,-2.337799136353825e-06
-0.001831000225859049,-0.0002164301545352342,-2.4457632033975684e-06
-0.0015146932824014637,-0.00021726657791229934,-2.554187386509452e-06
-0.0012366697003328396,-0.00021795441865798292,-2.6629926356520225e-06
-0.0009972584320128994,-0.00021851290069106936,-2.7721094654892856e-06
-0.0007966941670608766,-0.0002189613888408378,-2.8814780378722624e-06
-0.000635121385771709,-0.00021931934272904595,-2.9910482207647334e-06
-0.0005125984200408753,-0.0002196062726804991,-3.1007796246171196e-06
-0.0004291013963652284,-0.0002198416976346006,-3.2106416171958945e-06
-0.00038452792058958776,-0.0002200451049638393,-3.3206133178455044e-06
-0.00037870036495252376,-0.00022023591203522484,-3.4306835720952706e-06
-0.00041136862904590766,-0.00022043342928372445,-3.540850907425008e-06
-0.00048221227619730996,-0.00022065682451003526,-3.651123470873448e-06
-0.0005908420026299295,-0.00022092508807974208,-3.7615189490208924e-06
-0.000736800463192911,-0.00022125699869619779,-3.872064470714877e-06
-0.0009195625215339596,-0.0002216710894423795,-3.9827964927495214e-06
-0.0011385349967052807,-0.0002221856138219393,-4.093760668565601e-06
-0.0013930559594751127,-0.00022281851156098442,-4.205011699911332e-06
-0.0016823936220164478,-0.0002235873739563573,-4.316613171290667e-06
-0.0020057448850669696,-0.00022450940858312817,-4.428637366925538e-06
-0.0023622336564656852,-0.00022560140321851134,-4.541165069875948e-06
-0.0027509091085457537,-0.0002268796889097642,-4.654285342908017e-06
-0.003170744065453436,-0.000228360102203264,-4.7680952906862735e-06
-0.0036206336949356536,-0.00023005794664336126,-4.88269980289793e-06
-0.004099394637352817,-0.00023198795372643337,-4.998211277990379e-06
-0.004605764655454231,-0.00023416424354963513,-5.114749327309396e-06
-0.005138402846855975,-0.00023660028542521269,-5.232440459553108e-06
-0.005695890441327005,-0.00023930885874725842,-5.351417745596225e-06
-0.006276732203011774,-0.00024230201440834313,-5.471820463885126e-06
-0.006879358447479088,-0.00024559103707096585,-5.593793726754953e-06
-0.0075021276465727016,-0.0002491864085944788,-5.717488088171314e-06
-0.008143329540482955,-0.00025309777289124274,-5.843059133542745e-06
-0.008801188631841093,-0.00025733390243432377,-5.970667052374136e-06
-0.009473867919559165,-0.0002619026665721738,-6.10047619462576e-06
-0.010159472741310299,-0.0002668110017373912,-6.232654611703151e-06
-0.01085605461987852,-0.0002720648835776884,-6.367373583031921e-06
-0.011561615039374043,-0.00027766930099250157,-6.504807129174468e-06
-0.012274109118550714,-0.0002836282320319828,-6.645131512430589e-06
-0.012991449212042063,-0.00028994462161463096,-6.788524725842243e-06
-0.01371150854838928,-0.0002966203610547388,-6.935165971509586e-06
-0.014432125074272285,-0.00030365626946040415,-7.0852351291383715e-06
-0.01515110568666394,-0.00031105207715063823,-7.238912215791132e-06
-0.015866230994607718,-0.0003188064113209561,-7.396376837909031e-06
-0.016575260684144173,-0.0003269167842406441,-7.5578076367994314e-06
-0.017275939492545172,-0.00033537958428481645,-7.723381728930797e-06
-0.017966003747448344,-0.00034419007009481485,-7.893274142525704e-06
-0.0186431884008768,-0.00035334236813189615,-8.067657252082382e-06
-0.019305234495087944,-0.0003628294738558873,-8.246700212579327e-06
-0.019949897031547304,-0.00037264325673754613,-8.430568395227685e-06
-0.02057495325260774,-0.0003827744693085849,-8.619422826739218e-06
-0.021178211372241584,-0.00039321276046479724,-8.813419634182563e-06
-0.021757519809021606,-0.000403946693260113,-9.01270949761379e-06
-0.022310776974256333,-0.00041496376745593254,-9.217437112792802e-06
-0.022835941628975332,-0.00042625044710674045,-9.42774066643347e-06
-0.023331043747677162,-0.00043779219345090357,-9.643751326572882e-06
-0.023794195754327424,-0.00044957350332640474,-9.86559275076721e-06
-0.02422360396071199,-0.0004615779532551646,-1.0093380614912602e-05
-0.024617580029321576,-0.00047378824925267297,-1.032722216553956e-05
-0.02497455227576254,-0.000486186282328944,-1.0567215798434964e-05
-0.02529307661641516,-0.0004987531895519885,-1.0813450666405198e-05
-0.025571846968725116,-0.0005114694204482735,-1.1066006318905264e-05
-0.02580970492168091,-0.000524314808420875,-1.132495237612255e-05
-0.02600564849803852,-0.0005372686467758048,-1.1590348239921721e-05
-0.026158839824678478,-0.000550309768856484,-1.1862242843829793e-05
-0.02626861152622392,-0.0005634166316942096,-1.2140674443967467e-05
-0.02633447167545489,-0.0005765674024946293,-1.2425670452514677e-05
-0.026356107180912896,-0.0005897400472087213,-1.2717247314940515e-05
-0.02633338556483826,-0.000602912420395159,-1.3015410431841486e-05
-0.02626635516025132,-0.0006160623555764315,-1.3320154125834384e-05
-0.026155243805067535,-0.0006291677553177612,-1.3631461653557932e-05
-0.026000456124256947,-0.0006422066803000923,-1.3949305262462396e-05
-0.025802569485612284,-0.0006551574367025596,-1.4273646291713059e-05
-0.025562328711715696,-0.0006679986612518916,-1.4604435316201671e-05
-0.02528063963423646,-0.0006807094033383797,-1.4941612332349239e-05
-0.024958561574103214,-0.0006932692036404646,-1.528510698409395e-05
-0.02459729880679998,-0.0007056581687356903,-1.563483882718799e-05
-0.024198191023056294,-0.0007178570411931544,-1.59907176296702e-05
-0.02376270274289608,-0.0007298472646346425,-1.635264370612715e-05
-0.023292411630636334,-0.0007416110432280256,-1.6720508283092816e-05
-0.02278899572442034,-0.0007531313950667898,-1.709419389266652e-05
-0.022254219714916507,-0.000764392198926624,-1.7473574791164874e-05
-0.02168992051970223,-0.0007753782339852787,-1.7858517399392848e-05
-0.021097992457596436,-0.0007860752122296034,-1.824888076094657e-05
-0.020480372328813886,-0.0007964698034262059,-1.8644517014860523e-05
-0.019839024666118376,-0.000806549652674939,-1.904527187888581e-05
-0.019175927351610007,-0.0008163033906793711,-1.945098513972439e-05
-0.018493057714753097,-0.0008257206369459619,-1.9861491146630722e-05
-0.017792379165655535,-0.000834791996166064,-2.0276619304908727e-05
-0.017075828381812836,-0.0008435090480529311,-2.0696194565963475e-05
-0.016345303043426157,-0.0008518643309092408,-2.112003791070402e-05
-0.015602650094658839,-0.000859851319193762,-2.154796682322977e-05
-0.014849654502454747,-0.0008674643953430404,-2.1979795751863973e-05
-0.01408802849385841,-0.0008746988160921187,-2.2415336554722762e-05
-0.013319401274546516,-0.00088155067353422,-2.2854398927129345e-05
-0.012545309269395294,-0.0008880168511702054,-2.3296790808305452e-05
-0.011767186985073343,-0.0008940949752338226,-2.374231876490646e-05
-0.010986358659413317,-0.0008997833616449443,-2.419078834912615e-05
-0.01020403089851824,-0.0009050809590344271,-2.4642004429295993e-05
-0.009421286489583364,-0.0009099872883814525,-2.5095771491149962e-05
-0.008639079533329033,-0.0009145023798871806,-2.555189390821712e-05
-0.007858232006100852,-0.0009186267077720381,-2.6010176180131925e-05
-0.00707943186040359,-0.0009223611237386642,-2.64704231380096e-05
-0.006303232795420939,-0.0009257067899026203,-2.6932440116419924e-05
-0.005530055854108849,-0.0009286651120650027,-2.739603309191183e-05
-0.004760193012647178,-0.0009312376742816918,-2.7861008788498503e-05
-0.003993812912421233,-0.0009334261757629589,-2.8327174751009665e-05
-0.003230968842719001,-0.000935232371201744,-2.879433938775084e-05
-0.0024716090127899688,-0.0009366580156656212,-2.926231198446768e-05
-0.0017155890525419185,-0.0009377048151819542,-2.9730902692179575e-05
-0.0009626865593419744,-0.0009383743840849252,-3.0199922491996294e-05
-0.00021261739006182208,-0.0009386682100722761,-3.0669183140535595e-05
0.0005349466815279058,-0.0009385876277494096,-3.113849709999102e-05
0.001280359340303149,-0.0009381338012439518,-3.160767745723936e-05
0.002023980509726148,-0.0009373077162814445,-3.207653783662071e-05
0.0027661568789195327,-0.000936110181934283,-3.254489231117464e-05
0.003507202520280854,-0.000934541842084483,-3.3012555317179334e-05
0.004247379961140114,-0.0009326031964641277,-3.347934157681649e-05
0.004986882078592103,-0.0009302946309541946,-3.394506603367107e-05
0.005725815161408762,-0.0009276164566441944,-3.440954380557067e-05
0.006464183443917821,-0.0009245689569928627,-3.4872590158979934e-05
0.007201875393997959,-0.0009211524422833838,-3.5334020508798995e-05
0.007938652041461101,-0.0009173673104245191,-3.579365044697597e-05
0.008674137645997367,-0.0009132141130026545,-3.6251295802832765e-05
0.00940781299567089,-0.0009086936253422374,-3.6706772737418985e-05
0.010139011571805565,-0.0009038069192003683,-3.7159897873554635e-05
0.010866918702027575,-0.0008985554366319101,-3.761048846251271e-05
0.011590573667034679,-0.0008929410635396445,-3.8058362587555596e-05
0.012308874572936952,-0.0008869662014796516,-3.850333940381042e-05
0.013020585692667359,-0.0008806338364132505,-3.8945239413283646e-05
0.013724346923675725,-0.0008739476032591648,-3.938388477320175e-05
0.014418684979600725,-0.0008669118452833456,-3.981909963533738e-05
0.015102025911077156,-0.0008595316675606762,-4.025071051354839e-05
0.01577270854213657,-0.0008518129839473728,-4.06785466764254e-05
0.016428998431918716,-0.000843762557203859,-4.110244056171321e-05
0.017069102029208746,-0.0008353880320885771,-4.152222820903632e-05
0.017691180759732833,-0.0008266979613913417,-4.19377497074063e-05
0.018293364852307856,-0.0008177018249883316,-4.234884965400122e-05
0.01887376677280877,-0.0008084100420820524,-4.2755377620768815e-05
0.019430494203011933,-0.0007988339768380973,-4.3157188625498854e-05
0.0199616625600667,-0.0007889859376473276,-4.355414360412021e-05
0.020465407080023937,-0.000778879170237305,-4.394610988109137e-05
0.02093989449057167,-0.000768527844844656,-4.4332961634861864e-05
0.021383334294454628,-0.0007579470376483994,-4.471458035548513e-05
0.021793989683849786,-0.0007471527066538233,-4.509085529156069e-05
0.022170188104174822,-0.0007361616622068171,-4.5461683883775846e-05
0.022510331480688924,-0.0007249915323106011,-4.58269721824052e-05
0.022812906111312335,-0.0007136607229126008,-4.6186635246211e-05
0.023076492214560262,-0.0007021883733311327,-4.6540597520271934e-05
0.02329977310948587,-0.0006905943070001212,-4.688879319035475e-05
0.02348154400195497,-0.0006788989777222609,-4.723116651153534e-05
0.023620720351147293,-0.0006671234116339854,-4.75676721088744e-05
0.02371634577355367,-0.0006552891451028102,-4.78982752480586e-05
0.02376759940064539,-0.0006434181588092604,-4.822295207403662e-05
0.023773802552032194,-0.000631532808321091,-4.854168981581921e-05
0.023734424537642056,-0.0006196557515486725,-4.885448695578665e-05
0.023649087375072184,-0.0006078098735704939,-4.916135336206644e-05
0.02351756920713643,-0.0005960182094249417,-4.94623103828153e-05
0.02333980622321688,-0.0005843038655673534,-4.975739090156337e-05
0.02311589291007435,-0.0005726899407840306,-5.0046639353151213e-05
0.022846080470186193,-0.0005611994474389654,-5.033011170020696e-05
0.022530773248886974,-0.0005498552340091971,-5.0607875370569e-05
0.022170523018183497,-0.0005386799099424295,-5.08800091565569e-05
0.02176602099217689,-0.0005276957739398394,-5.1146603077527466e-05
0.021318087517407117,-0.0005169247468124434,-5.1407758207715536e-05
0.020827659510621464,-0.0005063883100554362,-5.1663586471932504e-05
0.02029577590350225,-0.0004961074512019052,-5.191421041224684e-05
0.019723561557802555,-0.000486102616836579,-5.2159762929256466e-05
0.019112210267977638,-0.00047639367388013396,-5.2400387001935645e-05
0.018462967520943525,-0.0004669998794329037,-5.26362353902639e-05
0.017777113637329887,-0.00045793985914333534,-5.286747032490796e-05
0.01705594782317961,-0.00044923159377820794,-5.309426318813835e-05
0.016300773560581655,-0.0004408924134322676,-5.3316794189940966e-05
0.015512885675318427,-0.0004329389986232926,-5.3535252042954854e-05
0.014693559337419827,-0.000425387387370108,-5.374983363945321e-05
0.013844041175814479,-0.0004182529872417994,-5.396074373310619e-05
0.012965542623351865,-0.0004115505912920078,-5.416819462773964e-05
0.012059235553742824,-0.00040529439674773417,-5.4372405874749575e-05
0.011126250224400527,-0.0003994980253031983,-5.457360398026231e-05
0.010167675496609083,-0.00039417454387294593,-5.477202212255635e-05
0.00918456126605446,-0.00038933648468228004,-5.496789987969515e-05
0.008177922998395572,-0.0003849958636161675,-5.516148296676976e-05
0.00714874822027183,-0.00038116419581150067,-5.535302298162668e-05
0.006098004764939091,-0.00037785250756519796,-5.5542777157470855e-05
0.005026650514584055,-0.0003750713437453172,-5.5731008120298486e-05
0.003935644318242147,-0.0003728307700371106,-5.5917983648744095e-05
0.00282595770349357,-0.0003711403695316767,-5.610397643363629e-05
0.001698586958384918,-0.0003700092333662071,-5.628926383436076e-05
0.0005545651452904453,-0.00036944594534028824,-5.6474127629037386e-05
-0.0006050263813751122,-0.0003694585606493094,-5.665885375553479e-05
-0.001779047341033986,-0.00037005457907991166,-5.6843732040467094e-05
-0.0029662890819130926,-0.0003712409131856484,-5.7029055913533486e-05
-0.004165466513995859,-0.00037302385208462567,-5.721512210485106e-05
-0.005375211491003128,-0.00037540902158587544,-5.740223032326868e-05
-0.006594067634244658,-0.0003784013413671874,-5.759068291400695e-05
-0.00782048657023187,-0.0003820049799183065,-5.778078449432832e-05
-0.009052825571343416,-0.00038622330795370035,-5.7972841566296325e-05
-0.010289346606728785,-0.0003910588509982184,-5.8167162106034305e-05
-0.011528216806867464,-0.0003965132418516175,-5.836405512924676e-05
-0.012767510326996873,-0.00040258717363508357,-5.8563830233118434e-05
-0.014005211579722083,-0.0004092803541117633,-5.876679711505515e-05
-0.015239219801161342,-0.0004165914619569841,-5.8973265069072336e-05
-0.01646735490502294,-0.00042451810563353017,-5.918354246096996e-05
-0.017687364547822045,-0.0004330567854967414,-5.939793618375253e-05
-0.018896932278972153,-0.00044220285970343994,-5.9616751095052574e-05
-0.02009368660752798,-0.00045195051442506495,-5.98402894385847e-05
-0.021275210805041397,-0.0004622927387782073,-6.006885025188552e-05
-0.022439053280547353,-0.00047322130479960446,-6.0302728762779974e-05
-0.02358273840557933,-0.0004847267527211361,-6.054221577716016e-05
-0.02470377773683088,-0.0004967983817567386,-6.078759706077963e-05
-0.025799681666917974,-0.0005094242466076759,-6.103915271787073e-05
-0.026867971593853898,-0.0005225911599228689,-6.129715656950337e-05
-0.02790619271638989,-0.0005362847010004298,-6.156187553473419e-05
-0.028911927544315486,-0.0005504892310656061,-6.18335690177507e-05
-0.029882810176964078,-0.000565187915495926,-6.211248830439108e-05
-0.03081654135689761,-0.0005803627533793914,-6.239887597160991e-05
-0.03171090424825728,-0.0005959946147806801,-6.269296531364993e-05
-0.03256378081694139,-0.0006120632860469798,-6.299497978885685e-05
-0.033373168611196165,-0.0006285475234040142,-6.330513249121959e-05
-0.03413719768029573,-0.0006454251149768871,-6.362362565081482e-05
-0.03485414734113049,-0.0006626729512322437,-6.39506501673671e-05
-0.03552246249955597,-0.0006802671036924154,-6.428638518109827e-05
-0.036140769244540606,-0.0006981829116284395,-6.463099768492848e-05
-0.03670788945811853,-0.0007163950763041043,-6.498464218191162e-05
-0.0372228542150963,-0.000734877762222408,-6.534746039154326e-05
-0.03768491576432283,-0.0007536047047172628,-6.571958100827818e-05
-0.038093557886461536,-0.0007725493231299589,-6.610111951523999e-05
-0.03844850443761259,-0.0007916848387109774,-6.649217805570022e-05
-0.03874972593309296,-0.0008109843963036538,-6.689284536445388e-05
-0.038997444084103834,-0.000830421188807953,-6.730319676073177e-05
-0.03919213424427324,-0.0008499685833900473,-6.772329420378128e-05
-0.0393345257533805,-0.0008696002483894608,-6.815318641172615e-05
-0.03942560019626044,-0.0008892902798768711,-6.859290904379274e-05
-0.03946658761461783,-0.0009090133268295906,-6.904248494546935e-05
-0.03945896069013469,-0.0009287447139057787,-6.95019244556532e-05
-0.03940442685809168,-0.0009484605607928353,-6.997122577432785e-05
-0.03930491824586836,-0.0009681378970688252,-7.045037538879326e-05
-0.039162579297353034,-0.0009877547714546306,-7.093934855592412e-05
-0.03897975195851344,-0.0010072903542685972,-7.143810983735493e-05
-0.03875895835577378,-0.001026725031847169,-7.194661368388387e-05
-0.03850288098122337,-0.0010460404916814183,-7.246480506476601e-05
-0.038214340484435304,-0.001065219797047833,-7.299262013694833e-05
-0.037896271236151274,-0.0010842474499779796,-7.352998694870478e-05
-0.037551694865067396,-0.0011031094415032841,-7.40768261715751e-05
-0.037183691996948987,-0.0011217932882187883,-7.463305185400562e-05
-0.03679537248564033,-0.0011402880543394357,-7.519857218964517e-05
-0.03638984453953762,-0.0011585843585957302,-7.577329029287896e-05
-0.03597018329135401,-0.0011766743655534531,-7.635710497391625e-05
-0.03553939947631761,-0.001194551761245371,-7.694991150561595e-05
-0.03510040892348387,-0.0012122117133453215,-7.755160237426362e-05
-0.03465600352083002,-0.0012296508164564,-7.816206800671404e-05
-0.034208824223914774,-0.0012468670233925863,-7.878119746667629e-05
-0.033761336581275135,-0.0012638595635938838,-7.940887911342291e-05
-0.03331580916280642,-0.0012806288500299041,-8.004500121682885e-05
-0.03287429519169922,-0.0012971763761185306,-8.068945252336596e-05
-0.032438617579905946,-0.001313504604311432,-8.134212276847346e-05
-0.03201035744927134,-0.0013296168480687262,-8.200290313156849e-05
-0.03159084610917954,-0.001345517148958339,-8.267168663082526e-05
-0.03118116038726888,-0.001361210150582451,-8.334836845571046e-05
-0.030782121179707574,-0.0013767009709741952,-8.403284623609962e-05
-0.030394295081521406,-0.0013919950750395024,-8.472502024760305e-05
-0.030017998952939173,-0.0014070981485481177,-8.542479355349994e-05
