frame_number,force
0,652.7961400000291
1,653.0882443544792
2,653.3685261960972
3,653.6268161635106
4,653.8559322531772
5,654.0524619248829
6,654.2168898501271
7,654.3531078329963
8,654.4674618214935
9,654.5675570290709
10,654.6610419661358
11,654.7545439330821
12,654.8528640039423
13,654.958484436516
14,655.0714036450737
15,655.1892814871239
16,655.3078412032982
17,655.4214456324821
18,655.5237608844569
19,655.6084391320862
20,655.6697781520511
21,655.7033329378907
22,655.7064525756446
23,655.6786924854696
24,655.6220259497055
25,655.5407770425718
26,655.441233181854
27,655.3309604406517
28,655.2179160686928
29,655.1095027019409
30,655.0117160763513
31,654.9285066070729
32,654.8614308424413
33,654.8096276429403
34,654.7701083165404
35,654.7382940365263
36,654.7086853390567
37,654.675533340431
38,654.6334107580672
39,654.5776400937852
40,654.5045945357006
41,654.4119115882776
42,654.2986432619167
43,654.1653334272837
44,654.0139954743255
45,653.8479774363395
46,653.6717311905778
47,653.4905132685045
48,653.3100240656038
49,653.1359671519011
50,652.9735185265657
51,652.8267410899687
52,652.6980315599188
53,652.5877143698699
54,652.4938883479834
55,652.4125897829063
56,652.3382704606398
57,652.2645201423885
58,652.1849112493973
59,652.0938236464199
60,651.9871202647294
61,651.862579376445
62,651.7200341442364
63,651.5612165550037
64,651.3893476194389
65,651.2085577488258
66,651.0232542413981
67,650.8375604364523
68,650.6549190710268
69,650.4778889872997
70,650.3081038597455
71,650.1463388635318
72,649.9926470235032
73,649.846547593421
74,649.7072488335533
75,649.573879391101
76,649.4457084477202
77,649.3223491676
78,649.203940811714
79,649.0912902765001
80,648.985945097104
81,648.8901809865912
82,648.8069056593084
83,648.7394869141606
84,648.6915044494264
85,648.666416953933
86,648.6671448548785
87,648.6956011023022
88,648.7522476639401
89,648.8357855022919
90,648.9430727208445
91,649.0693124029178
92,649.2084908933571
93,649.3540035653997
94,649.4993761021749
95,649.6389669941802
96,649.7685312373861
97,649.8855546356918
98,649.989330179673
99,650.0808123614806
100,650.162322483981
101,650.2371814356484
102,650.309324580378
103,650.3829202413674
104,650.461987493127
105,650.5500083123817
106,650.6495574551349
107,650.7620092681416
108,650.8873875248939
109,651.0243910506173
110,651.1705845519647
111,651.3227204737447
112,651.4771498029534
113,651.6302700547081
114,651.7789427143967
115,651.9207999800799
116,652.0543686828056
117,652.1789797309411
118,652.2944962696098
119,652.4009543810889
120,652.4982368171169
121,652.5858819064547
122,652.6630753079953
123,652.7288046777526
124,652.7821101001936
125,652.8223568960323
126,652.8494747169638
127,652.864117253958
128,652.8677003465824
129,652.8622938852558
130,652.8503786025873
131,652.8345147313331
132,652.8169877414373
133,652.7994902622605
134,652.7828752022565
135,652.7669961627893
136,652.7506600945
137,652.7317394451635
138,652.707481703472
139,652.6749951284514
140,652.6318174505116
141,652.5764421758845
142,652.5087010998843
143,652.429950678969
144,652.3430429768454
145,652.2520730947381
146,652.1619090971575
147,652.0775397404357
148,652.0033112865364
149,651.9421645326946
150,651.8950231996877
151,651.8604960588152
152,651.8350055466478
153,651.8133525984622
154,651.7896185547797
155,651.7582369816795
156,651.7150500698767
157,651.6581733279977
158,651.5885124078354
159,651.5098165438375
160,651.4282331110144
161,651.3514455208784
162,651.2875905644836
163,651.24419969372
164,651.2273624496094
165,651.2412010688599
166,651.2876407198228
167,651.3664136934885
168,651.4752510069618
169,651.6102438029212
170,651.7663488201481
171,651.9379657078892
172,652.1194781697249
173,652.3056697818283
174,652.4919885633886
175,652.6746930613131
176,652.8509318387719
177,653.0187894074754
178,653.1772980536657
179,653.326391693451
180,653.466777989511
181,653.5997242705583
182,653.7267795714249
183,653.8494821092974
184,653.9691215672857
185,654.0866240297227
186,654.2025920948172
187,654.3174714730943
188,654.4317594024365
189,654.5461545403881
190,654.6615840341896
191,654.7791101972831
192,654.8997803185389
193,655.0245077381962
194,655.1540462247696
195,655.2890545828207
196,655.4301841585369
197,655.5781033853391
198,655.73341302104
199,655.8964716923753
200,656.0671980579455
201,656.2449212700856
202,656.4283274369997
203,656.6155217045117
204,656.8042048577266
205,656.9919428303533
206,657.1764796064879
207,657.3560188221205
208,657.5294012163796
209,657.6961434849478
210,657.8563546856823
211,658.010578044491
212,658.1596144458268
213,658.3043771794269
214,658.4458039727599
215,658.5848158718153
216,658.7222838338308
217,658.858960212465
218,658.9953532503611
219,659.131555756963
220,659.2670690894802
221,659.4006804699061
222,659.53045014442
223,659.6538402869501
224,659.7679773512906
225,659.8700088149694
226,659.9575112410346
227,660.028914819416
228,660.0839016146022
229,660.1237085192505
230,660.1512513350066
231,660.1710066837586
232,660.1886335065524
233,660.2103632460913
234,660.2422315643404
235,660.2892681105506
236,660.3547920515579
237,660.4399541266454
238,660.5436123015563
239,660.6625509549783
240,660.79198835555
241,660.9262815136677
242,661.0597210293126
243,661.1872942745462
244,661.3052865586842
245,661.4116070277158
246,661.5057805227982
247,661.5886288743338
248,661.661748157958
249,661.7269388538066
250,661.785742261394
251,661.8391828442709
252,661.8877363223005
253,661.931469336204
254,661.9702559982344
255,662.0039759623835
256,662.0326233561243
257,662.0562937624476
258,662.0750645826887
259,662.0888324453649
260,662.0971975696801
261,662.0994713630125
262,662.094832902977
263,662.082596376948
264,662.0625037935728
265,662.0349397270908
266,662.0009782065354
267,661.9622153845387
268,661.9204090944505
269,661.8770154990171
270,661.8327543094663
271,661.7873294825004
272,661.7393834537295
273,661.6866906983707
274,661.6265340735623
275,661.5561818227962
276,661.4733938467697
277,661.376907644909
278,661.2668619042296
279,661.1451034655846
280,661.0153098215596
281,660.8828725100115
282,660.7545328476069
283,660.6378144079878
284,660.5403301739187
285,660.4690548431047
286,660.4296535449164
287,660.4259479298113
288,660.4595764364609
289,660.5298725543303
290,660.6339506921764
291,660.766955592486
292,660.9224035847386
293,661.0925421968393
294,661.2686961538744
295,661.4416371165948
296,661.6020613102594
297,661.7412381511466
298,661.8518076215178
299,661.9286066115109
300,661.9693533181995
301,661.9750375711583
302,661.9499316851717
303,661.9012103063394
304,661.8382259583188
305,661.7715312070472
306,661.7117758677998
307,661.6686353667831
308,661.6499236787255
309,661.6609933709868
310,661.7044465510454
311,661.7801198138949
312,661.8852842771313
313,662.0150051987039
314,662.1626187251836
315,662.3202972314067
316,662.4796784861613
317,662.632522101657
318,662.7713385827736
319,662.8899258604903
320,662.9837558726318
321,663.0501826678388
322,663.0884811454831
323,663.099750888446
324,663.0867264809962
325,663.0535347902928
326,663.0054352723495
327,662.9485611145227
328,662.8896429561481
329,662.8356651219949
330,662.7934082953398
331,662.7688771144527
332,662.7666702702908
333,662.7893973245785
334,662.8372675103137
335,662.9079612792899
336,662.9968393822168
337,663.0974625389749
338,663.2023232684014
339,663.30365866437
340,663.3942196857885
341,663.4679011774685
342,663.5201735600882
343,663.548297164316
344,663.5513344755551
345,663.5299928586257
346,663.4863349845409
347,663.4233989874302
348,663.3447749700917
349,663.2541830952377
350,663.155096649442
351,663.0504559394096
352,662.942515595062
353,662.8328461979278
354,662.72247360912
355,662.6121041055987
356,662.5023702875202
357,662.3940457154315
358,662.2881995658697
359,662.1862755329252
360,662.090073104856
361,662.0015972067644
362,661.9227541352881
363,661.854923484604
364,661.7985008022341
365,661.7525382727597
366,661.7145934340734
367,661.680846995819
368,661.6464920728164
369,661.6063376762219
370,661.5555208536706
371,661.4902049446448
372,661.4081617908595
373,661.3091685276352
374,661.195165719042
375,661.0701290290896
376,660.9396357656473
377,660.8101750904116
378,660.6883240717978
379,660.5799410154999
380,660.4894999236154
381,660.4196411392874
382,660.3709738521333
383,660.3421265392367
384,660.329990067997
385,660.3300593667482
386,660.3367857646294
387,660.3439006554863
388,660.3447256270894
389,660.3325113447789
390,660.3008436382054
391,660.2441343336005
392,660.1581836620771
393,660.0407645655849
394,659.8921491870835
395,659.7154829833464
396,659.516909478875
397,659.3053600462704
398,659.0919603854576
399,658.8890756563472
400,658.7091049723645
401,658.5632063087457
402,658.4601488849278
403,658.405448373534
404,658.400869320733
405,658.4443079447261
406,658.5300144676327
407,658.6490928395616
408,658.7902283044265
409,658.940609564797
410,659.0869998295543
411,659.2168735928611
412,659.3194987568938
413,659.3868219811548
414,659.4140211902426
415,659.3996375874707
416,659.345282564256
417,659.254998638458
418,659.1344091561257
419,658.9898131712205
420,658.8273748686556
421,658.6525236519352
422,658.469628217848
423,658.2819545912789
424,658.0918774170185
425,657.9012771595375
426,657.7120156983485
427,657.5263565753042
428,657.3472083825895
429,657.17812392804
430,657.0230624969763
431,656.885983244882
432,656.7703600546128
433,656.6787012558942
434,656.6121495745095
435,656.5702332200306
436,656.5508162910022
437,656.5502499936159
438,656.5636833642616
439,656.5854801645671
440,656.6097016135055
441,656.6306244789964
442,656.6432512532851
443,656.6437422447523
444,656.6296880594533
445,656.600167023974
446,656.5555875865656
447,656.4973697228355
448,656.4275455056368
449,656.3483551336716
450,656.2618959290216
451,656.1698609878492
452,656.0733852196553
453,655.9729997628432
454,655.868683134217
455,655.7599918416421
456,655.6462534710706
457,655.5268063342758
458,655.4012671594973
459,655.269798003005
460,655.1333246061001
461,654.9936439759326
462,654.8533708017117
463,654.7157127911448
464,654.584108065439
465,654.4617757561041
466,654.3512219492231
467,654.2537316434078
468,654.1688899232234
469,654.0942104436506
470,654.0249769105225
471,653.9543981887025
472,653.8741361863032
473,653.7751932525729
474,653.6490541439475
475,653.4888957421293
476,653.2906412520226
477,653.0536581478635
478,652.7809664834475
479,652.478912989796
480,652.1563576291006
481,651.8235005313112
482,651.4905434345751
483,651.1664252914279
484,650.8578745342516
485,650.5689511350259
486,650.3011139154971
487,650.0536983464198
488,649.8245990156906
489,649.6109540422731
490,649.4097029566752
491,649.2179776549382
492,649.0333425999706
493,648.8539162547156
494,648.6783967519557
495,648.5060040220828
496,648.336353400532
497,648.1692882375218
498,648.0047060319198
499,647.8424087279674
500,647.6820005475134
501,647.5228497306466
502,647.3641162190652
503,647.2048238575218
504,647.0439405892191
505,646.8804394860384
506,646.7133386381358
507,646.5417391349789
508,646.3648887339999
509,646.1822938534817
510,645.9938837044313
511,645.800198554896
512,645.6025383267569
513,645.4029928718801
514,645.2043085926323
515,645.0096193017672
516,644.8221332701739
517,644.6448810203416
518,644.4805899424466
519,644.3316918420697
520,644.2004170671437
521,644.0888972061821
522,643.9991895680223
523,643.9331518558985
524,643.8921347551656
525,643.8765193265878
526,643.8851953790544
527,643.9151335755787
528,643.9612135315106
529,644.0164152079985
530,644.0723847786439
531,644.1202925811767
532,644.1518371136438
533,644.1602229899675
534,644.1409556519303
535,644.0923461840782
536,644.0156842362264
537,643.9150909128126
538,643.7970948812557
539,643.6699886751283
540,643.5430316673887
541,643.4255792247866
542,643.3262289289987
543,643.2520754880222
544,643.208152380928
545,643.1971106527874
546,643.2191488448229
547,643.2721764398981
548,643.3521777646132
549,643.4537348936643
550,643.5706446828734
551,643.6965280104231
552,643.8253162815165
553,643.9515423442457
554,644.0704418440465
555,644.1779389992919
556,644.2706185952081
557,644.3457721064822
558,644.4015601550723
559,644.4372752315826
560,644.4536431159677
561,644.4530819008995
562,644.4398394193549
563,644.4199435119335
564,644.40091753962
565,644.3912366558201
566,644.3995419871135
567,644.4336939866425
568,644.4998022554648
569,644.601379341689
570,644.7387349143912
571,644.9086903610463
572,645.1046676075532
573,645.3171755934466
574,645.5346714990397
575,645.7447153333862
576,645.935278334416
577,646.0960235769886
578,646.2193666567478
579,646.3011595330607
580,646.3409252745345
581,646.3416762767937
582,646.3094198334255
583,646.2524657263642
584,646.1806219016905
585,646.1043307830955
586,646.0337803663904
587,645.9780307959476
588,645.9442269519735
589,645.9369953289706
590,645.958113863573
591,646.0064904932909
592,646.078423786529
593,646.1680810598385
594,646.2681200746839
595,646.3703897131467
596,646.46666833648
597,646.5494241607636
598,646.6125829486463
599,646.6522507375289
600,646.6672877456003
601,646.6596060474402
602,646.6340907078276
603,646.5981143218925
604,646.5606988232582
605,646.5314404988175
606,646.5193375695122
607,646.531655763439
608,646.5729556362666
609,646.6443935260232
610,646.7433911826403
611,646.8637394309229
612,646.9961555645855
613,647.1292552485631
614,647.2508335147854
615,647.3492894041004
616,647.4149972079165
617,647.4414380399114
618,647.4259478946124
619,647.3699894232628
620,647.278906752809
621,647.1611878982175
622,647.0273426458018
623,646.8885833535296
624,646.7555381757827
625,646.6372103131471
626,646.5403259205918
627,646.4691132726681
628,646.4254627448626
629,646.4093548620598
630,646.4194187900553
631,646.4534944455949
632,646.5091042323726
633,646.5837746275686
634,646.6751804082614
635,646.781127206264
636,646.8994350256995
637,647.0278117457541
638,647.1638016476103
639,647.3048670377258
640,647.4486151751927
641,647.5931264903846
642,647.7372984733867
643,647.8811109033661
644,648.0257339292618
645,648.1734253276389
646,648.3271965438934
647,648.4902732040755
648,648.6654262125294
649,648.8542885903213
650,649.056790913386
651,649.2708392092411
652,649.4923189991875
653,649.7154409700099
654,649.933365408814
655,650.1389829355109
656,650.3257111605691
657,650.4881898816355
658,650.6228000608252
659,650.7279718117927
660,650.8042732330018
661,650.8542870011294
662,650.8822928214577
663,650.8937869210088
664,650.8948891114644
665,650.8917139620323
666,650.8898011433837
667,650.8936886652904
668,650.9066682074787
669,650.9307096275245
670,650.9665134833655
671,651.0136556536345
672,651.0708088725936
673,651.1360360787093
674,651.2071406725382
675,651.2820388543807
676,651.3591005758474
677,651.4373955601077
678,651.5167880532505
679,651.5978518101396
680,651.6816153613123
681,651.7691845377668
682,651.8613191348774
683,651.9580565954577
684,652.0584651402472
685,652.1605686718036
686,652.2614362058789
687,652.357399793176
688,652.4443665231269
689,652.5182030205535
690,652.5751714232816
691,652.612380518085
692,652.6281980083011
693,652.6225619544007
694,652.5971344715681
695,652.5552600406884
696,652.5017238035151
697,652.4423436182561
698,652.3834622526145
699,652.3314231860273
700,652.2921038471013
701,652.2705432320439
702,652.2706612459792
703,652.2950534378954
704,652.3448582253515
705,652.4197128026715
706,652.5178216667483
707,652.6361560525736
708,652.7707882084751
709,652.9173436636675
710,653.0715292531974
711,653.2296711669155
712,653.3891824198795
713,653.5488761869492
714,653.7090556932518
715,653.8713471580721
716,654.0382925333064
717,654.2127693764573
718,654.3973454809154
719,654.5936944771513
720,654.8021843720721
721,655.0217106023082
722,655.2497995060214
723,655.4829624682674
724,655.7172267566875
725,655.9487184472918
726,656.1741583543783
727,656.3911676545459
728,656.5983474087267
729,656.7951637175521
730,656.9817121617968
731,657.1584428495973
732,657.3259105853863
733,657.484587621053
734,657.634746488321
735,657.7763959986165
736,657.9092485413506
737,658.0327114412548
738,658.1459079810297
739,658.247731437884
740,658.3369304863205
741,658.4122290642702
742,658.4724921655852
743,658.5169506209808
744,658.5454882011492
745,658.5589699588895
746,658.5595559606645
747,658.5509194087977
748,658.5382889760093
749,658.5282558521583
750,658.528317667099
751,658.5461806769197
752,658.5889066292775
753,658.6620428909268
754,658.7688841572138
755,658.909981110945
756,659.0829593564691
757,659.2826635345165
758,659.5016054383407
759,659.7306680302148
760,659.9599904435198
761,660.1799269865481
762,660.3819460592175
763,660.5593358921255
764,660.7076264101668
765,660.8247060945829
766,660.9106784753143
767,660.9675418713352
768,660.998781946426
769,661.0089438602109
770,661.0032146128441
771,660.9870207495806
772,660.965644214829
773,660.943869817999
774,660.9256876169911
775,660.9140792201675
776,660.9109186633864
777,660.9170110553902
778,660.9322688040767
779,660.9559900761798
780,660.9871768906692
781,661.0248287195112
782,661.0681680532218
783,661.1167782742469
784,661.1706497748917
785,661.2301396365223
786,661.2958559757034
787,661.368478980676
788,661.4485317450317
789,661.5361239977647
790,661.6307070510977
791,661.7308856249587
792,661.8343274004113
793,661.9377989869733
794,662.037340395845
795,662.1285710674312
796,662.2071020221114
797,662.269010444009
798,662.3113134661698
799,662.3323613521155
800,662.3320678332423
801,662.3119198647261
802,662.2747604995785
803,662.224392534553
804,662.1650763202856
805,662.1009874262879
806,662.0356807126367
807,661.9716008378597
808,661.9096918188432
809,661.8491754083608
810,661.7875651113371
811,661.7209452682996
812,661.64448349997
813,661.5530897169307
814,661.4421100974614
815,661.3079515405818
816,661.1485596520429
817,660.9637109229956
818,660.755115234393
819,660.5263439231546
820,660.2825995874549
821,660.0303420759768
822,659.7767967892819
823,659.529396690663
824,659.295232363687
825,659.0805852264588
826,658.8905915370706
827,658.729045745516
828,658.598325054852
829,658.4994107967136
830,658.431986411564
831,658.3945934570582
832,658.3848225473755
833,658.3995124861433
834,658.4349348053298
835,658.4869494173064
836,658.5511251140986
837,658.6228296670206
838,658.6973116987173
839,658.7698095760269
840,658.8357144778076
841,658.8907862932662
842,658.9313928260419
843,658.9547297613516
844,658.9589781867617
845,658.9433656788821
846,658.9081200796375
847,658.854336068252
848,658.7837976852126
849,658.6988055318491
850,658.6020435482628
851,658.4964906020999
852,658.3853519142191
853,658.2719753512384
854,658.1597333354051
855,658.0518742249584
856,657.9513533999286
857,657.8606424444064
858,657.7815068151633
859,657.7147541481753
860,657.6599819221819
861,657.6153817130773
862,657.5776739188556
863,657.5422361344066
864,657.5034458315411
865,657.4552010097889
866,657.3915384675861
867,657.3072556355955
868,657.19845680906
869,657.062972862852
870,656.9006290668214
871,656.7133483085221
872,656.5050753642909
873,656.2815059974621
874,656.0496240561015
875,655.817091687054
876,655.5915784964978
877,655.3801316834482
878,655.188674633834
879,655.0216828979067
880,654.8820378738886
881,654.7710200236093
882,654.6883935491404
883,654.6325535439189
884,654.6007321804345
885,654.5892653889831
886,654.5938969522966
887,654.6100618620899
888,654.6330815526269
889,654.6582432767573
890,654.6808034607557
891,654.6959957792268
892,654.6991046118812
893,654.6856064471727
894,654.6513397967025
895,654.5926683826452
896,654.5066360153438
897,654.3911358790313
898,654.2451105265974
899,654.068768590173
900,653.863767212964
901,653.6332859716985
902,653.3819325171894
903,653.1154739384032
904,652.8404419415256
905,652.5636727265784
906,652.2918195407894
907,652.0308590135232
908,651.785625613254
909,651.5594358009234
910,651.3538757613967
911,651.1688117601827
912,651.0026464408553
913,650.852802079075
914,650.7163746169848
915,650.5908719586114
916,650.474924137728
917,650.368835713685
