frame_number,force
0,825.2620200081178
1,825.3433625995673
2,825.4244691690633
3,825.5051051692565
4,825.58503898038
5,825.6640433209224
6,825.741896596977
7,825.8183841733635
8,825.8932995522832
9,825.9664454483506
10,826.037634752042
11,826.106691376752
12,826.1734509875976
13,826.2377616125735
14,826.2994841383778
15,826.3584926943116
16,826.4146749285187
17,826.4679321818447
18,826.518179565861
19,826.565345952636
20,826.6093738840073
21,826.6502194073752
22,826.6878518440946
23,826.7222534958539
24,826.7534192940004
25,826.7813563967109
26,826.8060837395832
27,826.8276315466761
28,826.8460408105868
29,826.8613627507864
30,826.8736582585549
31,826.8829973350059
32,826.8894585270601
33,826.893128365275
34,826.8941008065386
35,826.892476683144
36,826.8883631580671
37,826.8818731852673
38,826.8731249737539
39,826.8622414546932
40,826.8493497517708
41,826.8345806563707
42,826.8180681102848
43,826.799948698736
44,826.7803611552675
45,826.7594458782299
46,826.737344457306
47,826.7141992085977
48,826.6901527183682
49,826.6653473978652
50,826.6399250536242
51,826.6140264786455
52,826.5877910700729
53,826.5613564787933
54,826.5348582957266
55,826.5084297784392
56,826.4822016203137
57,826.4563017628873
58,826.4308552501809
59,826.405984122277
60,826.3818073444854
61,826.3584407680163
62,826.335997117748
63,826.3145860022751
64,826.2943139411002
65,826.2752844038397
66,826.2575978567249
67,826.2413518122692
68,826.2266408785741
69,826.2135568053354
70,826.2021885239664
71,826.1926221788691
72,826.1849411457453
73,826.1792260318988
74,826.175554653621
75,826.1740019869292
76,826.174640089664
77,826.1775379948821
78,826.1827615771024
79,826.1903733936032
80,826.2004325025118
81,826.2129942586392
82,826.22811008787
83,826.2458272416159
84,826.2661885336075
85,826.289232061486
86,826.3149909154902
87,826.3434928765711
88,826.3747601066369
89,826.4088088342853
90,826.4456490401238
91,826.4852841459691
92,826.5277107113793
93,826.5729181396214
94,826.6208883943752
95,826.6715957287947
96,826.7250064297573
97,826.7810785815203
98,826.8397618538174
99,826.9009973194736
100,826.9647173064977
101,827.0308452899322
102,827.0992958292517
103,827.1699745572365
104,827.2427782259967
105,827.3175948154161
106,827.3943037086515
107,827.4727759382444
108,827.5528745048762
109,827.6344547689862
110,827.7173649136245
111,827.8014464754053
112,827.8865349393262
113,827.9724603922393
114,828.0590482287523
115,828.1461199025357
116,828.2334937156174
117,828.3209856383216
118,828.408410153086
119,828.4955811161014
120,828.5823126308043
121,828.6684199264896
122,828.7537202343967
123,828.8380336532799
124,828.9211839968118
125,829.0029996157489
126,829.0833141881373
127,829.1619674705688
128,829.238806002615
129,829.3136837558008
130,829.3864627190381
131,829.4570134149509
132,829.5252153454521
133,829.5909573689241
134,829.6541380142264
135,829.7146657381646
136,829.7724591332501
137,829.8274470920974
138,829.8795689340592
139,829.9287744986631
140,829.9750242087969
141,830.0182891043946
142,830.0585508451218
143,830.0958016788366
144,830.1300443716193
145,830.1612920946974
146,830.1895682634589
147,830.2149063240226
148,830.2373494837854
149,830.2569503839964
150,830.2737707141166
151,830.287880768858
152,830.299358949319
153,830.3082912098893
154,830.3147704528991
155,830.318895873497
156,830.320772258147
157,830.3205092414775
158,830.318220527747
159,830.3140230842589
160,830.3080363142166
161,830.3003812161515
162,830.2911795369398
163,830.2805529258827
164,830.2686220981151
165,830.2555060163581
166,830.2413211005722
167,830.2261804754467
168,830.210193265978
169,830.1934639512295
170,830.1760917851603
171,830.1581702910953
172,830.1397868334248
173,830.1210222668783
174,830.1019506606119
175,830.0826390920464
176,830.0631475045064
177,830.0435286231796
178,830.0238279250522
179,830.004083659808
180,829.9843269201486
181,829.9645817613193
182,829.9448653700217
183,829.9251882819118
184,829.9055546450282
185,829.8859625249521
186,829.8664042470131
187,829.8468667711461
188,829.8273320953452
189,829.8077776838433
190,829.7881769164893
191,829.7684995564562
192,829.7487122340927
193,829.7287789449722
194,829.7086615597332
195,829.6883203423475
196,829.6677144724356
197,829.64680256658
198,829.6255431933387
199,829.6038953767014
200,829.5818190829588
201,829.5592756862351
202,829.5362284081372
203,829.5126427271383
204,829.4884867534986
205,829.463731565594
206,829.4383515033459
207,829.4123244140269
208,829.3856318454274
209,829.3582591817463
210,829.3301957188537
211,829.3014346773833
212,829.2719731537758
213,829.2418120104853
214,829.2109557071014
215,829.1794120744411
216,829.1471920341315
217,829.1143092669726
218,829.0807798341921
219,829.0466217563004
220,829.0118545546436
221,828.9764987612433
222,828.940575403256
223,828.9041054695274
224,828.8671093683173
225,828.829606387044
226,828.7916141661818
227,828.7531482000552
228,828.7142213774993
229,828.6748435753472
230,828.6350213171169
231,828.5947575076817
232,828.5540512521069
233,828.5128977637418
234,828.4712883635616
235,828.4292105698164
236,828.3866482743832
237,828.3435819999106
238,828.2999892298908
239,828.2558448022764
240,828.2111213565671
241,828.1657898245442
242,828.1198199556316
243,828.0731808687435
244,828.0258416233261
245,827.9777718030723
246,827.9289421063759
247,827.879324937962
248,827.8288949963363
249,827.7776298516116
250,827.7255105077768
251,827.6725219429644
252,827.6186536215038
253,827.5638999728184
254,827.508260833816
255,827.4517418524998
256,827.3943548508988
257,827.336118145288
258,827.2770568213856
259,827.2172029621233
260,827.1565958259522
261,827.0952819747982
262,827.0333153528402
263,826.9707573196928
264,826.9076766431875
265,826.8441494569059
266,826.7802591858963
267,826.7160964413232
268,826.6517588822903
269,826.5873510415153
270,826.5229841107284
271,826.4587756809697
272,826.3948494323281
273,826.3313347677735
274,826.2683663869844
275,826.206083797977
276,826.1446307660686
277,826.0841547011565
278,826.0248059858857
279,825.9667372490046
280,825.9101025895183
281,825.8550567578507
282,825.8017543004162
283,825.7503486741766
284,825.7009913382401
285,825.6538308306606
286,825.6090118402908
287,825.5666742852345
288,825.5269524103402
289,825.489973915806
290,825.4558591275398
291,825.4247202181471
292,825.3966604859996
293,825.3717736988239
294,825.3501435069959
295,825.331842929627
296,825.3169339138642
297,825.3054669657532
298,825.2974808504383
299,825.2930023602373
300,825.2920461503973
301,825.2946146435071
302,825.3006980042884
303,825.3102741863685
304,825.3233090513783
305,825.3397565587123
306,825.3595590225461
307,825.3826474319886
308,825.4089418307129
309,825.4383517535157
310,825.4707767181592
311,825.5061067710054
312,825.5442230843136
313,825.5849986017573
314,825.6282987269867
315,825.6739820486822
316,825.7219010954736
317,825.7719031152982
318,825.8238308750408
319,825.8775234764588
320,825.9328171832454
321,825.9895462521007
322,826.0475437582309
323,826.1066424033633
324,826.1666752930697
325,826.2274766707599
326,826.2888825980432
327,826.3507315745467
328,826.4128650937508
329,826.4751281339912
330,826.5373695849936
331,826.5994426106553
332,826.661204949093
333,826.7225191515494
334,826.783252762714
335,826.8432784467363
336,826.9024740656458
337,826.9607227192939
338,827.017912757589
339,827.073937776644
340,827.1286966105173
341,827.1820933293593
342,827.2340372529401
343,827.2844429860372
344,827.333230479314
345,827.3803251163139
346,827.4256578245178
347,827.4691652065018
348,827.5107896859432
349,827.550479662052
350,827.588189664757
351,827.6238805020556
352,827.6575193906737
353,827.6890800616062
354,827.7185428331821
355,827.7458946461776
356,827.7711290580615
357,827.794246196036
358,827.8152526702941
359,827.8341614496192
360,827.8509917015085
361,827.8657685991062
362,827.8785230974813
363,827.8892916817323
364,827.8981160888499
365,827.905043004712
366,827.9101237376891
367,827.9134138712351
368,827.914972899003
369,827.9148638466996
370,827.9131528847814
371,827.9099089356617
372,827.9052032791036
373,827.8991091603501
374,827.8917014069632
375,827.8830560612524
376,827.8732500346802
377,827.8623607889389
378,827.8504660465117
379,827.8376435316957
380,827.8239707406923
381,827.8095247361474
382,827.7943819584854
383,827.7786180448801
384,827.762307647072
385,827.7455242405399
386,827.7283399189778
387,827.7108251697924
388,827.693048628909
389,827.6750768163024
390,827.6569738563209
391,827.638801188071
392,827.6206172709092
393,827.602477289322
394,827.5844328609957
395,827.5665317516713
396,827.5488176002414
397,827.5313296575392
398,827.514102542443
399,827.4971660189017
400,827.4805447971944
401,827.4642583624712
402,827.4483208335705
403,827.4327408550864
404,827.4175215255499
405,827.4026603644355
406,827.3881493205641
407,827.3739748242377
408,827.3601178847953
409,827.3465542339738
410,827.3332545138685
411,827.3201845073133
412,827.3073054085784
413,827.2945741326109
414,827.2819436606039
415,827.2693634186077
416,827.2567796853681
417,827.2441360262571
418,827.2313737515908
419,827.2184323987574
420,827.2052502376914
421,827.1917647982118
422,827.1779134158993
423,827.1636337909807
424,827.1488645528713
425,827.1335458224312
426,827.1176197649042
427,827.1010311283896
428,827.0837277645273
429,827.0656611289199
430,827.0467867585426
431,827.027064722726
432,827.0064600440955
433,826.9849430862954
434,826.9624899058971
435,826.9390825659889
436,826.9147094082759
437,826.8893652790559
438,826.8630517024957
439,826.8357769931893
440,826.8075563001527
441,826.7784115763951
442,826.7483714709872
443,826.7174711429993
444,826.6857519985119
445,826.6532613534541
446,826.6200520265356
447,826.5861818677986
448,826.5517132291305
449,826.5167123838538
450,826.4812489040115
451,826.4453950064527
452,826.4092248813004
453,826.3728140175127
454,826.3362385395648
455,826.2995745675463
456,826.2628976109609
457,826.2262820042295
458,826.1898003892487
459,826.1535232478906
460,826.1175184858632
461,826.0818510690416
462,826.0465827136251
463,826.0117716316657
464,825.9774723334572
465,825.943735487865
466,825.9106078405048
467,825.8781321878237
468,825.8463474036778
469,825.8152885149739
470,825.7849868240322
471,825.7554700762504
472,825.7267626715307
473,825.6988859168575
474,825.67185831562
475,825.6456958868865
476,825.6204125054073
477,825.5960202516353
478,825.5725297610761
479,825.5499505634272
480,825.5282914032273
481,825.507560534529
482,825.487765982885
483,825.4689157696503
484,825.451018096354
485,825.4340814895888
486,825.4181149084565
487,825.4031278170415
488,825.3891302243078
489,825.3761326936203
490,825.3641463236826
491,825.3531827020857
492,825.3432538323805
493,825.3343720358604
494,825.3265498295711
495,825.3197997818294
496,825.3141343458178
497,825.3095656711316
498,825.3061053928665
499,825.3037643982182
500,825.3025525718399
501,825.3024785233157
502,825.3035493025117
503,825.3057701103785
504,825.3091440133525
505,825.3136716688145
506,825.3193510676268
507,825.326177297962
508,825.3341423327112
509,825.3432348410064
510,825.3534400230849
511,825.3647394670014
512,825.3771110257939
513,825.3905287146774
514,825.4049626291247
515,825.4203788855771
516,825.4367395868896
517,825.4540028147279
518,825.4721226511357
519,825.4910492314287
520,825.5107288307064
521,825.5311039867307
522,825.5521136624196
523,825.573693451294
524,825.5957758285929
525,825.6182904493253
526,825.6411644923056
527,825.6643230464525
528,825.6876895327159
529,825.7111861523981
530,825.7347343506633
531,825.7582552829069
532,825.7816702718238
533,825.8049012448262
534,825.8278711444182
535,825.8505043068906
536,825.8727268061749
537,825.8944667600053
538,825.9156545955843
539,825.9362232724097
540,825.956108461065
541,825.9752486785854
542,825.993585383271
543,826.0110630341248
544,826.0276291219745
545,826.0432341803196
546,826.057831783746
547,826.0713785407946
548,826.0838340875706
549,826.0951610887967
550,826.1053252537499
551,826.1142953743939
552,826.1220433916055
553,826.1285444930875
554,826.133777243608
555,826.137723744787
556,826.1403698182918
557,826.1417052038383
558,826.1417237623144
559,826.1404236745873
560,826.1378076277209
561,826.1338829818552
562,826.1286619124528
563,826.1221615238467
564,826.1144039309844
565,826.1054163071021
566,826.0952308960505
567,826.0838849891387
568,826.0714208671754
569,826.0578857085197
570,826.0433314635906
571,826.0278146958832
572,826.0113963893034
573,825.9941417214518
574,825.97611980228
575,825.9574033774738
576,825.9380684963968
577,825.9181941455139
578,825.8978618494115
579,825.8771552422403
580,825.8561596124891
581,825.8349614237733
582,825.8136478142479
583,825.7923060778506
584,825.7710231319994
585,825.7498849781585
586,825.7289761630616
587,825.7083792490276
588,825.6881743016061
589,825.6684384014541
590,825.6492451849158
591,825.6306644150609
592,825.6127615830057
593,825.5955975385011
594,825.5792281487638
595,825.5637039850492
596,825.549070037422
597,825.5353654595582
598,825.5226233468807
599,825.5108705523336
600,825.5001275442628
601,825.4904083101949
602,825.4817203090456
603,825.4740644729296
604,825.467435258905
605,825.4618207507606
606,825.4572028109942
607,825.4535572831488
608,825.4508542446938
609,825.4490583105019
610,825.4481289863536
611,825.4480210706895
612,825.4486851015267
613,825.4500678445903
614,825.4521128180834
615,825.4547608485699
616,825.4579506511889
617,825.4616194263953
618,825.4657034648812
619,825.4701387519762
620,825.4748615624732
621,825.4798090366008
622,825.4849197277464
623,825.490134112388
624,825.4953950528759
625,825.500648205013
626,825.5058423651996
627,825.5109297553943
628,825.5158662468732
629,825.5206115247063
630,825.5251291944122
631,825.529386831677
632,825.5333559760619
633,825.5370120699538
634,825.5403343442679
635,825.5433056529308
636,825.5459122592472
637,825.5481435786029
638,825.5499918833565
639,825.5514519773724
640,825.5525208492298
641,825.5531973138935
642,825.5534816521374
643,825.5533752560087
644,825.5528802881192
645,825.5519993626152
646,825.5507352555036
647,825.549090651056
648,825.5470679295811
649,825.5446690005112
650,825.5418951839715
651,825.5387471440321
652,825.5352248773004
653,825.5313277602725
654,825.5270546569296
655,825.5224040845495
656,825.5173744317019
657,825.5119642190638
658,825.5061723917228
659,825.4999986312524
660,825.4934436767018
661,825.4865096449344
662,825.4792003416829
663,825.4715215553491
664,825.4634813268241
665,825.4550901909134
666,825.4463613875325
667,825.437311042596
668,825.4279583190429
669,825.4183255382375
670,825.4084382719102
671,825.3983254053837
672,825.3880191737394
673,825.3775551731507
674,825.3669723494415
675,825.3563129650616
676,825.3456225445599
677,825.3349497982265
678,825.3243465246961
679,825.3138674955998
680,825.3035703272867
681,825.2935153448714
682,825.2837654423556
683,825.2743859404175
684,825.2654444418391
685,825.25701068381
686,825.2491563859596
687,825.2419550923687
688,825.23548200499
689,825.2298138051318
690,825.2250284590601
691,825.2212050035738
692,825.2184233080314
693,825.2167638109694
694,825.2163072317911
695,825.2171342602651
696,825.2193252280206
697,825.2229597665349
698,825.228116455381
699,825.2348724632133
700,825.2433031828132
701,825.2534818611957
702,825.2654792264092
703,825.2793631135702
704,825.2951980929032
705,825.3130451017468
706,825.3329610811783
707,825.3549986169683
708,825.3792055846151
709,825.4056247993093
710,825.434293673413
711,825.4652438856116
712,825.4985010664193
713,825.5340845040065
714,825.5720068733223
715,825.612273991226
716,825.6548846008773
717,825.6998301892296
718,825.7470948415051
719,825.7966551360252
720,825.8484800822072
721,825.9025311042167
722,825.9587620724753
723,826.0171193846314
724,826.0775420966838
725,826.1399621037299
726,826.2043043682042
727,826.2704871916837
728,826.3384225249895
729,826.4080163107797
730,826.4791688529706
731,826.5517752078721
732,826.6257255926421
733,826.7009058072478
734,826.7771976664479
735,826.8544794387158
736,826.9326262897952
737,827.0115107294923
738,827.0910030607021
739,827.1709718292964
740,827.2512842725481
741,827.3318067626086
742,827.4124052405755
743,827.492945636507
744,827.5732942718731
745,827.6533182431498
746,827.7328857877477
747,827.811866635519
748,827.8901323505507
749,827.9675566688226
750,828.0440158373746
751,828.1193889597648
752,828.1935583510965
753,828.2664099042108
754,828.3378334668641
755,828.4077232278364
756,828.4759781081341
757,828.5425021522074
758,828.6072049137231
759,828.6700018306761
760,828.7308145846107
761,828.7895714378081
762,828.8462075410152
763,828.9006652037788
764,828.952894120083
765,829.0028515431569
766,829.0505024046238
767,829.0958193748
768,829.1387828630732
769,829.179380959516
770,829.217609320465
771,829.2534710011656
772,829.2869762378034
773,829.3181421800681
774,829.3469925748108
775,829.3735574018973
776,829.397872464819
777,829.4199789404406
778,829.4399228939488
779,829.4577547662227
780,829.4735288412909
781,829.4873027015534
782,829.4991366784745
783,829.5090933065878
784,829.5172367884909
785,829.52363247765
786,829.5283463844066
787,829.5314447091488
788,829.5329934057448
789,829.5330577780512
790,829.5317021120783
791,829.528989345657
792,829.5249807763826
793,829.5197358080095
794,829.5133117356818
795,829.50576357106
796,829.4971439091131
797,829.4875028389265
798,829.4768879010226
799,829.4653440927592
800,829.4529139210485
801,829.4396374984315
802,829.425552675666
803,829.4106952025052
804,829.3950989083336
805,829.3787958950292
806,829.3618167351867
807,829.3441906695507
808,829.325945798055
809,829.3071092589128
810,829.287707389722
811,829.2677658642832
812,829.2473097996359
813,829.2263638296826
814,829.204952143662
815,829.1830984887008
816,829.160826135706
817,829.1381578077076
818,829.1151155702726
819,829.0917206852168
820,829.0679934312091
821,829.0439528972399
822,829.0196167568585
823,828.9950010325845
824,828.9701198609462
825,828.9449852689123
826,828.9196069720938
827,828.8939922044173
828,828.8681455884301
829,828.842069054832
830,828.8157618184931
831,828.7892204156608
832,828.7624388037126
833,828.7354085214993
834,828.7081189054945
835,828.6805573548478
836,828.6527096369572
837,828.6245602240278
838,828.5960926502838
839,828.567289879686
840,828.5381346756116
841,828.5086099665768
842,828.4786992049891
843,828.448386718484
844,828.4176580548869
845,828.3865003214408
846,828.3549025167536
847,828.3228558512318
848,828.29035405024
849,828.2573936345608
850,828.2239741743161
851,828.1900985140974
852,828.1557729679167
853,828.1210074830203
854,828.0858157722348
855,828.050215415285
856,828.0142279297397
857,827.9778788115543
858,827.9411975438945
859,827.9042175716756
860,827.8669762386596
861,827.8295146844507
862,827.791877700138
863,827.754113542924
864,827.7162737112299
865,827.6784126823813
866,827.6405876151497
867,827.6028580193474
868,827.5652853948501
869,827.5279328433927
870,827.4908646583033
871,827.4541458993228
872,827.4178419610197
873,827.3820181434395
874,827.3467392323546
875,827.3120690941608
876,827.2780702880824
877,827.244803696784
878,827.2123281759032
879,827.1807002227173
880,827.1499736634836
881,827.1201993579292
882,827.0914249184392
883,827.0636944413008
884,827.0370482480477
885,827.0115226360928
886,826.9871496387359
887,826.9639567949157
888,826.9419669290586
889,826.9211979415815
890,826.9016626110721
891,826.8833684096849
892,826.8663173340113
893,826.8505057547038
894,826.8359242890178
895,826.8225577006041
896,826.8103848301871
897,826.7993785593709
898,826.7895058079812
899,826.7807275636076
900,826.7729989411878
901,826.7662692709287
902,826.7604822140091
903,826.7555759066499
904,826.7514831342776
905,826.7481315389637
906,826.7454438647533
907,826.7433382462015
908,826.7417285451388
909,826.7405247395868
910,826.7396333670989
911,826.7389580229894
912,826.738399912521
913,826.7378584552999
914,826.737231939453
915,826.7364182222584
916,826.7353154727895
917,826.733822950806
