acceleration,velocity,displacement
-0.02502479740204241,0.0,0.0
-0.024060333727535386,-1.227128278239445e-05,-3.0678206955986126e-09
-0.02309866852055258,-2.406103334441644e-05,-1.2150899727301335e-08
-0.022142582764516944,-3.537134616568382e-05,-2.7008994604826402e-08
-0.02119482273106114,-4.6205697539578347e-05,-4.7403255531141945e-08
-0.020258083253946686,-5.6568924035830306e-05,-7.309691092499411e-08
-0.01933499173008389,-6.646719278183795e-05,-1.0385594012941117e-07
-0.01842809304808532,-7.590796397638025e-05,-1.3944972931896573e-07
-0.017539835613173096,-8.489994614169486e-05,-1.7965170684848452e-07
-0.01667255860073576,-9.345304469517207e-05,-2.2423995455770126e-07
-0.015828480532894994,-0.00010157830447857975,-2.729977918511392e-07
-0.01500968923512515,-0.0001092878469205848,-3.2571432970093035e-07
-0.014218133194956814,-0.00011659480252810529,-3.821849920631029e-07
-0.013455614315622838,-0.0001235132394057502,-4.4221200254656675e-07
-0.0127237820371538,-0.00013005808849394436,-5.056048345214904e-07
-0.01202412878454463,-0.00013624506619936897,-5.721806231948188e-07
-0.01135798669243978,-0.00014209059506861506,-6.417645385118147e-07
-0.010726525543714564,-0.00014761172312765364,-7.141901180608819e-07
-0.010130751844362573,-0.00015282604247467293,-7.892995594614635e-07
-0.009571508944774635,-0.00015775160767195722,-8.66943971998121e-07
-0.009049478115480885,-0.00016240685443702109,-9.469835875253656e-07
-0.008565180494116574,-0.00016681051908942044,-1.0292879309069759e-06
-0.008118979831557521,-0.00017098155917083895,-1.1137359504720407e-06
-0.007711085973325068,-0.0001749390756220596,-1.2002161091702653e-06
-0.007341559017474479,-0.0001787022368697595,-1.28862643729322e-06
-0.007010314090861489,-0.0001822902051468435,-1.3788745477973707e-06
-0.006717126677693663,-0.00018572206533898228,-1.470877615418827e-06
-0.006461638417040878,-0.0001890167566126659,-1.5645623209067392e-06
-0.006243363267455505,-0.00019219300703379,-1.6598647618183532e-06
-0.006061693929386528,-0.0001952692713330005,-1.7567303314100508e-06
-0.0059159084264780925,-0.00019826367192196667,-1.8551135672237927e-06
-0.00580517676880669,-0.00020119394322078786,-1.9549779710094814e-06
-0.00572856764043696,-0.00020407737932309877,-2.056295801645453e-06
-0.0056850550649652385,-0.0002069307849994493,-2.1590478427260903e-06
-0.005673525013393206,-0.00020977043001903892,-2.2632231464807125e-06
-0.005692781936355177,-0.000212612006756476,-2.368818755674591e-06
-0.005741555222773556,-0.00021547059104625818,-2.4758394051252747e-06
-0.005818505598984197,-0.00021836060625169762,-2.5842972044497635e-06
-0.005922231483188904,-0.0002212957905222409,-2.6942113036432483e-06
-0.006051275303871485,-0.000224289167219006,-2.80560754307856e-06
-0.006204129779609494,-0.00022735301848987623,-2.9185180895057807e-06
-0.006379244141776798,-0.0002304988619702228,-3.0329810596208053e-06
-0.006575030267958416,-0.0002337374305726566,-3.149040132756525e-06
-0.006789868693079478,-0.00023707865531291607,-3.2667441542279182e-06
-0.007022114479837816,-0.0002405316511061454,-3.3861467308326838e-06
-0.007270102951628134,-0.00024410470546401187,-3.5073058199752232e-06
-0.007532155306443711,-0.00024780527002852984,-3.6302833138483587e-06
-0.007806584129262995,-0.0002516399548874565,-3.755144620077355e-06
-0.0080916988018171,-0.0002556145256202265,-3.881958240204276e-06
-0.008385810780957837,-0.00025973390301592023,-4.010795347363313e-06
-0.008687238693497867,-0.00026400216538453414,-4.141729364463426e-06
-0.008994313183544564,-0.00026842255335379474,-4.274835544148008e-06
-0.009305381445611507,-0.00027299747701108377,-4.410190551739228e-06
-0.009618811379244826,-0.00027772852521729786,-4.547872052296323e-06
-0.009932995308633456,-0.0002826164768892674,-4.687958302822965e-06
-0.010246353224094165,-0.0002876613140224493,-4.830527750550894e-06
-0.010557335518984245,-0.0002928622362082189,-4.975658638108561e-06
-0.010864425214771005,-0.0002982176763916577,-5.123428616258531e-06
-0.01116613968822023,-0.00030372531761740554,-5.273914364760797e-06
-0.011461031933228644,-0.0003093821105227678,-5.4271912217958405e-06
-0.011747691400687252,-0.00031518429135624673,-5.583332822265594e-06
-0.012024744464776875,-0.0003211274003226128,-5.742410745185309e-06
-0.012290854568000917,-0.00032720630008080723,-5.904494170286165e-06
-0.012544722102048317,-0.0003334151942483195,-6.069649543868447e-06
-0.012785084085385014,-0.00033974764579517786,-6.237940253879321e-06
-0.013010713698400709,-0.0003461965952411243,-6.409426314138397e-06
-0.013220419732050119,-0.000352754378598737,-6.584164057598363e-06
-0.013413045998964214,-0.0003594127450314906,-6.76220583850592e-06
-0.013587470748829105,-0.0003661628742184389,-6.943599743318402e-06
-0.013742606122911156,-0.00037299539343637396,-7.128389310232105e-06
-0.013877397678314907,-0.0003799003943866805,-7.316613257187868e-06
-0.013990824017206907,-0.00038686744981056097,-7.508305218237178e-06
-0.014081896569711401,-0.00039388562995729056,-7.70349348817914e-06
-0.014149659590318017,-0.0004009435189972979,-7.902200775417787e-06
-0.014193190426023999,-0.0004080292315013834,-8.104443963042459e-06
-0.01421160010041748,-0.0004151304291329938,-8.310233878201053e-06
-0.014204034237351787,-0.0004222343377174361,-8.519575069913661e-06
-0.014169674324971031,-0.00042932776485801684,-8.732465595557524e-06
-0.014107739301602376,-0.0004363971182646602,-8.948896816338193e-06
-0.014017487437465571,-0.0004434284249494272,-9.168853202141715e-06
-0.01389821849154898,-0.00045040735143168085,-9.392312146236992e-06
-0.01374927613236154,-0.0004573192250876585,-9.619243790366826e-06
-0.013570050612945648,-0.0004641490567739853,-9.849610860832238e-06
-0.013359981682278312,-0.0004708815648477913,-1.0083368516237682e-05
-0.013118561706075709,-0.0004775012006948798,-1.032046420762335e-05
-0.012845338967836604,-0.0004839921758633579,-1.0560837551762908e-05
-0.012539921122876897,-0.0004903384908860362,-1.0804420218450257e-05
-0.012201978777730162,-0.000496523965861188,-1.1051135832637062e-05
-0.011831249162855526,-0.0005025322728463345,-1.1300899892313942e-05
-0.011427539858850285,-0.000508346970101761,-1.1553619703050966e-05
-0.010990732527543467,-0.0005139515381983594,-1.1809194330125996e-05
-0.010520786597104991,-0.0005193294179795215,-1.2067514569170466e-05
-0.01001774286020041,-0.0005244640503438478,-1.2328462936251309e-05
-0.009481726960283576,-0.0005293389177989687,-1.2591913678287012e-05
-0.008912952750579553,-0.0005339375877266845,-1.2857732804668426e-05
-0.008311725506558773,-0.0005382437572909692,-1.312577814092284e-05
-0.007678444958319233,-0.0005422412999071887,-1.339589940522238e-05
-0.007013608092868685,-0.0005459143131699856,-1.3667938308491673e-05
-0.006317811666627063,-0.0005492471681098596,-1.3941728678811635e-05
-0.005591754367928905,-0.0005522245596184986,-1.4217096610743725e-05
-0.004836238570734344,-0.0005548315578531644,-1.449386064011164e-05
-0.004052171616946569,-0.0005570536604000846,-1.4771831944674953e-05
-0.0032405665586664398,-0.0005588768449439879,-1.5050814571010971e-05
-0.002402542290112271,-0.0005602876221561825,-1.5330605687786015e-05
-0.0015393230019278995,-0.0005612730884791926,-1.5610995865444858e-05
-0.0006522368953793975,-0.0005618209784535194,-1.5891769382178035e-05
0.00025728589850795104,-0.0005619197162027372,-1.6172704555842098e-05
0.0011877162370461422,-0.0005615584656688487,-1.6453574101309996e-05
0.0021374297453065527,-0.0005607271791732606,-1.6734145512520523e-05
0.0031047114594584405,-0.0005594166438720693,-1.7014181468281855e-05
0.004087761314729091,-0.0005576185256785225,-1.7293440260669503e-05
0.005084700440818234,-0.0005553254102396356,-1.7571676244649042e-05
0.006093578214552373,-0.000552530840575793,-1.7848640307352898e-05
0.00711238000797361,-0.0005492293510201614,-1.8124080355251886e-05
0.008139035558071361,-0.0005454164971286502,-1.8397741817289088e-05
0.009171427874890612,-0.0005410888812704096,-1.8669368161888854e-05
0.010207402600048624,-0.0005362441736516748,-1.8938701425619373e-05
0.01124477772859243,-0.0005308811285695146,-1.920548275117467e-05
0.012281353613982542,-0.0005249995957338708,-1.9469452932250516e-05
0.013314923184388776,-0.000518600526534278,-1.9730352962817552e-05
0.014343282299524716,-0.0005116859751632996,-1.9987924588241947e-05
0.015364240168197155,-0.0005042590945463692,-2.0241910855669364e-05
0.0163756297358849,-0.0004963241270703486,-2.0492056661073545e-05
0.017375317947648523,-0.0004878863901494653,-2.07381092903785e-05
0.018361215795630163,-0.0004789522567136456,-2.0979818952094277e-05
0.01933128806731494,-0.00046952913074790935,-2.1216939298959666e-05
0.020283562714850243,-0.0004596254180523681,-2.1449227936159734e-05
0.021216139762547385,-0.0004492504924330187,-2.1676446913781082e-05
0.022127199659219207,-0.000438414657577577,-2.189836320128373e-05
0.023015010972942142,-0.00042712910491953665,-2.211474914190801e-05
0.023877937332429416,-0.0004154058678431938,-2.2325382885098695e-05
0.024714443548994953,-0.0004032577726228377,-2.2530048795215203e-05
0.025523100899683765,-0.000390698386510668,-2.272853783499858e-05
0.026302591599420465,-0.00037774196338589196,-2.292064792247272e-05
0.027051712524143116,-0.00036440338735500106,-2.3106184260157945e-05
0.02776937826356395,-0.0003506981146580743,-2.3284959635661214e-05
0.02845462358453449,-0.0003366421141960497,-2.3456794692874746e-05
0.029106605380275912,-0.0003222518069548471,-2.362151817316247e-05
0.029724604171865922,-0.00030754400456681165,-2.3778967126042884e-05
0.03030802521609872,-0.00029253584721982047,-2.392898708898954e-05
0.03085639925466414,-0.00027724474110212976,-2.407143223607003e-05
0.03136938291355455,-0.0002616882955600751,-2.420616549523558e-05
0.03184675873490239,-0.0002458842601479609,-2.4333058634162588e-05
0.03228843480303362,-0.00022985046176347688,-2.4451992314640448e-05
0.032694443914838056,-0.00021360474208400896,-2.456285611560232e-05
0.03306494223905958,-0.00019716489554553454,-2.4665548525009704e-05
0.03340020740751268,-0.00018054860813389146,-2.475997690092956e-05
0.03370063598448231,-0.00016377339728589272,-2.4846057402284507e-05
0.03396674027187436,-0.00014685655322180355,-2.492371488991143e-05
0.03419914442699515,-0.00012981508204708617,-2.4992882798728654e-05
0.03439857989007944,-0.00011266565096781753,-2.505350298198238e-05
0.034565880132190134,-9.542453596225013e-05,-2.5105525528714897e-05
0.03470197474027594,-7.81075722441336e-05,-2.5148908555766493e-05
0.03480788285923035,-6.073010784425703e-05,-2.518361797578859e-05
0.034884706014356545,-4.3306960625860306e-05,-2.520962724290612e-05
0.0349336203437116,-2.585237903634327e-05,-2.522691707782167e-05
0.03495586828051933,-8.380006880285537e-06,-2.5235475174300828e-05
0.034952749741767646,9.09714762528621e-06,-2.523529588911458e-05
0.03492561289728059,2.656673828504827e-05,-2.5226379917636994e-05
0.03487584460618052,4.401710266091355e-05,-2.5208733957400505e-05
0.03480486060959797,6.143727896485817e-05,-2.518237036199406e-05
0.03471409556416562,7.881701800829908e-05,-2.514730678775077e-05
0.03460499299949377,9.614679014921392e-05,-2.5103565835711392e-05
0.03447899528826956,0.00011341778722115475,-2.50511746913688e-05
0.03433753372694439,0.00013062191947495823,-2.4990164764694773e-05
0.03418201883393414,0.00014775180761517786,-2.4920571332922238e-05
0.03401383097862166,0.0001648007700683168,-2.4842433188501363e-05
0.03383431145898571,0.00018176280567771866,-2.4755792294564855e-05
0.033644754149407596,0.000198632572079817,-2.466069345012547e-05
0.033446397838319576,0.0002154053600767488,-2.455718396708633e-05
0.0332404193610828,0.0002320770643765994,-2.4445313360972994e-05
0.033027927606017964,0.0002486441511183746,-2.4325133057099252e-05
0.03280995843612621,0.00026510362262891065,-2.419669611366243e-05
0.03258747053059686,0.0002814529798705914,-2.4060056963037555e-05
0.03236134211335987,0.0002976901830315806,-2.3915271172312013e-05
0.032132368508667686,0.00031381361068708746,-2.3762395223882346e-05
0.03190126045314866,0.0003298220179275415,-2.3601486316728688e-05
0.03166864309934815,0.0003457144938156657,-2.3432602188792885e-05
0.03143505565926637,0.00036149041850531933,-2.3255800960712638e-05
0.031200951652146338,0.00037714942033317253,-2.3071141001003015e-05
0.0309666997382526,0.0003926913331807723,-2.2878680812624528e-05
0.030732585136063122,0.0004081161543993512,-2.2678478940729495e-05
0.030498811625039434,0.00042342400358962685,-2.247059390123225e-05
0.0302655041244556,0.0004386150825270006,-2.225508412970309e-05
0.030032711816819168,0.00045368963651231926,-2.203200794994326e-05
0.02980041176609168,0.000468647917408047,-2.180142356146317e-05
0.029568512975163254,0.0004834901485933607,-2.1563389044962817e-05
0.02933686083045682,0.0004982164920447657,-2.1317962384803284e-05
0.029105241885603064,0.0005128270177237807,-2.1065201507361147e-05
0.028873388938285262,0.0005273216754297527,-2.0805164334072763e-05
0.02864098635842535,0.0005417002692539303,-2.053790884790184e-05
0.028407675633699402,0.0005559624347519616,-2.0263493171900367e-05
0.02817306110648548,0.0005701076189370078,-1.9981975658478125e-05
0.027936715879124885,0.0005841350631834104,-1.969341498794802e-05
0.027698187859014414,0.0005980437891179452,-1.9397870274872682e-05
0.02745700590360692,0.0006118325875586005,-1.9095401180703545e-05
0.02721268601340481,0.0006255000105378534,-1.878606803117943e-05
0.026964737513080605,0.0006390443664194748,-1.84699319369401e-05
0.02671266915788402,0.0006524637180872159,-1.8147054915813427e-05
0.026455995103037963,0.0006657558841524464,-1.7817500015253512e-05
0.026194240676443797,0.0006789184430973169,-1.748133143344107e-05
0.025926947898422415,0.0006919487402410335,-1.7138614637606484e-05
0.025653680694542966,0.0007048438973892748,-1.6789416478198907e-05
0.02537402974961295,0.0007176008250003138,-1.643380529760151e-05
0.025087616953035973,0.000730216236675976,-1.6071851032182438e-05
0.02479409938660335,0.0007426866657608859,-1.5703625306573223e-05
0.02449317280363044,0.0007550084838084443,-1.532920151918089e-05
0.02418457454343249,0.00076717792064521,-1.4948654918067477e-05
0.023868085821659824,0.0007791910857364831,-1.4562062666472054e-05
0.02354353334153315,0.0007910439905272814,-1.4169503897406112e-05
0.02321079018621277,0.0008027325714092178,-1.3771059756921988e-05
0.022869775974040808,0.0008142527129492812,-1.3366813435832363e-05
0.022520456278063754,0.0008256002710123073,-1.2956850189841965e-05
0.02216284132423828,0.0008367710954128828,-1.2541257348235667e-05
0.021796983989070904,0.0008477610517412101,-1.2120124311447144e-05
0.02142297712107209,0.0008585660420187459,-1.1693542538007155e-05
0.021040950215905112,0.0008691820238529901,-1.126160552153922e-05
0.02065106548421679,0.0008796050277780207,-1.0824408758631467e-05
0.020253513360939657,0.0008898311724893097,-1.0382049708564635e-05
0.01984850751184562,0.0008998566777075061,-9.93462774601543e-06
0.019436279397831505,0.0009096778744349254,-9.482244107979822e-06
0.01901707246318219,0.0009192912124001789,-9.025001836271047e-06
0.018591136022903607,0.0009286932645217003,-8.563005717040577e-06
0.0181587189377556,0.0009378807282618651,-8.096362218844686e-06
0.017720063184604614,0.0009468504237924552,-7.625179430831106e-06
0.01727539745070952,0.0009555992889512837,-7.149567002645171e-06
0.016824930895827483,0.000964124371037918,-6.669636087647871e-06
0.01636884723322368,0.0009724228155701807,-6.185499290995846e-06
0.015907299283371316,0.0009804918521993296,-5.697270624053468e-06
0.015440404154007013,0.000988328778058674,-5.205065466488967e-06
0.01496823919324584,0.0009959309388954873,-4.709000537250427e-06
0.014490838843619722,0.0010032957084047038,-4.209193875425379e-06
0.01400819249405618,0.0010104204662391228,-3.705764831764423e-06
0.013520243390147102,0.0010173025752101736,-3.1988340714020986e-06
0.013026888626342662,0.001023939358214296,-2.6885235880459814e-06
0.01252798020890126,0.001030328075423107,-2.1749567296366304e-06
0.012023327146864946,0.0010364659022620486,-1.6582582352153413e-06
0.011512698500973063,0.0010423499086740081,-1.1385542824813273e-06
0.010995827297264652,0.0010479770401235675,-6.159725452819334e-07
0.010472415194118186,0.0010533441007464133,-9.064226006443815e-08
0.009942137783270783,0.0010584477389907604,4.3730569986985536e-07
0.009404650408369051,0.0010632844360386703,9.67738743627213e-07
0.00885959439407178,0.0010678504972392805,1.5005224769467006e-06
0.008306603589203833,0.0010721420467350994,2.0355206129402956e-06
0.007745311137486663,0.001076155025416772,2.5725948809782636e-06
0.00717535639853978,0.0010798851923007786,3.1116049354076513e-06
0.006596391948776,0.0010833281293876076,3.6524082658297477e-06
0.006008090596257545,0.001086479250023866,4.194860110682616e-06
0.005410152345965975,0.001089333810759422,4.738813375878438e-06
0.004802311250983197,0.0010918869266586591,5.284118560232958e-06
0.004184342079211793,0.001094133589991208,5.830623689395425e-06
0.003556066719217277,0.0010960686921908153,6.378174259940931e-06
0.0029173602515516974,0.0010976870489335076,6.926613195222012e-06
0.0022681566269464534,0.001098983428153132,7.475780814493672e-06
0.0016084539116484897,0.001099952580787781,8.0255148167289e-06
0.0009383190729581386,0.0011005892740339326,8.575650280434328e-06
0.00025789228243200266,0.00110088832687278,9.126019680661006e-06
-0.00043260928733317616,0.0011008446476215548,9.67645292428459e-06
-0.0011328881997343648,0.001100453273249788,1.0226777404502426e-05
-0.001842564053538055,0.0010997094101864698,1.0776818075361491e-05
-0.00256117136873872,0.0010986084763309006,1.1326397546990834e-05
-0.0032881580694126785,0.0010971461439713626,1.18753362020664e-05
-0.004022884549667169,0.0010953183833165927,1.2423452333888388e-05
-0.004764623280191444,0.001093121506359128,1.2970562306307317e-05
-0.005512558893853775,0.0010905522108156168,1.3516480735601003e-05
-0.006265788689222357,0.0010876076239198476,1.406102069428487e-05
-0.007023323511327199,0.0010842853458697102,1.460399393673226e-05
-0.00778408900077994,0.0010805834927416834,1.5145211146385108e-05
-0.008546927232116707,0.0010765007386834592,1.5684482204241395e-05
-0.009310598780736687,0.0010720363571802458,1.6221616478207322e-05
-0.010073785267387675,0.0010671902611682146,1.6756423132794438e-05
-0.010835092437419662,0.0010619630417420128,1.7288711458521993e-05
-0.01159305383948039,0.0010563560051727878,1.7818291220250695e-05
-0.012346135167108216,0.0010503712079211406,1.8344973023524176e-05
-0.01309273931176788,0.0010440114893014215,1.8868568697829818e-05
-0.013831212153381225,0.0010372805014351343,1.9388891695513958e-05
-0.01455984909385528,0.0010301827361233252,1.990575750490357e-05
-0.015276902322004406,0.0010227235482693604,2.0418984076001744e-05
-0.015980588779337893,0.0010149091754940247,2.0928392256942592e-05
-0.016669098775741038,0.001006746753605255,2.1433806239217413e-05
-0.01734060518854803,0.0009982443276141827,2.1935054009522274e-05
-0.017993273171340373,0.0009894108580242105,2.243196780593187e-05
-0.01862527029660348,0.0009802562221572246,2.292438457597723e-05
-0.01923477705425499,0.00097079121031951,2.3412146434096415e-05
-0.01981999762238485,0.00096102751665035,2.389510111583888e-05
-0.02037917081346784,0.0009509777245413868,2.4373102426136815e-05
-0.020910581079227348,0.000940655286568213,2.4846010678914213e-05
-0.02141256943725256,0.0009300744989390931,2.531369312529104e-05
-0.02188354417184395,0.000919250470536819,2.577602436766002e-05
-0.022321991165979164,0.0009081990867023632,2.6232886756969814e-05
-0.022726483738196277,0.0008969369679763194,2.6684170770639485e-05
-0.0230956918791953,0.0008854814240719715,2.712977536865156e-05
-0.023428390799777404,0.0008738504034022283,2.7569608325520108e-05
-0.023723468713801467,0.0008620624385238336,2.8003586536001625e-05
-0.023979933794627567,0.0008501365878967263,2.8431636292606765e-05
-0.02419692026850673,0.0008380923743809427,2.8853693533176183e-05
-0.024373693639868875,0.0008259497209038489,2.9269704056997382e-05
-0.024509655068112354,0.0008137288837268535,2.9679623708155057e-05
