frame_number,force
0,494.60028000655416
1,494.66285030523295
2,494.72520411976825
3,494.78712628219824
4,494.8484042417579
5,494.9088293363236
6,494.96819802133814
7,495.02631304522686
8,495.0829845623461
9,495.13803117631596
10,495.19128090822073
11,495.2425720858224
12,495.2917541516008
13,495.338688388826
14,495.3832485657469
15,495.4253214984441
16,495.4648075331944
17,495.50162094933086
18,495.535690283267
19,495.5669585735434
20,495.5953835257716
21,495.62093759540966
22,495.64360798545084
23,495.66339655568106
24,495.6803196405908
25,495.69440777410244
26,495.7057053202909
27,495.71427000968504
28,495.7201723804261
29,495.72349512297563
30,495.7243323271899
31,495.72278863223875
32,495.7189782826975
33,495.7130240970265
34,495.7050563569749
35,495.6952116286771
36,495.68363152863725
37,495.67046144967884
38,495.6558492624661
39,495.639944007789
40,495.6228945944923
41,495.6048485180697
42,495.58595061504684
43,495.5663418678764
44,495.54615827405587
45,495.52552979173373
46,495.5045793725445
47,495.48342209126815
48,495.4621643812082
49,495.4409033833166
50,495.4197264153042
51,495.3987105641065
52,495.37792240166135
53,495.3574178207887
54,495.33724198567825
55,495.3174293902671
56,495.29800401746485
57,495.278979592324
58,495.2603599223874
59,495.2421393184035
60,495.2243030886996
61,495.20682810089573
62,495.18968340496286
63,495.1728309116625
64,495.15622612049197
65,495.1398188917501
66,495.1235542578991
67,495.1073732693851
68,495.09121386920515
69,495.0750117889609
70,495.0587014573946
71,495.04221691114117
72,495.02549269718196
73,495.00846475699745
74,494.9910712829364
75,494.97325353748107
76,494.9549566262456
77,494.93613021608616
78,494.91672919051155
79,494.8967142353171
80,494.8760523480765
81,494.8547172662837
82,494.8326898109232
83,494.80995814466104
84,494.78651794585113
85,494.7623725006216
86,494.7375327155303
87,494.71201705294203
88,494.6858513906829
89,494.65906880717733
90,494.6317092937568
91,494.60381939726193
92,494.5754517979252
93,494.5466648289912
94,494.5175219448981
95,494.48809114389564
96,494.45844434942666
97,494.42865675366056
98,494.3988061268699
99,494.3689720974354
100,494.3392354083849
101,494.3096771571451
102,494.28037802548124
103,494.2514175062868
104,494.22287313310767
105,494.1948197174904
106,494.1673285988108
107,494.14046691152754
108,494.11429687622007
109,494.0888751231723
110,494.06425205966156
111,494.040471293414
112,494.01756912451
113,493.99557411674624
114,493.97450675767993
115,493.9543792147181
116,493.935195192809
117,493.91694989759924
118,493.89963010632397
119,493.8832143471495
120,493.8676731863902
121,493.85296962233207
122,493.8390595842572
123,493.82589253502294
124,493.81341217450387
125,493.8015572392008
126,493.7902623907491
127,493.77945918342976
128,493.7690770983678
129,493.7590446298936
130,493.7492904074483
131,493.7397443345336
132,493.7303387249165
133,493.72100941580646
134,493.7116968379177
135,493.7023470232052
136,493.69291253271257
137,493.68335328910047
138,493.6736373004432
139,493.6637412639745
140,493.65365104154887
141,493.64336200270503
142,493.63287923501275
143,493.6222176237495
144,493.6114018042453
145,493.6004659913396
146,493.589453691553
147,493.5784173046285
148,493.5674176220127
149,493.5565232306552
150,493.5458098310002
151,493.5353594779854
152,493.5252597533525
153,493.51560287702773
154,493.50648476513294
155,493.4980040425662
156,493.49026101905565
157,493.48335663872047
158,493.477391413878
159,493.4724643539507
160,493.4686719002776
161,493.4661068778767
162,493.46485747576236
163,493.46500626798394
164,493.4666292876556
165,493.46979516541217
166,493.4745643419449
167,493.4809883620965
168,493.48910925595595
169,493.4989590106139
170,493.510559134613
171,493.523920315805
172,493.5390421728029
173,493.55591310086425
174,493.57451021457314
175,493.59479939127027
176,493.6167354199229
177,493.64026225952887
178,493.66531340932494
179,493.6918123906547
180,493.71967333801695
181,493.7488016948101
182,493.77909500732176
183,493.8104438081687
184,493.8427325776706
185,493.87584076900526
186,493.9096438809588
187,493.9440145610264
188,493.97882372169374
189,494.0139416537508
190,494.04923912189366
191,494.0845884291363
192,494.11986443761595
193,494.1549455346504
194,494.18971453472903
195,494.22405951021676
196,494.25787454532747
197,494.2910604092727
198,494.323525145924
199,494.35518457922285
200,494.3859627354434
201,494.41579218423317
202,494.44461429964446
203,494.47237944080945
204,494.49904705056235
205,494.5245856696094
206,494.5489728636165
207,494.57219506081583
208,494.5942472987763
209,494.6151328809957
210,494.63486294659253
211,494.6534559589119
212,494.6709371206751
213,494.6873377242869
214,494.7026944468166
215,494.71704860083656
216,494.73044535454164
217,494.7429329361471
218,494.75456183747366
219,494.7653840300417
220,494.77545220493084
221,494.78481904605326
222,494.7935365456825
223,494.8016553708848
224,494.8092242890767
225,494.81628965928473
226,494.82289499290147
227,494.82908058514005
228,494.8348832169126
229,494.84033592611655
230,494.8454678466415
231,494.8503041128403
232,494.8548658270149
233,494.85917008749595
234,494.8632300747369
235,494.86705519235517
236,494.87065125937494
237,494.87402074902127
238,494.8771630679974
239,494.88007486845333
240,494.8827503836239
241,494.88518177782765
242,494.88735950186435
243,494.8892726453959
244,494.89090927859667
245,494.892256776265
246,494.8933021186691
247,494.8940321645998
248,494.8944338934473
249,494.89449461465955
250,494.89420214463183
251,494.8935449524987
252,494.89251227701436
253,494.8910942168171
254,494.889281796487
255,494.88706701118355
256,494.8844428528903
257,494.8814033209807
258,494.87794341914116
259,494.8740591401762
260,494.86974744003726
261,494.86500620239684
262,494.85983419527025
263,494.85423102188804
264,494.84819706933075
265,494.8417334597246
266,494.8348420089683
267,494.8275251965586
268,494.81978614793616
269,494.81162862911486
270,494.80305705248
271,494.79407649200033
272,494.78469270554297
273,494.77491216211945
274,494.76474207311503
275,494.75419042825456
276,494.7432660382723
277,494.7319785865605
278,494.7203386916642
279,494.7083579818157
280,494.6960491821051
281,494.68342621430156
282,494.67050430873843
283,494.65730012739067
284,494.6438318974544
285,494.63011955479624
286,494.61618489585436
287,494.6020517351206
288,494.5877460640245
289,494.5732962061577
290,494.5587329627541
291,494.54408974077836
292,494.529402654408
293,494.5147105901598
294,494.5000552269924
295,494.4854810050966
296,494.4710350397737
297,494.45676697911057
298,494.4427288061359
299,494.4289745880792
300,494.4155601769646
301,494.4025428664691
302,494.3899810097895
303,494.3779336031555
304,494.3664598405007
305,494.35561864642756
306,494.34546819573006
307,494.3360654275284
308,494.32746556092263
309,494.3197216180808
310,494.3128839604673
311,494.3069998441597
312,494.3021130002357
313,494.29826324566574
314,494.29548612900106
315,494.29381261376307
316,494.2932688014319
317,494.29387569545673
318,494.29564900725165
319,494.29859900438595
320,494.3027304005469
321,494.30804228686014
322,494.3145281046081
323,494.32217565975316
324,494.33096717964577
325,494.34087941196606
326,494.3518837655108
327,494.363946492024
328,494.3770289077597
329,494.3910876525631
330,494.406074982895
331,494.42193909392154
332,494.43862446537327
333,494.45607222689193
334,494.47422054080204
335,494.49300500245846
336,494.5123590589172
337,494.532214445101
338,494.5525016340216
339,494.5731502954885
340,494.59408975662245
341,494.6152494571462
342,494.6365593924985
343,494.65795053796813
344,494.679355246959
345,494.70070761628955
346,494.7219438116881
347,494.7430023478464
348,494.76382431940493
349,494.7843535815007
350,494.80453688050966
351,494.8243239372097
352,494.84366748588633
353,494.8625232740317
354,494.88085002812466
355,494.89860939131046
356,494.9157658387966
357,494.9322865768953
358,494.9481414318423
359,494.96330273417595
360,494.97774520327937
361,494.99144583520206
362,495.0043837958322
363,495.0165403210747
364,495.02789862559763
365,495.03844382155535
366,495.04816284835016
367,495.05704441406203
368,495.06507894852507
369,495.07225856679287
370,495.078577039775
371,495.0840297664579
372,495.08861373995234
373,495.09232749860274
374,495.0951710545913
375,495.09714579588524
376,495.09825436146906
377,495.09850049293635
378,495.0978888673912
379,495.0964249178324
380,495.094114648104
381,495.0909644498949
382,495.08698092883714
383,495.0821707453069
384,495.07654047335114
385,495.0700964789372
386,495.0628448170682
387,495.0547911464883
388,495.04594066074424
389,495.03629803509773
390,495.02586738961617
391,495.0146522689833
392,495.00265563879327
393,494.98987989665244
394,494.97632689530377
395,494.96199797512713
396,494.94689400468076
397,494.93101542923216
398,494.9143623273739
399,494.89693447493823
400,494.878731414579
401,494.85975252935265
402,494.83999711924946
403,494.81946448031255
404,494.79815398633536
405,494.77606517310323
406,494.753197824864
407,494.7295520623047
408,494.70512843079615
409,494.67992798708286
410,494.6539523821423
411,494.6272039380003
412,494.5996857171559
413,494.57140158466586
414,494.5423562639853
415,494.5125553876184
416,494.4820055428369
417,494.4507143122908
418,494.4186903098731
419,494.3859432131948
420,494.3524837946846
421,494.31832395357003
422,494.2834767512392
423,494.247956452841
424,494.2117785781535
425,494.17495996442335
426,494.1375188429024
427,494.0994749291091
428,494.0608495244975
429,494.0216656247014
430,493.98194802751146
431,493.94172343273226
432,493.9010205261858
433,493.8598700413764
434,493.8183047945759
435,493.7763596916518
436,493.73407170663324
437,493.69147983207125
438,493.64862500023924
439,493.605549973163
440,493.5622991986836
441,493.5189186292067
442,493.4754554999816
443,493.4319580653517
444,493.3884752942776
445,493.345056529642
446,493.3017511185887
447,493.2586080230447
448,493.2156754204484
449,493.17300030440697
450,493.1306280937111
451,493.08860225647516
452,493.0469639547609
453,493.00575171418063
454,492.9650011228201
455,492.9247445645112
456,492.885010992881
457,492.8458257539654
458,492.8072104655938
459,492.76918296083284
460,492.7317573006589
461,492.69494385804813
462,492.65874947222915
463,492.62317766853363
464,492.58822893674653
465,492.55390105939057
466,492.5201894808793
467,492.48708770868774
468,492.4545877384528
469,492.42268049609316
470,492.391356291353
471,492.3606052782341
472,492.3304179182136
473,492.30078544175393
474,492.27170030257196
475,492.2431566179481
476,492.21515058740033
477,492.1876808813858
478,492.1607489913476
479,492.1343595325807
480,492.10852049215083
481,492.08324341529396
482,492.0585435250699
483,492.03443977143843
484,492.010954807512
485,491.988114892582
486,491.9659497235467
487,491.94449219868227
488,491.92377812045476
489,491.9038458469866
490,491.8847359039285
491,491.86649056897346
492,491.8491534399861
493,491.8327689953858
494,491.81738215300453
495,491.8030378319637
496,491.7897805214502
497,491.77765386027613
498,491.7667002312141
499,491.7569603740165
500,491.74847302080923
501,491.7412745574939
502,491.73539871508154
503,491.7308762952098
504,491.7277349337994
505,491.7259989056267
506,491.72568897098904
507,491.72682226422006
508,491.7294122226725
509,491.7334685537894
510,491.73899723697195
511,491.74600055630316
512,491.75447716016714
513,491.7644221447835
514,491.7758271604613
515,491.7886805409036
516,491.80296745600646
517,491.8186700871172
518,491.8357678215632
519,491.85423746172097
520,491.8740534437591
521,491.8951880622569
522,491.9176116984242
523,491.94129305113006
524,491.966199371124
525,491.9922966991697
526,492.01955010777647
527,492.0479239439234
528,492.0773820673372
529,492.1078880762809
530,492.1394055110492
531,492.17189802498723
532,492.20532951423723
533,492.2396642005518
534,492.27486666583434
535,492.31090184160746
536,492.3477349604503
537,492.3853314791485
538,492.4236569849934
539,492.462677097678
540,492.50235737956825
541,492.54266326642335
542,492.58356002877906
543,492.625012771573
544,492.66698647665453
545,492.709446089829
546,492.7523566513224
547,492.79568346656754
548,492.83939231313326
549,492.883449678864
550,492.92782302525086
551,492.9724810686817
552,493.0173940707295
553,493.062534127187
554,493.10787544449664
555,493.15339459214647
556,493.19907072086374
557,493.244885738678
558,493.290824439411
559,493.3368745803289
560,493.3830269074049
561,493.42927512803993
562,493.4756158323879
563,493.52204836560026
564,493.5685746543035
565,493.6151989917463
566,493.6619277875329
567,493.70876928916675
568,493.75573328294666
569,493.8028307810792
570,493.85007370113095
571,493.89747454409206
572,493.9450460783176
573,493.9928010375462
574,494.04075184131483
575,494.08891034529967
576,494.13728762759683
577,494.18589381487243
578,494.23473794987245
579,494.28382789929765
580,494.3331702987167
581,494.382770529007
582,494.4326327168496
583,494.4827597506221
584,494.53315330344833
585,494.58381385743166
586,494.63474072649853
587,494.6859320787032
588,494.73738496159336
589,494.78909533611096
590,494.8410581255238
591,494.89326728608035
592,494.94571590549657
593,494.9983963342085
594,495.0513003528322
595,495.1044193774653
596,495.15774470192173
597,495.2112677723904
598,495.26498048585626
599,495.31887550009486
600,495.3729465410985
601,495.42718869344407
602,495.4815986597207
603,495.5361749761848
604,495.59091817333496
605,495.64583087230193
606,495.70091781071005
607,495.7561857946957
608,495.8116435768173
609,495.86730166227153
610,495.92317204766937
611,495.9792678974477
612,496.03560316308597
613,496.0921921502866
614,496.14904903978277
615,496.206187368709
616,496.26361948137793
617,496.3213559604443
618,496.37940505121105
619,496.4377720925494
620,496.49645896725076
621,496.55546358307816
622,496.61477939416574
623,496.6743949712195
624,496.73429362809844
625,496.79445311141103
626,496.8548453582776
627,496.91543632525094
628,496.9761858890672
629,497.03704781810177
630,497.0979698123658
631,497.1588936094235
632,497.21975515344207
633,497.28048482438186
634,497.34100772405463
635,497.40124401574195
636,497.4611093144215
637,497.52051512511963
638,497.57936932713574
639,497.6375767017526
640,497.69503950043924
641,497.7516580492562
642,497.8073313831121
643,497.8619579011506
644,497.91543603274914
645,497.9676649031021
646,498.0185449881435
647,498.06797875013524
648,498.11587124716556
649,498.16213071167545
650,498.2066690944346
651,498.2494025709399
652,498.2902520074958
653,498.32914338486796
654,498.36600817851325
655,498.4007836956124
656,498.43341337004244
657,498.4638470169117
658,498.4920410485071
659,498.51795865359657
660,498.54156994199536
661,498.56285205619423
662,498.5817892515633
663,498.5983729459225
664,498.6126017380892
665,498.6244813938573
666,498.63402479731974
667,498.64125186570834
668,498.64618942671814
669,498.6488710580603
670,498.64933688917347
671,498.6476333645108
672,498.6438129671261
673,498.63793390102995
674,498.6300597312064
675,498.62025898106174
676,498.6086046879642
677,498.5951739181879
678,498.58004724329544
679,498.56330818114367
680,498.54504260619177
681,498.5253381353887
682,498.50428349749734
683,498.48196789494085
684,498.45848036749493
685,498.4339091661144
686,498.40834114339646
687,498.3818611655469
688,498.3545515498998
689,498.32649153214874
690,498.2977567682002
691,498.26841887646856
692,498.2385450269703
693,498.2081975834632
694,498.17743380436605
695,498.1463056076176
696,498.1148594038961
697,498.08313600145937
698,498.05117058434405
699,498.0189927641042
700,497.98662670385977
701,497.95409131215496
702,497.9214005030577
703,497.88856351824364
704,497.85558530646176
705,497.82246695545604
706,497.78920617078353
707,497.75579779496627
708,497.72223435921893
709,497.68850665884884
710,497.6546043426011
711,497.6205165060766
712,497.5862322800557
713,497.5517414056719
714,497.517034789295
715,497.48210503056293
716,497.4469469173744
717,497.4115578817708
718,497.37593841054735
719,497.3400924044652
720,497.30402748051034
721,497.2677552129787
722,497.2312913111422
723,497.1946557333477
724,497.15787273898457
725,497.12097088042805
726,497.08398293703357
727,497.04694579322955
728,497.0099002636444
729,496.97289087017265
730,496.93596557784804
731,496.8991754968414
732,496.8625745564664
733,496.8262191548472
734,496.7901677864
735,496.7544806494132
736,496.7192192375914
737,496.6844459214346
738,496.65022352656115
739,496.6166149159115
740,496.58368258162085
741,496.5514882513425
742,496.5200925134581
743,496.4895544652869
744,496.4599313873139
745,496.43127844477164
746,496.4036484165539
747,496.3770914509811
748,496.35165484827013
749,496.32738287021795
750,496.3043165780068
751,496.2824936988173
752,496.26194852140986
753,496.2427118207082
754,496.22481081168763
755,496.20826913281513
756,496.19310685851855
757,496.17934053891616
758,496.16698326356106
759,496.1560447445154
760,496.14653141314244
761,496.13844652491053
762,496.1317902671455
763,496.1265598657431
764,496.1227496880478
765,496.1203513400796
766,496.11935375664814
767,496.11974328224414
768,496.1215037389166
769,496.1246164752907
770,496.1290603894628
771,496.13481191841174
772,496.14184498792883
773,496.1501309195779
774,496.15963829409225
775,496.1703327730253
776,496.18217688202515
777,496.1951297601721
778,496.20914688104494
779,496.22417975290756
780,496.24017560731045
781,496.2570770868679
782,496.2748219438585
783,496.2933427619672
784,496.3125667140194
785,496.3324153684199
786,496.35280455579385
787,496.3736443052957
788,496.39483885777605
789,496.4162867607803
790,496.4378810482779
791,496.45950950615463
792,496.48105502282806
793,496.5023960227061
794,496.52340697853697
795,496.54395899696794
796,496.5639204698395
797,496.58315778238875
798,496.60153606942345
799,496.61892001172663
800,496.63517466632976
801,496.6501663243422
802,496.66376338812285
803,496.67583725647074
804,496.68626320370487
805,496.6949212372593
806,496.70169691905664
807,496.7064821379271
808,496.709175823084
809,496.7096845919782
810,496.7079233294778
811,496.70381569844255
812,496.69729458365623
813,496.6883024718066
814,496.67679177012843
815,496.66272506566065
816,496.6460753258818
817,496.6268260400873
818,496.60497129995093
819,496.58051581791096
820,496.55347488315016
821,496.5238742559855
822,496.49175000165616
823,496.4571482640136
824,496.42012497937003
825,496.3807455313029
826,496.33908434813054
827,496.29522444529596
828,496.24925691490023
829,496.20128036454076
830,496.1514003076185
831,496.09972850725796
832,496.0463822760759
833,495.9914837345787
834,495.93515903202194
835,495.8775375349214
836,495.8187509900065
837,495.75893267014897
838,495.6982165131282
839,495.63673626326056
840,495.57462462473825
841,495.51201243387794
842,495.4490278566481
843,495.385795618201
844,495.3224362718944
845,495.2590655157396
846,495.1957935642795
847,495.1327245835054
848,495.06995619506995
849,495.0075790535376
850,494.94567649734995
851,494.88432427164037
852,494.82359031981287
853,494.76353464097855
854,494.70420921134246
855,494.6456579685693
856,494.5879168584987
857,494.53101394344395
858,494.47496957115084
859,494.41979660367605
860,494.3655007058434
861,494.31208069288874
862,494.2595289359325
863,494.2078318222817
864,494.1569702658404
865,494.106920261434
866,494.05765347587527
867,494.00913786827965
868,493.96133833224735
869,493.9142173525106
870,493.86773566821967
871,493.82185293437294
872,493.7765283723151
873,493.73172140009797
874,493.68739223407124
875,493.64350245424635
876,493.60001552739465
877,493.55689728330236
878,493.51411634108416
879,493.47164448399303
880,493.4294569827586
881,493.3875328690033
882,493.34585516129914
883,493.3044110466456
884,493.263192019858
885,493.22219398308795
886,493.1814173076437
887,493.1408668603736
888,493.100551996992
889,493.06048652466626
890,493.02068863550113
891,492.9811808109334
892,492.94198969486314
893,492.9031459316989
894,492.86468396520576
895,492.8266417951076
