acceleration,velocity,displacement
-0.004939828330721935,0.0,0.0
-0.005859433997558728,-2.699815582070166e-06,-6.749538955175415e-10
-0.006763036503780644,-5.855433207405009e-06,-2.813766092886335e-09
-0.007649471359452513,-9.4585601732133e-06,-6.642264438040912e-09
-0.008517593080715011,-1.3500326283255181e-05,-1.2381986052158032e-08
-0.0093662773467594,-1.7971293890123786e-05,-2.0249891095502774e-08
-0.010194423190566597,-2.2861469024455284e-05,-3.045808182414754e-08
-0.011000955273150767,-2.8160313640384627e-05,-4.321352749035752e-08
-0.011784826289826288,-3.385675903112889e-05,-5.87177956582359e-08
-0.012545019541081453,-3.993922048885583e-05,-7.716679053823208e-08
-0.013280551671573717,-4.639561329201962e-05,-9.875049898345094e-08
-0.013990475552255773,-5.321337009797699e-05,-1.236527448309501e-07
-0.014673883266943747,-6.037945980277687e-05,-1.5205095230613857e-07
-0.015329909167599643,-6.788040791141272e-05,-1.8411591923468597e-07
-0.015957732970511885,-7.57023184459406e-05,-2.200116008240243e-07
-0.0165565828658207,-8.383089740502375e-05,-2.5989490478676537e-07
-0.017125738604784953,-9.225147777267516e-05,-3.039154985811901e-07
-0.017664534521819954,-0.0001009490460543264,-3.522156295379405e-07
-0.018172362449841734,-0.00010990827029724182,-4.0492995862583254e-07
-0.018648674499113258,-0.00011911352953448056,-4.6218540858376315e-07
-0.01909298568488939,-0.00012854894458048122,-5.241010271125036e-07
-0.019504876398008953,-0.0001381984101012058,-5.907878657829253e-07
-0.01988399471040856,-0.00014804562787831019,-6.623488752778043e-07
-0.020230058497629756,-0.00015807414118031976,-7.388788175424618e-07
-0.020542857348223916,-0.00016826737014178318,-8.204641953729875e-07
-0.020822254219061878,-0.00017860864803360464,-9.071831999168345e-07
-0.02106818678896773,-0.00018908125828561204,-9.991056764966386e-07
-0.0212806684642817,-0.0001996684720989244,-1.0962931090927729e-06
-0.02145978900249598,-0.0002103535864656188,-1.1987986237339086e-06
-0.02160571474513234,-0.0002211199624025259,-1.3066670109509447e-06
-0.021718688484198664,-0.00023195106320985864,-1.4199347673540409e-06
-0.02179902901597572,-0.00024283049258490223,-1.5386301563027312e-06
-0.021847130447777096,-0.00025374203245084046,-1.6627732875616669e-06
-0.021863461311545585,-0.00026466968039067114,-1.7923762157720447e-06
-0.02184856351004687,-0.00027559768659606926,-1.92744305751873e-06
-0.021803051091504745,-0.00028651059024645714,-2.0679701267293616e-06
-0.02172760882888209,-0.00029739325522655383,-2.213946088097614e-06
-0.021622990573251528,-0.0003082309050770872,-2.3653521281735243e-06
-0.02149001734834404,-0.00031900915705748614,-2.5221621437071677e-06
-0.021329575146757575,-0.0003297140551812615,-2.6843429467668545e-06
-0.021142612378619027,-0.00034033210206260565,-2.851854486077821e-06
-0.02093013691475376,-0.00035085028938594884,-3.02465008393996e-06
-0.020693212659682752,-0.00036125612677955795,-3.2026766879813365e-06
-0.020432955589266544,-0.0003715376688417953,-3.3858751368866746e-06
-0.02015052920203446,-0.0003816835400396205,-3.5741804391070284e-06
-0.019847139363623978,-0.00039168295718103514,-3.7675220634121925e-06
-0.01952402856100632,-0.0004015257491621927,-3.965824239997999e-06
-0.019182469615606726,-0.000411202373706346,-4.169006270715134e-06
-0.018823758927760018,-0.00042070393084218765,-4.376982846852267e-06
-0.018449209340567877,-0.0004300221729092696,-4.589664372790131e-06
-0.018060142719559105,-0.00043914951092430135,-4.806957293748524e-06
-0.017657882345955996,-0.00044807901719068013,-5.028764425777269e-06
-0.017243745220987487,-0.000456804424082416,-5.254985286095543e-06
-0.01681903438444488,-0.0004653201189837741,-5.48551642186209e-06
-0.016385031364526556,-0.0004736211354210169,-5.720251735463288e-06
-0.01594298889092812,-0.0004817031404848806,-5.959082804439763e-06
-0.015494124010478179,-0.0004895624187102322,-6.201899194238541e-06
-0.015039611739739224,-0.0004971958526477865,-6.448588762078046e-06
-0.014580579372541072,-0.0005046009004258566,-6.699037950346456e-06
-0.01411810153416333,-0.0005117755706525327,-6.953132068116054e-06
-0.013653196040070861,-0.0005187183950460913,-7.21075555954071e-06
-0.013186820580622163,-0.0005254283992012645,-7.471792258102549e-06
-0.012719870221497348,-0.0005319050719017944,-7.736125625878313e-06
-0.012253175687855097,-0.0005381483333791325,-8.003638977198545e-06
-0.011787502388379901,-0.0005441585028981912,-8.274215686267875e-06
-0.011323550128902127,-0.0005499362660275117,-8.547739378499301e-06
-0.0108619534591822,-0.0005554826419245328,-8.824094105487312e-06
-0.010403282590746278,-0.0005607989509370149,-9.1031645037027e-06
-0.009948044822269818,-0.000565886782790269,-9.384835937134521e-06
-0.009496686414368618,-0.0005707479655994286,-9.668994624231946e-06
-0.009049594865040457,-0.0005753845359192808,-9.955527749611623e-06
-0.008607101542900366,-0.000579798710021266,-1.024432356109676e-05
-0.008169484630607153,-0.0005839928565646429,-1.0535271452743237e-05
-0.0077369723177175085,-0.000587969470801724,-1.0828262034584828e-05
-0.007309746171648868,-0.0005917311504240656,-1.1123187189891275e-05
-0.006887944617487563,-0.0005952805731213498,-1.1419940120777628e-05
-0.00647166647269805,-0.0005986204758938961,-1.171841538303144e-05
-0.006060974504208924,-0.0006017536361381229,-1.2018508911039445e-05
-0.005655898989189499,-0.0006046828545114725,-1.2320118033701844e-05
-0.0052564412538510215,-0.0006074109395722326,-1.262314148222277e-05
-0.004862577138167376,-0.0006099406941702371,-1.2927479390658387e-05
-0.004474260307893114,-0.0006122749035317522,-1.3233033290083884e-05
-0.004091425328658155,-0.0006144163249408901,-1.3539706097202045e-05
-0.003713990434025459,-0.0006163676788815609,-1.3847402098157659e-05
-0.003341859950526666,-0.0006181316414776989,-1.4156026928247473e-05
-0.002974926376097135,-0.0006197108380593549,-1.4465487548131737e-05
-0.0026130721368824166,-0.0006211078376875997,-1.4775692217068476e-05
-0.0022561710668912117,-0.0006223251484885431,-1.5086550463612512e-05
-0.0019040896643083352,-0.0006233652136713431,-1.5397973054152483e-05
-0.0015566881772916456,-0.0006242304081317431,-1.5709871959603254e-05
-0.0012138215608496234,-0.0006249230355662784,-1.6022160320527758e-05
-0.0008753403286326889,-0.000625445326038649,-1.6334752410928988e-05
-0.0005410913086701982,-0.0006257994339479747,-1.6647563600925646e-05
-0.0002109183065274101,-0.0006259874363517741,-1.6960510318500582e-05
0.0001153373187015233,-0.0006260113315987306,-1.727351001048821e-05
0.0004378361549471641,-0.0006258730382303184,-1.758648110294547e-05
0.0007567402971113224,-0.0006255743941173038,-1.7899342961032375e-05
0.0010722129429515,-0.0006251171558072881,-1.8212015848513522e-05
0.0013844179964227073,-0.0006245029980724445,-1.8524420886983456e-05
0.0016935196455167138,-0.0006237335136619597,-1.8836480014917057e-05
0.0019996818793080705,-0.0006228102132807534,-1.9148115946652734e-05
0.002303067915959756,-0.0006217345258319365,-1.9459252131430908e-05
0.002603839535205051,-0.0006205077989691453,-1.9769812712631178e-05
0.002902156338516391,-0.0006191313000007149,-2.0079722487373644e-05
0.0031981749808963713,-0.0006176062171708617,-2.0388906866666538e-05
0.003492048417746865,-0.000615933661321201,-2.0697291836289552e-05
0.003783925192580212,-0.0006141146679186192,-2.1004803918599507e-05
0.00407394877185671,-0.00061215019942751,-2.131137013543604e-05
0.004362256923702825,-0.0006100411480036201,-2.1616917972293822e-05
0.004648981135668202,-0.0006077883384887773,-2.192137534391692e-05
0.004934246064140329,-0.0006053925316888252,-2.222467056146132e-05
0.005218169001031121,-0.0006028544279225324,-2.252673230136416e-05
0.005500859334907431,-0.0006001746708385478,-2.282748957605443e-05
0.005782417977689744,-0.0005973538515103984,-2.3126871706641666e-05
0.006062936725986449,-0.0005943925128344794,-2.3424808297727885e-05
0.0063424975282144,-0.0005912911542709292,-2.3721229214504238e-05
0.006621171633224577,-0.0005880502369805695,-2.4016064562317113e-05
0.006899018602354971,-0.0005846701894216747,-2.4309244668917675e-05
0.007176085177570024,-0.0005811514134766934,-2.4600700069642266e-05
0.007452404017830321,-0.0005774942911778433,-2.48903614958059e-05
0.007727992343353693,-0.0005736991920875474,-2.5178159866622248e-05
0.008002850552467793,-0.000569766481363592,-2.546402628498503e-05
0.008276960884772127,-0.000565696528504282,-2.5747892037451998e-05
0.008550286193184266,-0.0005614897167347929,-2.6029688598761766e-05
0.008822768868257754,-0.0005571464529694324,-2.630934764118782e-05
0.009094329948041241,-0.0005526671782653576,-2.658680104899652e-05
0.009364868453970878,-0.0005480523786648546,-2.686198093822907e-05
0.009634261010598739,-0.0005433025962987122,-2.713481968196996e-05
0.009902361821451666,-0.0005384184405906996,-2.7405249941192315e-05
0.010169003076975859,-0.0005334005993660927,-2.7673204701181513e-05
0.010433995859187953,-0.0005282498496320517,-2.7938617313431048e-05
0.010697131577469042,-0.0005229670677728875,-2.8201421542782282e-05
0.010958183923969397,-0.0005175532388975279,-2.8461551619449887e-05
0.011216911288515279,-0.0005120094650944067,-2.871894229544787e-05
0.011473059539082594,-0.0005063369723875072,-2.8973528904818348e-05
0.011726365066306378,-0.00050053711623616,-2.9225247426974263e-05
0.01197655800683342,-0.0004946113854678751,-2.947403455240027e-05
0.01222336558496908,-0.0004885614045699245,-2.971982774990972e-05
0.012466515530663769,-0.00048238893429101634,-2.9962565334624954e-05
0.012705739541489066,-0.00047609587052297814,-3.0202186535828454e-05
0.012940776757827989,-0.00046968424144814885,-3.0438631563821235e-05
0.013171377210860558,-0.0004631562029559767,-3.067184167492227e-05
0.013397305182145346,-0.00045651403235772526,-3.090175923375069e-05
0.013618342391373366,-0.0004497601204643456,-3.112832777195621e-05
0.013834290919169753,-0.0004428969621367098,-3.135149204260647e-05
0.014044975781395089,-0.0004359271454615686,-3.157119806950604e-05
0.014250247095292106,-0.0004288533397423968,-3.1787393190807034e-05
0.014449981804909896,-0.0004216782825173463,-3.200002609637197e-05
0.014644084957053726,-0.0004144047658268554,-3.220904685845802e-05
0.014832490538662613,-0.0004070356219529263,-3.241440695540297e-05
0.015015161899886496,-0.00039957370884328904,-3.261605928810202e-05
0.01519209179192855,-0.00039202189542033526,-3.281395818916793e-05
0.015363302049715526,-0.00038438304695992425,-3.3008059424762996e-05
0.015528842955281126,-0.00037666001070867506,-3.3198320189180145e-05
0.015688792329853797,-0.00036885560188739135,-3.338469909232916e-05
0.015843254414597295,-0.00036097259020127857,-3.356715614035133e-05
0.015992358604634122,-0.00035301368694647074,-3.374565270963827e-05
0.016136258097322345,-0.00034498153277098164,-3.392015151456763e-05
0.01627512850807509,-0.0003368786861196323,-3.409061656929028e-05
0.016409166500254542,-0.00032870761236754987,-3.425701314391207e-05
0.01653858847072169,-0.0003204706736248058,-3.441930771541016e-05
0.01666362932889023,-0.0003121701191749028,-3.457746791361009e-05
0.016784541404933268,-0.00030380807649144694,-3.473146246252668e-05
0.016901593520546074,-0.0002953865427600771,-3.4881261117339556e-05
0.01701507024974043,-0.00028690737681750546,-3.5026834597233954e-05
0.017125271385431608,-0.00027837229140871247,-3.516815451429051e-05
0.017232511612966336,-0.000269782845659113,-3.530519329855747e-05
0.01733712037865022,-0.00026114043766120885,-3.5437924119387546e-05
0.0174394419318283,-0.0002524462970835892,-3.5566320803073747e-05
0.0175398355124365,-0.000243701477722523,-3.569035774677528e-05
0.017638675650594172,-0.00023490684993176533,-3.581000982868885e-05
0.0177363525404296,-0.00022606309288400938,-3.5925252314392794e-05
0.017833272449787434,-0.00021717068663645511,-3.603606075927291e-05
0.017929858135355258,-0.00020822990399016944,-3.614241090692956e-05
0.018026549248510857,-0.00019924080214420292,-3.6244278583463156e-05
0.0181238027328797,-0.0001902032141488553,-3.634163958753642e-05
0.018222093218506805,-0.00018111674016100867,-3.6434469576113884e-05
0.018321913402206128,-0.00017198073850583045,-3.6522743945780597e-05
0.01842377437199437,-0.00016279431656228034,-3.6606437709547625e-05
0.01852820580013942,-0.0001535563215192469,-3.6685525369068005e-05
0.01863575590753359,-0.00014426533109232863,-3.67599807822209e-05
0.018746991091453568,-0.00013491964434258184,-3.6829777026079624e-05
0.018862495101054706,-0.00012551727279445476,-3.6894886255363886e-05
0.018982867640556667,-0.00011605593210905192,-3.6955279556589765e-05
0.019108722288528994,-0.00010653303462678049,-3.7010926798273725e-05
0.019240683647593865,-9.694568314274978e-05,-3.706179647771611e-05
0.019379383677010455,-8.72906663115987e-05,-3.7107855565079695e-05
0.019525457205827372,-7.756445609088924e-05,-3.714906934568032e-05
0.019679536674208672,-6.776320762088023e-05,-3.718540126160826e-05
0.019842246199661417,-5.78827619024127e-05,-3.721681275398909e-05
0.020014195103100835,-4.791865157672214e-05,-3.724326310735887e-05
0.02019597105108404,-3.786611003817592e-05,-3.7264709297762595e-05
0.02038813297612113,-2.7720084031374624e-05,-3.728110584627998e-05
0.020591203930041137,-1.7475249804834056e-05,-3.7292404679739034e-05
0.02080566400723597,-7.1260328205147784e-06,-3.7298555000395374e-05
0.021031943449552823,3.3333690436824203e-06,-3.7299503166339584e-05
0.02127041602161552,1.3908958911474504e-05,-3.72951925843508e-05
0.021521392733236545,2.460691110018752e-05,-3.728556361684788e-05
0.02178511598500894,3.543353827974889e-05,-3.72705535045029e-05
0.0220617542164626,4.6395255830116774e-05,-3.725009630597543e-05
0.02235139713390566,5.749854366770884e-05,-3.722412285610098e-05
0.022654051583846,6.874990584714675e-05,-3.719256074372227e-05
0.022969638121902638,8.015582827358391e-05,-3.7155334310192084e-05
0.023297988310708364,9.172273488173665e-05,-3.7112364669403256e-05
0.023638842762686192,0.00010345694265008529,-3.70635697500203e-05
0.0239918499246796,0.00011536461582192674,-3.70088643604023e-05
0.024356565585233796,0.00012745171969940508,-3.6948160276521966e-05
0.024732453074768533,0.00013972397436440566,-3.688136635300601e-05
0.02511888412258322,0.00015218680866374362,-3.680838865724897e-05
0.025515140330586602,0.00016484531477703606,-3.6729130626388775e-05
0.025920415221339095,0.00017770420366501749,-3.664349324677826e-05
0.026333816817491668,0.0001907677616747252,-3.6551375255443326e-05
0.026754370712059265,0.0002040398085571129,-3.6452673362885364e-05
0.027181023595596435,0.00021752365713402684,-3.634728249646258e-05
0.027612647216765658,0.00023122207483711735,-3.6235096063469795e-05
0.028048042764898366,0.00024513724733253334,-3.611600623292738e-05
0.028485945671766787,0.0002592707444416996,-3.598990423498382e-05
0.02892503082836874,0.0002736234885667335,-3.585668067673171e-05
0.0293639181981933,0.000288195725823374,-3.571622587313418e-05
0.02980117878556659,0.00030298700006931397,-3.556843019166101e-05
0.030235340898309426,0.000317996129990283,-3.541318440914611e-05
0.03066489663918373,0.0003332211893746563,-3.525038007930488e-05
0.0310883085733643,0.0003486594906777933,-3.507990990929177e-05
0.031504016545056544,0.0003643075719573985,-3.490166814363297e-05
0.031910444646415424,0.0003801611872552665,-3.47155509538298e-05
0.03230600836301731,0.00039621530050762464,-3.452145683188908e-05
0.03268912192392799,0.00041246408307936096,-3.431928698599233e-05
0.033058205876546835,0.00042890091502947967,-3.410894573646512e-05
0.03341169489825867,0.000445518390223181,-3.389034091015196e-05
0.03374804585175803,0.0004623083254106852,-3.3663384231243494e-05
0.03406574608396949,0.0004792617733946171,-3.3427991706542166e-05
0.03436332195213242,0.0004963690404036425,-3.31840840030926e-05
0.03463934752999683,0.0005136197077741749,-3.2931586816048147e-05
0.034892453406863914,0.0005310026580083901,-3.2670431224602505e-05
0.03512133545788447,0.0005485061052245772,-3.240055403379426e-05
0.035324763448205704,0.0005661176299510997,-3.212189810000034e-05
0.035501589334892884,0.0005838242181468744,-3.1834412637975845e-05
0.035650755138196634,0.0006016123042651468,-3.153805350737284e-05
0.035771300260887526,0.0006194678181149178,-3.123278347677782e-05
0.035862368141108776,0.0006373762352154169,-3.0918572463445237e-05
0.03592321213362805,0.000655322630284101,-3.0595397747070354e-05
0.0359532005306582,0.0006732917334501726,-3.0263244156136787e-05
0.03595182065768514,0.0006912679887472584,-2.992210422558743e-05
0.035918682006088866,0.0007092356144132019,-2.9571978324797315e-05
0.035853518383365625,0.0007271786645105655,-2.9212874755066374e-05
0.03575618907113519,0.0007450810913741906,-2.8844809816095184e-05
0.03562667898452917,0.0007629268083881067,-2.846780784115461e-05
0.03546509782815892,0.0007806997525912787,-2.8081901200909763e-05
0.035271678248351805,0.0007983839466104064,-2.7687130276109342e-05
0.035046772992959475,0.0008159635594207343,-2.7283543399601557e-05
0.03479085110873862,0.0008334229654461588,-2.6871196768384834e-05
0.034504493228632,0.0008507468015305015,-2.645015432664067e-05
0.034188386023612044,0.0008679200213435624,-2.6020487620922154e-05
0.03384331591556312,0.0008849279468283563,-2.5582275628879174e-05
0.03347016216902038,0.0009017563163495021,-2.513560456308471e-05
0.033069889494442235,0.0009183913292653677,-2.4680567651680992e-05
0.03264354029316477,0.0009348196867122694,-2.4217264897686582e-05
0.03219222665451091,0.0009510286284491883,-2.3745802818896218e-05
0.0317171221950937,0.0009670059656615895,-2.3266294170368522e-05
0.03121945382498339,0.0009827401096666087,-2.277885765153647e-05
0.030700493533058672,0.0009982200965061193,-2.228361759999329e-05
0.030161550291594997,0.0010134356074622828,-2.1780703674001187e-05
0.029603962179884587,0.0010283769855801528,-2.127025052574058e-05
0.02902908881604842,0.001043035248329136,-2.0752397467263255e-05
0.028438304161215826,0.001057402096573452,-2.022728813103761e-05
0.02783298971873329,0.0010714699200434392,-1.9695070126883386e-05
0.027214528101174352,0.0010852317994984161,-1.915589469699792e-05
0.02658429689512787,0.0010986815057474916,-1.8609916370686442e-05
0.02594366273060431,0.0011118134956539247,-1.8057292620336087e-05
0.025293975464459027,0.0011246229052026906,-1.7498183520121935e-05
0.024636562415687385,0.0011371055396727273,-1.693275140890308e-05
0.02397272263813427,0.0011492578609361827,-1.6361160558750853e-05
0.023303721269966486,0.001161076971913208,-1.5783576850538505e-05
0.022630784046074676,0.0011725605982422181,-1.520016745799965e-05
0.021955092088854784,0.0011837070672759504,-1.4611100541620107e-05
0.02127777709798931,0.0011945152845726614,-1.4016544953657953e-05
0.020599917042791405,0.0012049847081078565,-1.3416669955487823e-05
0.01992253243223945,0.0012151153204766143,-1.2811644948341706e-05
0.019246583210618742,0.001224907599387329,-1.2201639218375721e-05
0.018572966306751506,0.0012343624867666716,-1.158682169683722e-05
0.017902513852946535,0.001243481356806596,-1.0967360735943904e-05
0.01723599208467029,0.0012522659832910003,-1.0343423900919504e-05
0.016574100931099303,0.0012607185065449428,-9.715177778460518e-06
0.01591747430653651,0.0012688414003543518,-9.082787801735694e-06
0.015266681108068671,0.001276637439208003,-8.446418091845104e-06
0.014622226909696985,0.0012841096662124444,-7.806231315489993e-06
0.013984556314194615,0.0012912613620184173,-7.162388558432277e-06
0.013354055883098133,0.0012980960150677406,-6.5150492141607375e-06
0.012731057521550447,0.0013046172934189028,-5.864370887039076e-06
0.012115842164301519,0.0013108290183403658,-5.210509309099259e-06
0.01150864360722974,0.0013167351397832486,-4.553618269568355e-06
0.010909652356463531,0.001322339713774172,-3.893849556179e-06
0.010319019407310592,0.0013276468817151155,-3.231352907306678e-06
0.009736859895493824,0.0013326608515408166,-2.566275973992695e-06
0.009163256574154222,0.0013373858806582286,-1.8987642909429338e-06
0.008598263069645324,0.0013418262605691784,-1.228961255636082e-06
0.008041906869752211,0.0013459863030540278,-5.570081147302805e-07
