acceleration,velocity,displacement
-0.0049398283316043476,0.0,0.0
-0.005859433999166192,-2.699815582692635e-06,-6.749538956731588e-10
-0.006763036506081961,-5.8554332090046735e-06,-2.813766093597486e-09
-0.007649471362413366,-9.458560176128506e-06,-6.642264439880781e-09
-0.008517593084301079,-1.3500326287807116e-05,-1.2381986055864687e-08
-0.009366277350945688,-1.7971293896618808e-05,-2.0249891101971167e-08
-0.01019442319533433,-2.286146903318881e-05,-3.045808183442307e-08
-0.011000955278479609,-2.8160313651642295e-05,-4.321352750563085e-08
-0.01178482629569434,-3.3856759045185784e-05,-5.871779567983787e-08
-0.012545019547462146,-3.993922050597491e-05,-7.716679056762804e-08
-0.013280551678437363,-4.639561331244978e-05,-9.875049902223421e-08
-0.013990475559571126,-5.3213370121951906e-05,-1.2365274488083462e-07
-0.014673883274677996,-6.037945983051419e-05,-1.5205095236895114e-07
-0.015329909175719978,-6.788040794311368e-05,-1.8411591931235812e-07
-0.015957732978987043,-7.570231848179043e-05,-2.2001160091858415e-07
-0.01655658287461319,-8.38308974451905e-05,-2.598949049003294e-07
-0.01712573861385573,-9.225147781730773e-05,-3.03915498715954e-07
-0.0176645345311253,-0.00010094904610355298,-3.5221562969616917e-07
-0.01817236245933637,-0.00010990827035116839,-4.049299588098495e-07
-0.018648674508741008,-0.00011911352959318774,-4.6218540879593855e-07
-0.01909298569458786,-0.00012854894464401997,-5.241010273552404e-07
-0.01950487640771263,-0.0001381984101695951,-5.907878660586442e-07
-0.019883994720051926,-0.00014804562795153622,-6.62348875588927e-07
-0.02023005850715508,-0.00015807414125833797,-7.388788178913956e-07
-0.020542857357581237,-0.00016826737022452204,-8.204641957621106e-07
-0.02082225422820902,-0.0001786086481209696,-9.071832003484836e-07
-0.021068186797870293,-0.00018908125837748942,-9.991056769730983e-07
-0.021280668472916174,-0.00019966847219518604,-1.0962931096162672e-06
-0.021459789010846636,-0.00021035358656612674,-1.1987986243065954e-06
-0.021605714753192787,-0.00022111996250713658,-1.3066670115749113e-06
-0.02171868849196251,-0.00023195106331842542,-1.4199347680313018e-06
-0.021799029023436577,-0.00024283049269727518,-1.5386301570352268e-06
-0.02184713045493013,-0.00025374203256686684,-1.6627732883512623e-06
-0.021863461318384413,-0.0002646696805101955,-1.792376216620528e-06
-0.02184856351656822,-0.00027559768671893365,-1.92744305842781e-06
-0.021803051097711575,-0.0002865105903725036,-2.0679701277006696e-06
-0.021727608834780473,-0.00029739325535562663,-2.213946089132702e-06
-0.02162299057884909,-0.000308230905209034,-2.365352129273867e-06
-0.021490017353651535,-0.00031900915719215917,-2.522162144874165e-06
-0.02132957515178886,-0.0003297140553185193,-2.684342948001835e-06
-0.02114261238339264,-0.0003403321022023147,-2.8518544873820436e-06
-0.02093013691929602,-0.00035085028952798686,-3.024650085314619e-06
-0.02069321266402621,-0.00036125612692381744,-3.2026766894275703e-06
-0.02043295559344998,-0.0003715376689881865,-3.385875138405571e-06
-0.02015052920609821,-0.00038168354018807354,-3.5741804406996363e-06
-0.019847139367609946,-0.00039168295733150055,-3.76752206507953e-06
-0.01952402856496264,-0.0004015257493146437,-3.965824241741066e-06
-0.019182469619581536,-0.00041120237386077973,-4.169006272534922e-06
-0.01882375893180302,-0.0004207039309986259,-4.3769828487497735e-06
-0.01844920934473189,-0.0004300221730677596,-4.58966437476637e-06
-0.018060142723895396,-0.0004391495110849165,-4.806957295804539e-06
-0.017657882350517403,-0.00044807901735351965,-5.0287644279141474e-06
-0.017243745225819066,-0.0004568044242476038,-5.2549852883144285e-06
-0.016819034389587033,-0.00046532011915145533,-5.485516424164194e-06
-0.01638503137001347,-0.00047362113559135544,-5.720251737849897e-06
-0.01594298889679398,-0.0004817031406580573,-5.95908280691225e-06
-0.015494124016760287,-0.0004895624188864458,-6.201899196798376e-06
-0.015039611746474897,-0.0004971958528272546,-6.448588764726801e-06
-0.014580579379761404,-0.0005046009006088137,-6.699037953085818e-06
-0.014118101541891642,-0.0005117755708392269,-6.953132070947827e-06
-0.013653196048324255,-0.0005187183952367808,-7.2107555624668295e-06
-0.013186820589409967,-0.0005254283993962144,-7.471792261125079e-06
-0.012719870230825782,-0.0005319050721012734,-7.73612562899945e-06
-0.012253175697724165,-0.0005381483335834108,-8.00363898042062e-06
-0.011787502398784937,-0.000544158503107538,-8.274215689593358e-06
-0.011323550139829138,-0.0005499362662421916,-8.547739381930791e-06
-0.010861953470606305,-0.0005554826421448005,-8.82409410902754e-06
-0.01040328260263326,-0.0005607989511631103,-9.103164507354517e-06
-0.009948044834577688,-0.0005658867830224131,-9.384835940900897e-06
-0.00949668642704294,-0.0005707479658378183,-9.668994628115956e-06
-0.00904959487801746,-0.0005753845361640834,-9.955527753616432e-06
-0.008607101556102278,-0.0005797987102726133,-1.0244323565225607e-05
-0.008169484643949981,-0.0005839928568226263,-1.0535271456999416e-05
-0.007736972331107927,-0.0005879694710663908,-1.0828262038971671e-05
-0.007309746184991993,-0.0005917311506954157,-1.1123187194412123e-05
-0.0068879446306869575,-0.0005952805733993355,-1.1419940125435811e-05
-0.006471666485652609,-0.0005986204761784204,-1.1718415387830251e-05
-0.006060974516814432,-0.0006017536364290372,-1.2018508915982116e-05
-0.005655899001346407,-0.0006046828548085774,-1.2320118038791519e-05
-0.005256441265462894,-0.0006074109398752797,-1.2623141487462482e-05
-0.00486257714913622,-0.0006099406944789294,-1.2927479396051034e-05
-0.004474260318127159,-0.0006122749038457453,-1.3233033295632204e-05
-0.004091425338068744,-0.0006144163252597943,-1.3539706102908589e-05
-0.0037139904425301587,-0.000616367679204944,-1.3847402104024773e-05
-0.003341859958047708,-0.0006181316418050884,-1.415602693427728e-05
-0.002974926382562975,-0.0006197108383902411,-1.4465487554326113e-05
-0.0026130721422324005,-0.00062110783802144,-1.4775692223429032e-05
-0.0022561710710755764,-0.0006223251488247669,-1.5086550470140584e-05
-0.0019040896672819843,-0.0006233652140093563,-1.5397973060849116e-05
-0.0015566881790234851,-0.0006242304084709327,-1.5709871966469188e-05
-0.0012138215613241175,-0.0006249230359060196,-1.6022160327563427e-05
-0.0008753403278467484,-0.0006254453263783123,-1.633475241813451e-05
-0.0005410913066316239,-0.0006257994342869318,-1.6647563608300823e-05
-0.0002109183032548934,-0.0006259874366894034,-1.6960510326044908e-05
0.00011533732318151239,-0.0006260113319344218,-1.7273510018200865e-05
0.00043783616059882107,-0.0006258730385634767,-1.758648111082534e-05
0.0007567403038848405,-0.0006255743944473558,-1.7899342969078047e-05
0.0010722129507846263,-0.0006251171561336885,-1.8212015856723308e-05
0.0013844180052407426,-0.0006245029983946821,-1.85244208953554e-05
0.0016935196552325122,-0.0006237335139795638,-1.8836480023448962e-05
0.001999681889822041,-0.0006228102135933002,-1.9148115955342178e-05
0.00230306792715986,-0.0006217345261390547,-1.9459252140275267e-05
0.0026038395469699157,-0.0006205077992705222,-1.976981272162766e-05
0.0029021563507293123,-0.0006191313002960974,-2.0079722496519316e-05
0.0031981749934484253,-0.000617606217460053,-2.0388906875958354e-05
0.0034920484305384645,-0.0006159336616040563,-2.069729184572438e-05
0.0037839252055164373,-0.0006141146681950426,-2.1004803928174154e-05
0.0040739487848488656,-0.0006121501996974513,-2.1311370145147276e-05
0.004362256936669997,-0.0006100411482670715,-2.161691798213841e-05
0.004648981148532587,-0.0006077883387457709,-2.192137535389162e-05
0.004934246076828793,-0.0006053925319394305,-2.222467057156292e-05
0.005218169013473643,-0.0006028544281668549,-2.2526732311589492e-05
0.005500859347040212,-0.0006001746710767265,-2.282748958640039e-05
0.005782417989456767,-0.0005973538517426022,-2.312687171710522e-05
0.006062936737334808,-0.0005943925130609043,-2.3424808308306096e-05
0.006342497539094303,-0.000591291154491797,-2.372122922519427e-05
0.006621171643590899,-0.0005880502371961257,-2.401606457311625e-05
0.006899018612168809,-0.0005846701896321857,-2.430924467982333e-05
0.007176085186790921,-0.0005811514136824458,-2.4600700080651987e-05
0.007452404026419376,-0.0005774942913791433,-2.4890361506917385e-05
0.007727992351272006,-0.0005736991922847204,-2.5178159877833352e-05
0.008002850559685798,-0.0005697664815569809,-2.5464026296293778e-05
0.008276960891260256,-0.0005656965286942444,-2.5747892048856585e-05
0.00855028619891918,-0.0005614897169216995,-2.602968861026057e-05
0.008822768873216109,-0.0005571464531536656,-2.6309347652779413e-05
0.009094329952201252,-0.0005526671784473112,-2.658680106067966e-05
0.009364868457316978,-0.0005480523788449317,-2.686198095000272e-05
0.009634261013115365,-0.0005433025964773237,-2.7134819693833285e-05
0.009902361823115472,-0.000538418440768266,-2.7405249953144682e-05
0.010169003077757276,-0.0005334005995430478,-2.767320471322251e-05
0.010433995859051188,-0.0005282498498088456,-2.793861732556048e-05
0.010697131576376744,-0.0005229670679499887,-2.820142155500019e-05
0.010958183921882657,-0.0005175532390754239,-2.8461551631756544e-05
0.011216911285393634,-0.0005120094652736048,-2.87189423078438e-05
0.011473059534893354,-0.0005063369725685331,-2.8973528917304335e-05
0.011726365061029306,-0.0005005371164195525,-2.9225247439551357e-05
0.011976558000459162,-0.0004946113856541804,-2.947403456506979e-05
0.012223365577500731,-0.0004885614047596905,-2.9719827762673257e-05
0.01246651552210598,-0.0004823889344847888,-2.9962565347484378e-05
0.012705739531844926,-0.00047609587072130105,-3.02021865487859e-05
0.012940776747091255,-0.000469684241651567,-3.0438631576879116e-05
0.013171377199018761,-0.00046315620316503953,-3.067184168808327e-05
0.013397305169187568,-0.00045651403257298797,-3.0901759247017776e-05
0.013618342377294918,-0.00044976012068636737,-3.112832778533261e-05
0.013834290903969051,-0.0004428969623660514,-3.135149205609572e-05
0.01404497576507833,-0.00043592714569878953,-3.1571198083111925e-05
0.0142502470778686,-0.0004288533399880528,-3.1787393204533636e-05
0.014449981786390504,-0.000421678282771988,-3.200002611022365e-05
0.014644084937452421,-0.00041440476609102726,-3.2209046872439404e-05
0.014832490518004263,-0.00040703562222716306,-3.241440696951895e-05
0.015015161878211523,-0.0003995737091281091,-3.2616059302357764e-05
0.015192091769289826,-0.00039202189571623376,-3.281395820356885e-05
0.015363302026178369,-0.0003843830472673667,-3.300805943931475e-05
0.015528842930917077,-0.00037666001102809284,-3.3198320203888615e-05
0.01568879230474218,-0.000368855602219178,-3.338469910720043e-05
0.015843254388817434,-0.00036097259054578815,-3.3567156155391676e-05
0.01599235857826689,-0.0003530136873040171,-3.374565272485413e-05
0.016136258070445515,-0.000344981533141839,-3.392015152996559e-05
0.016275128480763314,-0.0003368786865040368,-3.409061658487706e-05
0.016409166472582483,-0.00032870761276570035,-3.42570131596945e-05
0.01653858844275934,-0.0003204706740368649,-3.441930773139514e-05
0.01666362930071069,-0.0003121701196009974,-3.45774679298046e-05
0.01678454137661587,-0.00030380807693166577,-3.4731462478937765e-05
0.016901593492174814,-0.0002953865432144681,-3.48812611339743e-05
0.017015070221400863,-0.0002869073772860742,-3.502683461409944e-05
0.017125271357212406,-0.0002783722918914209,-3.516815453139381e-05
0.017232511584957724,-0.00026978284615587837,-3.5305193315905637e-05
0.017337120350945538,-0.00026114043817190255,-3.543792413698758e-05
0.01743944190452556,-0.00025244629760803476,-3.556632082093257e-05
0.01753983548563682,-0.00024370147826049417,-3.56903577648997e-05
0.017638675624397124,-0.0002349068504829857,-3.5810009847085574e-05
0.017736352514934755,-0.00022606309344815273,-3.592525233306836e-05
0.01783327242509592,-0.00021717068721314507,-3.603606077823368e-05
0.017929858111557315,-0.00020822990457898175,-3.6142410926181714e-05
0.018026549225685837,-0.00019924080274467097,-3.624427860301263e-05
0.018123802711089838,-0.00019020321476047704,-3.634163960738891e-05
0.01822209319779412,-0.00018111674078325604,-3.643446959627485e-05
0.01832191338259085,-0.0001719807391381598,-3.65227439662552e-05
0.01842377435348429,-0.000162794317204141,-3.660643773034077e-05
0.01852820578273144,-0.00015355632217008708,-3.668552539018433e-05
0.01863575589121372,-0.0001442653317516008,-3.675998080366476e-05
0.018746991076203163,-0.00013491964500974657,-3.682977704785509e-05
0.018862495086858225,-0.00012551727346898122,-3.689488627747477e-05
0.018982867627395462,-0.0001160559327904178,-3.695527957903962e-05
0.019108722276384427,-0.00010653303531447283,-3.7010926821065844e-05
0.019240683636445738,-9.694568383626528e-05,-3.706179650085353e-05
0.019379383666841683,-8.729066701044343e-05,-3.710785558856521e-05
0.019525457196627106,-7.756445679457624e-05,-3.7149069369516465e-05
0.019679536665980064,-6.776320832892445e-05,-3.718540128579734e-05
0.019842246192409176,-5.7882762614327135e-05,-3.7216812778533154e-05
0.020014195096839018,-4.7918652292015084e-05,-3.724326313225974e-05
0.020195971045829805,-3.786611075634788e-05,-3.726470932302183e-05
0.02038813297189165,-2.7720084751917512e-05,-3.72811058718989e-05
0.020591203926845797,-1.747525052723315e-05,-3.7292404705718686e-05
0.02080566400508572,-7.126033544250269e-06,-3.729855502673656e-05
0.02103194344845862,3.333368319135816e-06,-3.729950319304284e-05
0.021270416021582087,1.3908958186645992e-05,-3.7295192611416394e-05
0.02152139273425928,2.4606910375606332e-05,-3.728556364427583e-05
0.021785115987073906,3.5433537555939626e-05,-3.7270553532292946e-05
0.022061754219549635,4.639525510759551e-05,-3.725009633412706e-05
0.022351397137985268,5.749854294697923e-05,-3.7224122884613416e-05
0.022654051588871574,6.874990512869343e-05,-3.71925607725945e-05
0.022969638127815113,8.015582755786511e-05,-3.715533433942286e-05
0.023297988317440906,9.172273416917912e-05,-3.71123646989911e-05
0.023638842770162625,0.00010345694194108,-3.7063569779963534e-05
0.023991849932817527,0.00011536461511682504,-3.7008864390699055e-05
0.024356565593952367,0.0001274517189985175,-3.694816030717022e-05
0.024732453083997793,0.00013972397366800504,-3.688136638400359e-05
0.02511888413225476,0.0001521868079720682,-3.680838868859357e-05
0.02551514034063046,0.0001648453140902895,-3.672913065807798e-05
0.025920415231679077,0.0001777042029833669,-3.6643493278809565e-05
0.02633381682804224,0.00019076776099829723,-3.655137528781415e-05
0.02675437072273022,0.00020403980788599035,-3.6452673395593074e-05
0.027181023606289788,0.00021752365646824536,-3.6347282529504515e-05
0.027612647227375633,0.00023122207417666172,-3.6235096096843286e-05
0.02804804277531918,0.00024513724667733544,-3.6116006266629784e-05
0.02848594568188954,0.00025927074379163763,-3.598990426901254e-05
0.028925030838084526,0.0002736234879216311,-3.5856680711084224e-05
0.029363918207390097,0.0002881957251829998,-3.5716225907808066e-05
0.029801178794127692,0.00030298699943337925,-3.5568430226653974e-05
0.030235340906118135,0.0003179961293584407,-3.541318444445602e-05
0.030664896646126434,0.00033322118874650185,-3.525038011492978e-05
0.031088308579328948,0.0003486594900528657,-3.507990994522994e-05
0.03150401654993263,0.0003643075713351811,-3.490166817988293e-05
0.03191044465009554,0.00038016118663518816,-3.471555099039033e-05
0.03230600836540027,0.0003962152998890621,-3.452145686875927e-05
0.032689121924914154,0.0004124640824616407,-3.4319287023171596e-05
0.033058205876039665,0.00042890091441187913,-3.410894577395321e-05
0.03341169489617096,0.0004455183896049318,-3.389034094794901e-05
0.033748045848016564,0.0004623083247909787,-3.366338426935003e-05
0.034065746078515056,0.0004792617727726116,-3.342799174495913e-05
0.03436332194492289,0.0004963690397784711,-3.318408404182136e-05
0.034639347521007224,0.0005136197071449536,-3.2931586855090504e-05
0.034892453396087875,0.0005310026573742274,-3.267043126396071e-05
0.035121335445328104,0.0005485061045845814,-3.240055407347101e-05
0.03532476343388911,0.0005661176293043857,-3.212189813999877e-05
0.03550158931885015,0.0005838242174925705,-3.1834412678299526e-05
0.035650755120474296,0.0006016123036024016,-3.1538053548025784e-05
0.035771300241547684,0.0006194678174429072,-3.123278351776446e-05
0.03586236812022906,0.0006373762345333513,-3.0918572504770395e-05
0.035923212111307896,0.0006553226295912355,-3.0595397788739246e-05
0.03595320050700947,0.0006732917327458149,-3.026324419815498e-05
0.03595182063282592,0.0006912679880307737,-2.9922104267960835e-05
0.035918681980141906,0.0007092356136840156,-2.9571978367532137e-05
0.03585351835645836,0.0007271786637681656,-2.9212874798169092e-05
0.035756189043399694,0.0007450810906181302,-2.8844809859572518e-05
0.035626678956103754,0.000762926807618006,-2.8467807885013482e-05
0.035465097799186565,0.0007806997518068286,-2.8081901245157273e-05
0.035271678218981715,0.0007983839458113707,-2.7687130320752722e-05
0.035046772963345525,0.0008159635586069525,-2.728354344464814e-05
0.034790851079034686,0.0008334229646175476,-2.6871196813842016e-05
0.03450449319898573,0.0008507468006870528,-2.6450154372515865e-05
0.03418838599416488,0.0008679200204853404,-2.6020487667222768e-05
0.03384331588644871,0.0008849279459554938,-2.558227567561256e-05
0.03347016214036773,0.0009017563154621979,-2.5135604610258136e-05
0.03306988946637568,0.0009183913283638838,-2.4680567699301614e-05
0.032643540265811746,0.0009348196857969307,-2.421726494576141e-05
0.03219222662799733,0.0009510286275203829,-2.3745802867432083e-05
0.031717122169536136,0.0009670059647197663,-2.3266294219372045e-05
0.031219453800485967,0.0009827401087122718,-2.2778857701014034e-05
0.030700493509711525,0.0009982200955398212,-2.228361764995101e-05
0.030161550269475815,0.001013435606484618,-2.1780703724444902e-05
0.029603962159055516,0.001028376984591751,-2.127025057667581e-05
0.029029088796556045,0.0010430352473306539,-2.075239751869521e-05
0.028438304143091182,0.0010574020955655657,-2.0227288182971157e-05
0.027832989701996533,0.0010714699190268377,-1.9695070179323057e-05
0.02721452808584097,0.0010852317984737972,-1.91558947499479e-05
0.02658429688121026,0.00109868150471556,-1.860991642415056e-05
0.025943662718114855,0.0011118134946153913,-1.8057292674317822e-05
0.025293975453402354,0.0011246229041582706,-1.7498183574624405e-05
0.024636562406066567,0.0011371055386231379,-1.6932751463929053e-05
0.02397272262995394,0.001149257859882143,-1.6361160614302733e-05
0.023303721263232845,0.0011610769708554397,-1.5783576906618337e-05
0.022630784040801703,0.0011725605971814484,-1.5200167514609116e-05
0.021955092085061138,0.001183707066212914,-1.4611100598760526e-05
0.021277777095695206,0.0011945152835081032,-1.4016545011330272e-05
0.02059991704201396,0.0012049847070425305,-1.3416670013692614e-05
0.019922532432987996,0.001215115319411281,-1.2811645007079162e-05
0.01924658321289329,0.0012249075983227513,-1.2201639277645654e-05
0.018572966310541176,0.0012343624857036098,-1.1586821756639063e-05
0.017902513858231116,0.0012434813557458029,-1.096736079627671e-05
0.017235992091428023,0.0012522659822332177,-1.0343423961781955e-05
0.01657410093930687,0.0012607185054909014,-9.715177839850926e-06
0.015917474316170598,0.0012688413993047708,-9.082787863652008e-06
0.015266681119102864,0.0012766374381635891,-8.446418154284919e-06
0.014622226922101748,0.0012841096651738902,-7.80623137845055e-06
0.013984556327935757,0.0012912613609863996,-7.162388621910477e-06
0.013354055898127456,0.0012980960140429154,-6.515049278153148e-06
0.012731057537808866,0.0013046172924018995,-5.864370951541945e-06
0.01211584218172217,0.0013108290173317822,-5.210509374108524e-06
0.011508643625739537,0.0013167351387836476,-4.553618335079667e-06
0.010909652375976943,0.0013223397127840768,-3.893849622187736e-06
0.010319019427731195,0.0013276468807350038,-3.2313529738079657e-06
0.009736859916720528,0.0013326608505711168,-2.5662760409814357e-06
0.009163256596082827,0.0013373858796993177,-1.898764358413827e-06
0.008598263092174744,0.001341826259621382,-1.228961323583652e-06
0.00804190689278135,0.001345986302117621,-5.570081831489014e-07
