frame_number,force
0,716.4755092689622
1,716.4093425795127
2,716.3445170103436
3,716.2810755515127
4,716.219040693322
5,716.1584190029978
6,716.0992063332042
7,716.0413930289865
8,715.9849684997473
9,715.9299246899093
10,715.8762582966708
11,715.8239718922083
12,715.7730742476962
13,715.7235801068925
14,715.6755095519665
15,715.6288870854276
16,715.5837406282928
17,715.5401007041436
18,715.4980000475665
19,715.4574737307152
20,715.4185597186307
21,715.3812996542302
22,715.3457396906035
23,715.311931295052
24,715.2799320845969
25,715.2498068756321
26,715.2216292079383
27,715.1954835954488
28,715.1714686229581
29,715.1497007360343
30,715.130318211876
31,715.1134844844701
32,715.0993898876839
33,715.0882510421048
34,715.080307463096
35,715.0758153448709
36,715.0750387388537
37,715.0782384655446
38,715.0856591740675
39,715.0975150887348
40,715.1139751450435
41,715.1351483709979
42,715.1610705012419
43,715.1916928720595
44,715.2268745380188
45,715.2663782568342
46,715.3098706151634
47,715.3569262434411
48,715.4070358410748
49,715.4596175887605
50,715.5140314544353
51,715.569595900086
52,715.6256065088277
53,715.6813559844416
54,715.7361548078635
55,715.7893516443094
56,715.8403524818929
57,715.8886374983387
58,715.9337747916702
59,715.9754303533149
60,716.01337398438
61,716.0474812022156
62,716.0777314723559
63,716.10420327306
64,716.1270665577031
65,716.1465731777538
66,716.163045823001
67,716.1768660285865
68,716.1884617462221
69,716.198294853173
70,716.2068488093482
71,716.2146165571424
72,716.222088770847
73,716.2297426798552
74,716.2380317853276
75,716.2473767526404
76,716.2581575818274
77,716.2707069181062
78,716.2853042192819
79,716.3021705958681
80,716.3214644665206
81,716.3432785060432
82,716.3676384775223
83,716.3945043886326
84,716.4237741064522
85,716.4552892345432
86,716.4888427831534
87,716.5241879928126
88,716.5610476162408
89,716.5991230230258
90,716.6381026660719
91,716.6776696927296
92,716.7175086905851
93,716.7573116551249
94,716.7967832734066
95,716.8356455821298
96,716.8736420023442
97,716.9105406932838
98,716.9461371168696
99,716.9802556542685
100,717.012750084578
101,717.0435028055493
102,717.0724229088776
103,717.0994435405881
104,717.1245191895079
105,717.1476235157998
106,717.16874810162
107,717.1879022544757
108,717.2051138535119
109,717.2204311783819
110,717.2339255994547
111,717.2456948965952
112,717.2558668480849
113,717.2646026340417
114,717.2720995503851
115,717.2785925310437
116,717.2843540096271
117,717.2896917087063
118,717.2949440578744
119,717.300473159618
120,717.3066555354097
121,717.3138711769317
122,717.3224915415888
123,717.3328670237826
124,717.3453142378149
125,717.3601033621237
126,717.3774459078028
127,717.397483506917
128,717.4202785191187
129,717.4458073366316
130,717.4739571795225
131,717.5045268716275
132,717.5372316044823
133,717.5717111827166
134,717.6075408939762
135,717.6442440899752
136,717.681305775855
137,717.7181868043779
138,717.754338495228
139,717.7892176152399
140,717.8223016724592
141,717.8531043601819
142,717.8811907362671
143,717.9061914503766
144,717.9278151950305
145,717.9458586337296
146,717.960213294582
147,717.9708691868855
148,717.9779151273827
149,717.9815359437546
150,717.9820068330343
151,717.979685166685
152,717.9750000077167
153,717.968439636888
154,717.9605374936352
155,717.9518570488742
156,717.9429761629618
157,717.9344714294903
158,717.9269029152898
159,717.9207996336662
160,717.9166460428291
161,717.9148698375624
162,717.9158313009442
163,717.9198144883327
164,717.927020483625
165,717.9375628741263
166,717.9514654662571
167,717.9686621598189
168,717.988998834615
169,718.0122370709098
170,718.0380595058929
171,718.0660766157779
172,718.0958347397495
173,718.1268252781539
174,718.1584951971223
175,718.1902591614497
176,718.2215136665039
177,718.2516533607065
178,718.2800893769164
179,718.3062690884731
180,718.3296964266884
181,718.3499517353856
182,718.3667100023165
183,718.379756202973
184,718.3889965283896
185,718.3944644973134
186,718.3963213193301
187,718.3948503193897
188,718.390445732012
189,718.3835966633495
190,718.3748673890341
191,718.3648753374614
192,718.3542681179042
193,718.3437008258161
194,718.333814611926
195,718.3252171851407
196,718.3184656366379
197,718.3140518217057
198,718.3123905254893
199,718.3138106822433
200,718.3185499065494
201,718.3267524905758
202,718.3384708709889
203,718.3536704199583
204,718.3722372590693
205,718.3939886295321
206,718.4186852214148
207,718.446044801606
208,718.4757564680993
209,718.5074948731486
210,718.540933793122
211,718.5757584790289
212,718.6116763101442
213,718.6484254081367
214,718.6857810474568
215,718.7235598922583
216,718.7616222432955
217,718.7998725163217
218,718.8382580612115
219,718.8767662211932
220,718.9154193579552
221,718.9542675588319
222,718.9933789294826
223,719.0328277088969
224,719.072680821608
225,719.1129837555428
226,719.1537467278192
227,719.1949320391543
228,719.2364434479117
229,719.2781183557112
230,719.3197235318062
231,719.3609549267992
232,719.4014417811574
233,719.4407547743629
234,719.4784175599078
235,719.5139208349289
236,719.5467380827471
237,719.5763421810868
238,719.6022221096107
239,719.6238990185309
240,719.640940972091
241,719.6529758029246
242,719.6597017213577
243,719.6608955481079
244,719.6564185763987
245,719.6462200938709
246,719.630338548581
247,719.6089002753695
248,719.5821156638779
249,719.5502726962117
250,719.5137279120568
251,719.4728950333588
252,719.428231660266
253,719.3802246284818
254,719.3293747989595
255,719.2761821643556
256,719.2211320814739
257,719.1646831766192
258,719.1072572094467
259,719.0492310988758
260,718.9909313894481
261,718.9326315211175
262,718.8745522678566
263,718.8168656029719
264,718.7597019859737
265,718.7031606223621
266,718.6473217155357
267,718.5922592843511
268,718.5380529027475
269,718.4847967969762
270,718.4326051140496
271,718.3816127735337
272,718.3319719871097
273,718.2838451246047
274,718.2373950015668
275,718.1927737880545
276,718.150111609422
277,718.1095056522134
278,718.0710103427888
279,718.0346290020333
280,718.0003073042667
281,717.9679288663727
282,717.9373133353253
283,717.9082173878435
284,717.880339045026
285,717.8533255685717
286,717.8267849050468
287,717.8003002028978
288,717.773446445673
289,717.7458079065087
290,717.7169951072549
291,717.6866602730399
292,717.6545107150507
293,717.6203198975966
294,717.5839360439148
295,717.5452880994565
296,717.5043888425995
297,717.4613349629506
298,717.4163040039641
299,717.3695481864877
300,717.3213853038749
301,717.2721871026473
302,717.2223657821382
303,717.1723593636879
304,717.1226166386997
305,717.0735822561786
306,717.0256823549738
307,716.9793110694519
308,716.9348182918874
309,716.8924992082539
310,716.8525861525196
311,716.8152431159323
312,716.7805629099348
313,716.7485667519137
314,716.7192060186708
315,716.6923659760603
316,716.6678712855589
317,716.645492985819
318,716.6249565592578
319,716.6059507089026
320,716.5881365461792
321,716.5711569295562
322,716.5546456802048
323,716.5382363974713
324,716.5215706563324
325,716.5043054853709
326,716.4861201450592
327,716.4667222896338
328,716.4458535903228
329,716.4232948894393
330,716.3988709970315
331,716.3724552791768
332,716.343974125814
333,716.3134112328526
334,716.2808114876995
335,716.2462841647229
336,716.2100050641147
337,716.1722171018209
338,716.1332287383813
339,716.0934096679848
340,716.0531834386861
341,716.0130170394472
342,715.9734078177099
343,715.9348683108198
344,715.8979096952767
345,715.8630246057473
346,715.8306700585465
347,715.8012511285391
348,715.7751059023055
349,715.7524921423977
350,715.7335761023575
351,715.7184239883077
352,715.7069965953042
353,715.6991476335058
354,715.6946261896749
355,715.6930835911954
356,715.694084629254
357,715.6971227293448
358,715.7016383397378
359,715.7070395822666
360,715.7127240540424
361,715.718100587752
362,715.7226098090267
363,715.7257424669355
364,715.7270547075536
365,715.7261796987582
366,715.7228353233517
367,715.7168279889645
368,715.7080528228952
369,715.6964905688856
370,715.6822014818374
371,715.6653165591028
372,715.6460265713388
373,715.6245694876203
374,715.6012169859098
375,715.5762608298633
376,715.5499999922498
377,715.5227294482693
378,715.4947314480779
379,715.4662697770473
380,715.4375871180827
381,715.4089052923267
382,715.3804279496143
383,715.352345168427
384,715.3248393295761
385,715.2980915245289
386,715.2722876888755
387,715.2476236622824
388,715.224308480992
389,715.2025654080496
390,715.182630510597
391,715.1647489681369
392,715.1491696246826
393,715.136138470018
394,715.1258917303501
395,715.1186491079748
396,715.11460749669
397,715.113935298452
398,715.1167673418587
399,715.1232003607644
400,715.1332890013637
401,715.1470423466754
402,715.1644209401585
403,715.1853342587509
404,715.2096385838632
405,715.2371352921712
406,715.2675697241183
407,715.3006309388766
408,715.3359527838526
409,715.3731167405067
410,715.4116569002557
411,715.4510671897717
412,715.4908107108783
413,715.530330880805
414,715.5690639503961
415,715.606452382644
416,715.6419584758481
417,715.675077580596
418,715.7053503651513
419,715.7323738014262
420,715.7558107202647
421,715.7753977842449
422,715.790951590753
423,715.8023725335578
424,715.8096461348615
425,715.8128417543815
426,715.8121087840474
427,715.8076706180364
428,715.7998168373572
429,715.7888941118176
430,715.7752962617493
431,715.7594537773516
432,715.7418229683956
433,715.7228749016809
434,715.7030843608205
435,715.682919122714
436,715.6628298260813
437,715.6432406468336
438,715.6245409265805
439,715.6070778180183
440,715.5911499430821
441,715.5770020760128
442,715.5648209866763
443,715.5547327313731
444,715.5468017258734
445,715.5410318183247
446,715.5373693873316
447,715.5357083501931
448,715.5358968733835
449,715.5377454327332
450,715.5410356814533
451,715.5455295088389
452,715.550977831875
453,715.5571289878013
454,715.5637368914114
455,715.5705692121202
456,715.5774156686431
457,715.584096248714
458,715.5904689120737
459,715.596436202488
460,715.6019501405763
461,715.6070147609055
462,715.6116857117837
463,715.6160664751942
464,715.6203010014365
465,715.6245629119155
466,715.6290418961152
467,715.6339284035189
468,715.6393980150107
469,715.6455968690016
470,715.6526293197716
471,715.6605487742289
472,715.6693523881626
473,715.678979924238
474,715.6893166287496
475,715.700199627731
476,715.7114271437255
477,715.7227697305525
478,715.7339826644364
479,715.7448186487618
480,715.7550401230606
481,715.7644306720313
482,715.7728052080814
483,715.7800186897089
484,715.7859731709235
485,715.7906230283818
486,715.793978297532
487,715.7961061017303
488,715.7971301254648
489,715.7972280029605
490,715.796626465052
491,715.7955941686929
492,715.7944322856138
493,715.7934630604294
494,715.7930166341823
495,715.793416542252
496,715.7949645239365
497,715.7979255941613
498,715.8025145740434
499,715.8088853045413
500,715.8171235230631
501,715.8272439389712
502,715.8391915588387
503,715.8528469254769
504,715.8680346818012
505,715.8845347068317
506,715.9020949499053
507,715.9204449951558
508,715.9393093257389
509,715.9584192549969
510,715.977522601637
511,715.9963904220879
512,716.0148204107139
513,716.0326368625463
514,716.0496873657283
515,716.0658367037156
516,716.0809588004781
517,716.0949278532623
518,716.107609963548
519,716.1188565266859
520,716.1285003574403
521,716.1363550719119
522,716.1422177357255
523,716.1458743412006
524,716.1471073686615
525,716.1457045490093
526,716.1414679679064
527,716.1342228182606
528,716.1238253854467
529,716.1101701521455
530,716.093196126311
531,716.0728925668394
532,716.0493041972783
533,716.0225357896918
534,715.9927557655016
535,715.9601982975488
536,715.9251633232394
537,715.8880138857935
538,715.8491703593592
539,715.8091014052666
540,715.7683118715163
541,715.7273281878867
542,715.6866820691703
543,715.6468934792136
544,715.6084538115135
545,715.5718101365192
546,715.5373512081173
547,715.5053957817953
548,715.4761837320079
549,715.4498704543055
550,715.4265250172527
551,715.4061324161535
552,715.3886000473994
553,715.3737681676378
554,715.3614236770428
555,715.35131620453
556,715.3431752904016
557,715.3367274428919
558,715.3317119182024
559,715.3278942399053
560,715.3250767632233
561,715.3231059639911
562,715.3218765019487
563,715.3213323854955
564,715.3214656797085
565,715.3223131481697
566,715.3239511007845
567,715.3264886579843
568,715.330059683737
569,715.3348137463673
570,715.3409065758586
571,715.3484905770788
572,715.3577060224
573,715.3686735213836
574,715.381488180071
575,715.3962155578336
576,715.4128892277206
577,715.4315095380376
578,715.4520431096823
579,715.4744227150475
580,715.4985474190566
581,715.5242830962321
582,715.5514635909442
583,715.5798928650511
584,715.6093484781278
585,715.6395866529623
586,715.6703490384227
587,715.7013711758732
588,715.7323925888527
589,715.7631682389747
590,715.7934807940578
591,715.8231528524459
592,715.8520580830528
593,715.8801302066236
594,715.907368858862
595,715.9338416615019
596,715.9596822837515
597,715.9850848049157
598,716.0102951029303
599,716.0356001641545
600,716.0613161635478
601,716.0877760003185
602,716.1153167654152
603,716.1442674291261
604,716.1749369421162
605,716.2076029622921
606,716.2425014951648
607,716.2798177865205
608,716.3196787907569
609,716.3621474599612
610,716.4072189903263
611,716.4548190760324
612,716.5048042016334
613,716.5569640379572
614,716.6110260232764
615,716.6666621655694
616,716.7234980061286
617,716.781123554406
618,716.8391058320466
619,716.8970024847023
620,716.9543758314163
621,717.0108067932927
622,717.0659083248437
623,717.1193381210026
624,717.1708103949339
625,717.2201064623245
626,717.2670838248034
627,717.3116834117917
628,717.3539345439242
629,717.3939570573169
630,717.431960021944
631,717.4682366915144
632,717.503155688787
633,717.5371488107595
634,717.570696075341
635,717.6043086730266
636,717.638510424784
637,717.6738183170858
638,717.710722758607
639,717.7496683597119
640,717.7910361863703
641,717.8351284904841
642,717.8821568343186
643,717.9322343178047
644,717.9853722881454
645,718.0414814944347
646,718.1003772628438
647,718.1617880352217
648,718.2253665386772
649,718.2907028381046
650,718.3573385180167
651,718.4247812852428
652,718.492519398651
653,718.5600354660552
654,718.6268192614798
655,718.6923793005013
656,718.7562529457593
657,718.8180147741786
658,718.8772828507946
659,718.933722515554
660,718.9870474022375
661,719.0370177091667
662,719.0834361603454
663,719.1261424688317
664,719.1650072736866
665,719.1999264442574
666,719.2308164651171
667,719.2576114444491
668,719.2802621038358
669,719.2987368521701
670,719.3130247576021
671,719.3231400013916
672,719.3291272757762
673,719.3310675554824
674,719.3290836705099
675,719.3233450820609
676,719.3140712161867
677,719.3015327107136
678,719.2860500573173
679,719.2679893813335
680,719.247755421981
681,719.2257820346899
682,719.2025206301729
683,719.1784268960477
684,719.1539460832691
685,719.1294972692607
686,719.1054573138682
687,719.0821454974431
688,719.0598099277473
689,719.0386167371707
690,719.0186429008273
691,718.9998731955055
692,718.9822014558991
693,718.9654359732573
694,718.949308637957
695,718.9334872114197
696,718.9175899682451
697,718.9012019542137
698,718.8838922018941
699,718.8652312709225
700,718.8448083748664
701,718.8222472374433
702,718.797219840623
703,718.7694574186726
704,718.7387583256801
705,718.7049926700894
706,718.6681038565941
707,718.6281074054488
708,718.5850875714108
709,718.5391922955954
710,718.4906269193399
711,718.4396469410391
712,718.3865499371876
713,718.3316666337768
714,718.2753510968539
715,718.2179701607658
716,718.1598924423496
717,718.1014774794177
718,718.0430656507446
719,717.9849695818302
720,717.9274676754195
721,717.870800209559
722,717.8151681717876
723,717.7607347246418
724,717.707628985018
725,717.65595166358
726,717.605782008354
727,717.557185391998
728,717.5102208144261
729,717.4649476313573
730,717.4214309795809
731,717.379745607702
732,717.3399780681162
733,717.3022274103323
734,717.266604601234
735,717.233230908354
736,717.2022354666582
737,717.1737522295159
738,717.1479164770633
739,717.1248610317662
740,717.1047123387519
741,717.0875866065095
742,717.0735862242302
743,717.0627966227138
744,717.0552836443985
745,717.0510914305457
746,717.0502408793045
747,717.0527288170765
748,717.0585280443962
749,717.0675883048478
750,717.0798380089881
751,717.0951863271315
752,717.1135251644946
753,717.1347306133233
754,717.1586637177389
755,717.1851706989577
756,717.2140830474104
757,717.2452179775862
758,717.2783796085315
759,717.3133609370209
760,717.3499463678048
761,717.3879144107309
762,717.4270401929589
763,717.4670975898399
764,717.5078609367375
765,717.549106384113
766,717.5906130146825
767,717.6321638932841
768,717.6735472554088
769,717.7145580076686
770,717.7549996139763
771,717.7946863545397
772,717.8334459241482
773,717.8711223180482
774,717.9075788402151
775,717.9427008888263
776,717.976398073361
777,718.0086052853966
778,718.03928252237
779,718.0684134361766
780,718.0960027070493
781,718.1220724821302
782,718.1466583156569
783,718.1698052604097
784,718.1915648772435
785,718.2119938582898
786,718.2311547008925
787,718.2491185254329
788,718.2659697999012
789,718.2818124241414
790,718.2967763302335
791,718.3110235615196
792,718.3247528131997
793,718.3382016434782
794,718.3516458778948
795,718.3653960305322
796,718.3797908341373
797,718.3951882142012
798,718.4119542268588
799,718.4304505595323
800,718.4510211839836
801,718.4739787224368
802,718.4995910688078
803,718.5280687812315
804,718.5595537190444
805,718.594109344511
806,718.6317130632674
807,718.6722509670467
808,718.7155153773828
809,718.7612056240323
810,718.8089324529678
811,718.8582262981089
812,718.9085493761712
813,718.9593112261623
814,719.0098869579235
815,719.0596371348419
816,719.1079279986909
817,719.1541507765544
818,719.1977390682315
819,719.2381836298867
820,719.2750441381256
821,719.3079577625169
822,719.3366446235522
823,719.3609104143251
824,719.3806465404738
825,719.3958280710347
826,719.406509647692
827,719.4128193453819
828,719.4149503859347
829,719.4131506416597
830,719.4077100469689
831,719.3989463078847
832,719.3871895476094
833,719.3727666523753
834,719.3559860775864
835,719.3371238083173
836,719.3164110961662
837,719.2940245236904
838,719.2700788767997
839,719.2446232384476
840,719.2176406510187
841,719.1890516281401
842,719.1587217143766
843,719.1264731413478
844,719.0921003520033
845,719.0553887482776
846,719.0161355184308
847,718.9741709559423
848,718.9293784863572
849,718.8817118035363
850,718.831208003113
851,718.7779961306717
852,718.7223009210477
853,718.6644416814453
854,718.6048263990474
855,718.5439413561468
856,718.4823368273347
857,718.4206097278733
858,718.359384251443
859,718.2992914903709
860,718.2409488204412
861,718.1849396308818
862,718.1317939157295
863,718.0819702724825
864,718.0358398567287
865,717.9936727737896
866,717.9556273182687
867,717.9217424781019
868,717.8919341668071
869,717.8659955961442
870,717.8436019501935
871,717.824319129281
872,717.8076159836303
873,717.7928792971923
874,717.7794308039687
875,717.7665456422953
876,717.7534718174085
877,717.7394503660612
878,717.7237359030225
879,717.7056170901244
880,717.68443642757
881,717.6596087294895
882,717.6306377143649
883,717.5971302239946
884,717.5588075765231
885,717.5155134599569
886,717.4672177127136
887,717.4140154533139
888,717.3561213235956
889,717.2938589971174
890,717.2276464719985
891,717.1579779517422
892,717.085403279712
893,717.010505961137
894,716.9338808853679
895,716.8561129883799
896,716.7777581574695
897,716.6993275556242
898,716.6212762328307
899,716.543996456489
900,716.4678156999996
901,716.3929987916845
902,716.3197534800944
903,716.2482386640801
904,716.1785746849439
905,716.1108552183711
906,716.0451602732164
907,715.9815695630673
908,715.920175213218
909,715.861092613047
910,715.8044683046936
911,715.7504840607495
912,715.6993566941999
913,715.6513336314573
914,715.6066847676785
915,715.5656914752242
916,715.5286337902264
917,715.4957767906832
