frame_number,force
0,716.453643007998
1,716.3860062256749
2,716.3194148949574
3,716.2539533593482
4,716.1897057958479
5,716.126756139474
6,716.0651879975937
7,716.005084542865
8,715.9465283737754
9,715.8896013349065
10,715.834384294791
11,715.7809568848865
12,715.7293972058942
13,715.6797815070469
14,715.6321838424208
15,715.5866757082792
16,715.543325667076
17,715.5021989652512
18,715.4633571516878
19,715.4268577014357
20,715.3927536463593
21,715.3610932126902
22,715.3319194659807
23,715.3052699660257
24,715.281176436855
25,715.2596644591835
26,715.2407531941478
27,715.2244551470679
28,715.2107759776151
29,715.1997143579389
30,715.1912618738702
31,715.1854029586132
32,715.1821148461538
33,715.1813675341232
34,715.1831237516161
35,715.187338933604
36,715.1939612076576
37,715.2029314002046
38,715.2141830701872
39,715.2276425794515
40,715.243229211285
41,715.2608553503968
42,715.2804267391086
43,715.3018428247419
44,715.3249972104715
45,715.3497782159444
46,715.3760695466436
47,715.403751064572
48,715.4326996482323
49,715.4627901268058
50,715.4938962717791
51,715.5258918289841
52,715.5586515740664
53,715.5920523732082
54,715.625974228121
55,715.6603012812715
56,715.6949227557573
57,715.7297338051086
58,715.7646362514462
59,715.7995391955146
60,715.8343594887018
61,715.8690220642536
62,715.9034601310352
63,715.9376152373472
64,715.971437214479
65,716.0048840107924
66,716.0379214281513
67,716.0705227734667
68,716.1026684382185
69,716.1343454175696
70,716.1655467786312
71,716.1962710861061
72,716.2265217943062
73,716.2563066170165
74,716.2856368886197
75,716.3145269293651
76,716.3429934244834
77,716.3710548224699
78,716.3987307550092
79,716.4260414823171
80,716.4530073728588
81,716.4796484316206
82,716.5059838923854
83,716.5320318860041
84,716.5578091904489
85,716.5833310617547
86,716.6086111392793
87,716.6336614148291
88,716.6584922533602
89,716.6831124531757
90,716.7075293358231
91,716.7317488594598
92,716.755775752448
93,716.7796136650996
94,716.8032653371578
95,716.8267327776233
96,716.8500174522969
97,716.8731204732109
98,716.8960427831887
99,716.9187853279451
100,716.941349207738
101,716.963735802051
102,716.9859468651833
103,717.0079845965943
104,717.0298516940358
105,717.0515513974791
106,717.0730875283701
107,717.0944645249339
108,717.1156874723996
109,717.136762126756
110,717.1576949301975
111,717.1784930150737
112,717.1991641915308
113,717.2197169128694
114,717.240160212292
115,717.2605036051747
116,717.2807569519523
117,717.300930277993
118,717.3210335490228
119,717.3410764045979
120,717.3610678576334
121,717.3810159730546
122,717.4009275404641
123,717.4208077535731
124,717.4406599053575
125,717.4604851059612
126,717.4802820318433
127,717.5000467181786
128,717.5197724094616
129,717.5394494840501
130,717.5590654661786
131,717.5786051330226
132,717.5980507152951
133,717.6173821802424
134,717.6365775792224
135,717.6556134405819
136,717.6744651918524
137,717.6931076002379
138,717.7115152241065
139,717.7296628701504
140,717.7475260512247
141,717.7650814379897
142,717.7823072933621
143,717.7991838743835
144,717.8156937841991
145,717.8318222587616
146,717.8475573776324
147,717.8628901936551
148,717.8778147810139
149,717.8923282050923
150,717.9064304202003
151,717.9201241021748
152,717.9334144230409
153,717.9463087760446
154,717.9588164617569
155,717.9709483482834
156,717.9827165195123
157,717.9941339245518
158,718.0052140399321
159,718.0159705547393
160,718.0264170877979
161,718.0365669452158
162,718.0464329260778
163,718.0560271835544
164,718.0653611474202
165,718.0744455115515
166,718.0832902869555
167,718.0919049181741
168,718.1002984588952
169,718.1084798011582
170,718.1164579513529
171,718.1242423451996
172,718.1318431936495
173,718.1392718530645
174,718.1465412160339
175,718.1536661221382
176,718.1606637886014
177,718.1675542575512
178,718.1743608501492
179,718.1811106110333
180,718.1878347220195
181,718.1945688617313
182,718.2013534861287
183,718.2082340038866
184,718.2152608221255
185,718.2224892430072
186,718.2299791991951
187,718.2377948250682
188,718.2460038704232
189,718.2546769730982
190,718.2638868145075
191,718.2737071862778
192,718.2842119972811
193,718.295474248971
194,718.3075650033386
195,718.3205523628511
196,718.3345004772389
197,718.3494685896698
198,718.3655101348453
199,718.3826719023484
200,718.4009932782825
201,718.420505576187
202,718.4412314652393
203,718.4631845006984
204,718.4863687582871
205,718.510778570706
206,718.5363983615176
207,718.5632025698267
208,718.5911556582265
209,718.6202121959864
210,718.6503170093032
211,718.6814053906605
212,718.7134033601321
213,718.7462279730918
214,718.7797876712003
215,718.813982676251
216,718.8487054284698
217,718.8838410708862
218,718.9192679788019
219,718.954858329104
220,718.9904787005529
221,719.0259906954516
222,719.0612515758475
223,719.096114912748
224,719.1304312529668
225,719.164048812537
226,719.1968142064846
227,719.2285732232599
228,719.25917165053
229,719.2884561580241
230,719.3162752417101
231,719.3424802302738
232,719.3669263486851
233,719.3894738255126
234,719.4099890236657
235,719.4283455709202
236,719.4444254666367
237,719.4581201423772
238,719.4693314552904
239,719.4779725941963
240,719.4839688798785
241,719.4872584440102
242,719.4877927756542
243,719.485537129159
244,719.4804707907085
245,719.4725872022866
246,719.4618939421265
247,719.4484125606646
248,719.4321782715458
249,719.4132394991755
250,719.3916572876825
251,719.3675045802571
252,719.3408653819483
253,719.3118338230272
254,719.2805131439848
255,719.2470146259105
256,719.2114564892502
257,719.1739627797914
258,719.1346622564673
259,719.0936872943226
260,719.0511728173676
261,719.0072552774715
262,718.9620716953144
263,718.9157587772481
264,718.868452116915
265,718.8202854822202
266,718.7713901783533
267,718.7218944691014
268,718.6719230341821
269,718.6215964409466
270,718.5710306146202
271,718.5203363008915
272,718.4696185255701
273,718.4189760655559
274,718.3685009514022
275,718.3182780230381
276,718.2683845570486
277,718.2188899785182
278,718.1698556652818
279,718.1213348487317
280,718.073372613236
281,718.0260059954793
282,717.9792641851332
283,717.9331688284952
284,717.8877344360769
285,717.8429688923507
286,717.7988740603377
287,717.7554464658116
288,717.7126780374106
289,717.6705568730852
290,717.6290680031101
291,717.5881941255665
292,717.547916298339
293,717.5082145778263
294,717.4690685968525
295,717.4304580742788
296,717.3923632489928
297,717.3547652322085
298,717.3176462740915
299,717.2809899435647
300,717.2447812239224
301,717.2090065314876
302,717.1736536690258
303,717.1387117282579
304,717.104170955587
305,717.0700225929588
306,717.0362587033676
307,717.0028719894023
308,716.9698556143053
309,716.9372030373851
310,716.9049078760581
311,716.8729638029947
312,716.8413644806993
313,716.8101035315545
314,716.7791745406001
315,716.748571089065
316,716.7182868161509
317,716.6883155043745
318,716.658651181848
319,716.6292882347908
320,716.6002215245621
321,716.5714465039214
322,716.5429593267673
323,716.5147569453998
324,716.4868371903109
325,716.4591988295542
326,716.4318416069386
327,716.4047662595623
328,716.3779745153236
329,716.3514690711974
330,716.3252535541475
331,716.2993324676033
332,716.27371112579
333,716.248395575976
334,716.223392506624
335,716.1987091384461
336,716.1743530945369
337,716.1503322439626
338,716.1266545114526
339,716.1033276467233
340,716.0803589515667
341,716.0577549693616
342,716.0355211474517
343,716.0136614866153
344,715.9921781937809
345,715.9710713546953
346,715.9503386425378
347,715.9299750764616
348,715.9099728412201
349,715.8903211767946
350,715.8710063462493
351,715.8520116901951
352,715.833317775939
353,715.8149026482776
354,715.7967421867903
355,715.7788105705013
356,715.7610808445218
357,715.7435255760839
358,715.7261175811517
359,715.7088306982794
360,715.6916405832269
361,715.6745254961241
362,715.6574670533608
363,715.6404509187789
364,715.6234674122807
365,715.6065120184217
366,715.5895857833956
367,715.5726955951761
368,715.5558543461026
369,715.5390809788262
370,715.5224004170283
371,715.5058433840029
372,715.4894461153621
373,715.4732499754514
374,715.4573009897929
375,715.4416493084818
376,715.4263486182242
377,715.4114555224422
378,715.3970289078128
379,715.3831293112115
380,715.3698182949315
381,715.3571578328496
382,715.3452097072565
383,715.3340349146575
384,715.3236930776169
385,715.3142418582469
386,715.30573636794
387,715.2982285682501
388,715.2917666596722
389,715.2863944584524
390,715.2821507666725
391,715.2790687470881
392,715.2771753195193
393,715.2764905980717
394,715.2770273877202
395,715.2787907555777
396,715.2817776876051
397,715.2859768370699
398,715.2913683678886
399,715.2979238942
400,715.3056065166047
401,715.3143709547423
402,715.3241637746188
403,715.3349237074043
404,715.3465820552727
405,715.3590631800481
406,715.3722850717728
407,715.3861599959823
408,715.4005952196766
409,715.4154938157752
410,715.4307555432738
411,715.446277795653
412,715.461956605223
413,715.4776876876634
414,715.4933675090047
415,715.5088943556561
416,715.5241693865605
417,715.5390976462771
418,715.55358902014
419,715.5675591170814
420,715.5809300695732
421,715.5936312410097
422,715.6055998294664
423,715.6167813563584
424,715.6271300311193
425,715.6366089876186
426,715.6451903927716
427,715.6528554321812
428,715.6595941814511
429,715.6654053740712
430,715.6702960768024
431,715.6742812819577
432,715.6773834246966
433,715.6796318339862
434,715.6810621279184
435,715.6817155656776
436,715.681638368543
437,715.6808810215333
438,715.679497566249
439,715.6775448940328
440,715.6750820472648
441,715.6721695366531
442,715.6688686841901
443,715.6652410036546
444,715.6613476308329
445,715.6572488129667
446,715.6530034628931
447,715.6486687801664
448,715.6442999390841
449,715.6399498402513
450,715.6356689182473
451,715.6315049959068
452,715.6275031778157
453,715.6237057806671
454,715.6201523026874
455,715.6168794353815
456,715.6139211175888
457,715.6113086263099
458,715.6090706940258
459,715.607233639601
460,715.6058214986695
461,715.604856139076
462,715.604357347776
463,715.6043428779619
464,715.6048284493056
465,715.6058277005078
466,715.6073521016707
467,715.6094108424066
468,715.6120107166677
469,715.61515602524
470,715.6188485135234
471,715.6230873583229
472,715.6278692129168
473,715.6331883132256
474,715.6390366403268
475,715.6454041285658
476,715.6522789052908
477,715.659647546726
478,715.6674953337912
479,715.6758064923713
480,715.6845644052614
481,715.6937517870268
482,715.7033508165621
483,715.7133432241416
484,715.7237103307858
485,715.7344330391282
486,715.7454917769004
487,715.7568663955033
488,715.7685360259605
489,715.7804788935085
490,715.7926720918905
491,715.8050913201021
492,715.8177105871815
493,715.8305018930885
494,715.8434348952387
495,715.8564765721775
496,715.8695908997225
497,715.8827385601566
498,715.8958767090369
499,715.9089588242617
500,715.9219346572663
501,715.9347502978911
502,715.9473483553562
503,715.9596682503471
504,715.9716466081056
505,715.98321773885
506,715.9943141890246
507,716.004867344536
508,716.0148080653638
509,716.0240673302523
510,716.0325768715144
511,716.040269783569
512,716.047081093553
513,716.0529482869011
514,716.057811785202
515,716.0616153788366
516,716.0643066228857
517,716.0658372101191
518,716.0661633377321
519,716.065246083652
520,716.063051803376
521,716.0595525504892
522,716.0547265153367
523,716.0485584688312
524,716.041040193422
525,716.0321708813302
526,716.0219574811359
527,716.0104149773537
528,715.9975665931944
529,715.9834439127527
530,715.9680869234336
531,715.9515439814852
532,715.933871702847
533,715.9151347786973
534,715.8954057117714
535,715.8747644674605
536,715.8532980331429
537,715.8310998800258
538,715.8082693248347
539,715.7849107943512
540,715.7611330026632
541,715.7370480573222
542,715.7127705154288
543,715.688416413283
544,715.6641022933369
545,715.6399442502762
546,715.6160570151263
547,715.5925530935605
548,715.5695419730912
549,715.547129413353
550,715.5254168328207
551,715.5045008027646
552,715.4844726545534
553,715.4654181995746
554,715.4474175529524
555,715.4305450452725
556,715.4148692027043
557,715.4004527749797
558,715.3873527914134
559,715.37562062754
560,715.3653020695567
561,715.3564373698939
562,715.3490612933552
563,715.3432031578133
564,715.3388868751871
565,715.3361309973047
566,715.3349487689949
567,715.3353481895174
568,715.3373320840599
569,715.3408981887982
570,715.3460392548649
571,715.3527431780984
572,715.3609931625167
573,715.3707679249669
574,715.3820419451209
575,715.3947857596226
576,715.4089662938746
577,715.4245472212972
578,715.4414893387751
579,715.45975094898
580,715.4792882443941
581,715.5000556920043
582,715.5220064203926
583,715.5450926124014
584,715.5692659066978
585,715.5944778101017
586,715.6206801202744
587,715.6478253567343
588,715.6758671969172
589,715.7047609111928
590,715.7344637858678
591,715.7649355182615
592,715.7961385650701
593,715.8280384250172
594,715.8606038391898
595,715.8938068978332
596,715.9276230507407
597,715.9620310279673
598,715.9970126851521
599,716.0325527909823
600,716.0686387737268
601,716.1052604410363
602,716.1424096836389
603,716.1800801702749
604,716.2182670395092
605,716.2569665942792
606,716.2961760061835
607,716.3358930371841
608,716.3761157858471
609,716.416842463561
610,716.4580712039264
611,716.4997999066402
612,716.5420261165032
613,716.5847469384258
614,716.6279589892813
615,716.6716583863616
616,716.7158407702856
617,716.7605013577452
618,716.8056350163606
619,716.8512363507407
620,716.8972997873414
621,716.9438196471114
622,716.9907901983164
623,717.0382056848508
624,717.0860603261017
625,717.1343482838198
626,717.1830635911793
627,717.2322000391425
628,717.2817510141051
629,717.3317092791742
630,717.3820666918613
631,717.4328138550593
632,717.4839397050565
633,717.535431047404
634,717.5872720559298
635,717.639443751146
636,717.6919234733248
637,717.7446843649926
638,717.7976948787715
639,717.8509183290106
640,717.9043125079428
641,717.9578293875247
642,718.011414926077
643,718.0650089945264
644,718.1185454305471
645,718.1719522208036
646,718.2251518038742
647,718.2780614815017
648,718.3305939236384
649,718.3826577516334
650,718.4341581830123
651,718.4849977213348
652,718.5350768759475
653,718.5842948982018
654,718.6325505221888
655,718.6797426991363
656,718.7257713149389
657,718.7705378794196
658,718.8139461743675
659,718.8559028467981
660,718.8963179360578
661,718.9351053289657
662,718.9721831449416
663,719.0074740601108
664,719.0409055827639
665,719.0724102918497
666,719.1019260477366
667,719.1293961822637
668,719.1547696726653
669,719.1780013003099
670,719.1990517909682
671,719.2178879301271
672,719.2344826455477
673,719.2488150494793
674,719.2608704336468
675,719.2706402103613
676,719.2781217928851
677,719.2833184087359
678,719.2862388422659
679,719.2868971077659
680,719.2853120601819
681,719.2815069551924
682,719.2755089720146
683,719.2673487109843
684,719.2570596765897
685,719.2446777585516
686,719.2302407284013
687,719.213787773222
688,719.1953590892566
689,719.1749955562009
690,719.1527385088436
691,719.1286296164249
692,719.1027108728331
693,719.0750246944269
694,719.0456141171302
695,719.0145230798297
696,718.9817967777932
697,718.9474820691997
698,718.9116279189373
699,718.8742858637398
700,718.8355104804775
701,718.7953598370212
702,718.7538959052708
703,718.711184919227
704,718.6672976658406
705,718.6223097012039
706,718.5763014892522
707,718.5293584645432
708,718.4815710238094
709,718.4330344517026
710,718.3838487849181
711,718.3341186169255
712,718.2839528434049
713,718.2334643468054
714,718.182769618833
715,718.1319883229867
716,718.0812428039512
717,718.0306575546356
718,717.9803586543277
719,717.9304731928264
720,717.8811286947852
721,717.8324525555256
722,717.7845714951883
723,717.7376110336552
724,717.6916949852582
725,717.6469449701528
726,717.60347993765
727,717.5614156951217
728,717.5208644350112
729,717.4819342532244
730,717.4447286550017
731,717.4093460485137
732,717.3758792306863
733,717.344414872876
734,717.3150330153647
735,717.2878065796308
736,717.2628009068407
737,717.2400733303832
738,717.2196727894658
739,717.2016394900221
740,717.1860046189197
741,717.1727901176847
742,717.1620085218553
743,717.153662870703
744,717.147746689753
745,717.1442440469699
746,717.1431296836921
747,717.1443692223654
748,717.1479194528441
749,717.1537286964481
750,717.1617372425592
751,717.1718778481201
752,717.1840762880535
753,717.198251945481
754,717.2143184343131
755,717.2321842517458
756,717.251753462282
757,717.272926416041
758,717.2956005014336
759,717.3196709267821
760,717.3450315199188
761,717.3715755319054
762,717.3991964315793
763,717.4277886803159
764,717.45724847921
765,717.487474482745
766,717.5183684741888
767,717.5498359991241
768,717.5817869544724
769,717.6141361302024
770,717.6468036996423
771,717.6797156533368
772,717.712804171628
773,717.7460079314801
774,717.7792723417825
775,717.812549698968
776,717.8457992538077
777,717.8789871822511
778,717.9120864571227
779,717.945076621363
780,717.9779434666085
781,718.0106786241869
782,718.0432790798994
783,718.0757466284931
784,718.1080872865505
785,718.1403106820056
786,718.1724294346352
787,718.2044585364575
788,718.2364147357285
789,718.2683159232548
790,718.3001805149285
791,718.3320268212775
792,718.3638723953707
793,718.3957333544638
794,718.4276236762447
795,718.4595544756679
796,718.491533272816
797,718.5235632661017
798,718.5556426278661
799,718.5877638401953
800,718.6199130878849
801,718.6520697241317
802,718.684205823271
803,718.716285833397
804,718.7482663398503
805,718.78009594847
806,718.8117152954987
807,718.8430571896197
808,718.874046890999
809,718.9046025316112
810,718.9346356792773
811,718.9640520439206
812,718.9927523186989
813,719.0206331418215
814,719.0475881577802
815,719.0735091500931
816,719.0982872133015
817,719.1218139321246
818,719.1439825399545
819,719.1646890343485
820,719.1838332319346
821,719.2013197496303
822,719.2170589037773
823,719.2309675228012
824,719.2429696709239
825,719.2529972800659
826,719.260990685297
827,719.2668990573329
828,719.2706807248632
829,719.2723033810428
830,719.2717441726019
831,719.2689896757405
832,719.2640357682709
833,719.2568874105995
834,719.2475583489563
835,719.236070753979
836,719.2224548073027
837,719.2067482483344
838,719.1889958928608
839,719.1692491346365
840,719.1475654405638
841,719.1240078494873
842,719.0986444837238
843,719.0715480803195
844,719.0427955446391
845,719.0124675220202
846,718.9806479748771
847,718.9474237452076
848,718.9128840793489
849,718.8771200953516
850,718.8402241820893
851,718.8022893286762
852,718.7634083891513
853,718.7236732904978
854,718.6831741942416
855,718.6419986252466
856,718.600230586156
857,718.5579496806936
858,718.5152302714828
859,718.4721406966022
860,718.4287425646208
861,718.385090143424
862,718.3412298559927
863,718.2971998956914
864,718.2530299724455
865,718.2087411987003
866,718.1643461214659
867,718.1198489054531
868,718.0752456717256
869,718.0305249939976
870,717.9856685489511
871,717.940651908786
872,717.8954454569205
873,717.8500154039043
874,717.8043248800703
875,717.7583350828617
876,717.7120064590935
877,717.6652999042058
878,717.6181779601607
879,717.5706059912523
880,717.5225533148989
881,717.4739942643052
882,717.424909161771
883,717.3752851837523
884,717.3251170996883
885,717.274407866071
886,717.2231690575184
887,717.1714211200755
888,717.1191934387799
889,717.0665242198792
890,717.0134601961164
891,716.9600561700566
892,716.9063744148069
893,716.8524839541582
894,716.798459746954
895,716.7443818040098
896,716.6903342681615
897,716.6364044868754
898,716.5826821022995
899,716.5292581767411
900,716.4762243634943
901,716.4236721256924
902,716.3716920018084
903,716.3203729163927
904,716.2698015371984
905,716.220061682108
906,716.1712337784053
907,716.1233943722356
908,716.0766156801911
909,716.0309651715639
910,715.9865051704049
911,715.9432924701864
912,715.9013779596856
913,715.8608062661411
914,715.8216154290986
915,715.7838366232678
916,715.7474939500866
917,715.7126043161189
