acceleration,velocity,displacement
-0.004790012336381056,0.0,0.0
-0.0057156728585869634,-2.626421298742005e-06,-6.566053246855013e-10
-0.006627025584840274,-5.712095909598814e-06,-2.741234626770706e-09
-0.0075229162105227764,-9.249581358439578e-06,-6.481653943780304e-09
-0.008402192709726601,-1.3230858588501921e-05,-1.210176393051568e-08
-0.009263706368268962,-1.7647333358000813e-05,-1.982131191714136e-08
-0.010106312956108435,-2.2489838189095162e-05,-2.9855604803915356e-08
-0.010928874192525358,-2.774863497625361e-05,-4.241522309525255e-08
-0.011730259654748096,-3.341341843807197e-05,-5.770573644883394e-08
-0.012509349237781468,-3.947332066120436e-05,-7.592742122365302e-08
-0.013265036194591616,-4.5916917019297634e-05,-9.727498064377852e-08
-0.013996230708448954,-5.2732233745057777e-05,-1.2193726833486736e-07
-0.014701863912180363,-5.990675740021511e-05,-1.500970161211856e-07
-0.015380892277363927,-6.742744644760118e-05,-1.8193056708313965e-07
-0.016032302317955067,-7.528074509643094e-05,-2.1760761496914768e-07
-0.01665511555351456,-8.345259956429834e-05,-2.5729095113433e-07
-0.017248393655006286,-9.192847686642855e-05,-3.011362202420117e-07
-0.0178112436755497,-0.00010069338619906755,-3.4929168600838573e-07
-0.018342823272127894,-0.00010973190293598695,-4.018980082921494e-07
-0.018842345855208192,-0.00011902819521782097,-4.590880328306014e-07
-0.01930908564360896,-0.00012856605309252526,-5.209865949081879e-07
-0.019742382624878818,-0.00013832892015964722,-5.87710338221231e-07
-0.020141647414356215,-0.00014829992766945597,-6.593675501785068e-07
-0.020506365977831904,-0.000158461931017503,-7.360580148502466e-07
-0.020836104147957925,-0.00016879754854895045,-8.1787288474186e-07
-0.02113051183329665,-0.00017928920254426409,-9.048945725151637e-07
-0.02138932679918728,-0.00018991916220238508,-9.97196663701826e-07
-0.021612377900857974,-0.0002006695883773964,-1.0948438513467713e-06
-0.02179958768141738,-0.00021152257977296522,-1.1978918933843617e-06
-0.021950974313498423,-0.00022246022027169418,-1.3063875933955266e-06
-0.022066652951367494,-0.00023346462708791066,-1.4203688052354277e-06
-0.02214683663839905,-0.0002445179994853523,-1.5398644618787435e-06
-0.022191836944716825,-0.00025560266788113127,-1.6648946287203644e-06
-0.0222020644754301,-0.000266701143236168,-1.7954705814996892e-06
-0.022178029311072,-0.0002777961666827935,-1.9315949089794297e-06
-0.022120341357772896,-0.00028887075935000474,-2.073261640487629e-06
-0.02202971052895723,-0.00029990827232168727,-2.220456398405552e-06
-0.02190694665971357,-0.00031089243661885495,-2.3731565756406874e-06
-0.021752959046165463,-0.0003218074130453247,-2.5313315380567322e-06
-0.021568755482138834,-0.0003326378416774008,-2.6949428517374137e-06
-0.021355440636884875,-0.0003433688907071567,-2.863944534833553e-06
-0.021114213591925123,-0.00035398630426435924,-3.038283333576432e-06
-0.020846364334875887,-0.0003644764487460595,-3.2178990218290368e-06
-0.0205532690051934,-0.0003748263570810768,-3.4027247232858207e-06
-0.020236383723904763,-0.0003850237702633514,-3.592687255121928e-06
-0.019897236921111137,-0.0003950571754246054,-3.787707491543917e-06
-0.019537420175246057,-0.0004049158396986947,-3.987700745324742e-06
-0.019158577665674435,-0.0004145898391589248,-4.192577165039147e-06
-0.018762394403212857,-0.0004240700821761466,-4.402242145372915e-06
-0.01835058344519176,-0.00043334832663824777,-4.616596747576513e-06
-0.017924872324293576,-0.0004424171905806191,-4.8355381268812295e-06
-0.01748698892430919,-0.0004512701558927698,-5.0589599634995765e-06
-0.017038647035248697,-0.0004599015648826593,-5.286752893693434e-06
-0.01658153183655141,-0.0004683066096006093,-5.518804937314251e-06
-0.01611728559555481,-0.00047648131395863584,-5.7550019182040624e-06
-0.01564749391023107,-0.00048442250883508234,-5.995227873902492e-06
-0.015173672846275832,-0.0004921278005242091,-6.239365451242315e-06
-0.014697257306928878,-0.0004995955330625103,-6.487296284638995e-06
-0.014219590930724287,-0.0005068247451219236,-6.738901354185103e-06
-0.013741917742715007,-0.0005138151222902834,-6.994061321038155e-06
-0.013265375694542109,-0.0005205669456495977,-7.252656838023125e-06
-0.01279099213151159,-0.0005270810376061111,-7.514568833837052e-06
-0.012319681140825085,-0.0005333587059241953,-7.77967876971963e-06
-0.011852242678202597,-0.0005394016868789523,-8.047868867920416e-06
-0.01138936334039295,-0.0005452120883836011,-8.319022311736054e-06
-0.010931618635868187,-0.0005507923338776664,-8.593023417301371e-06
-0.010479476591985776,-0.00055614510768463,-8.869757777691945e-06
-0.010033302523864146,-0.0005612733024635924,-9.149112380229e-06
-0.009593364788931852,-0.0005661799692917915,-9.430975698167847e-06
-0.009159841368231792,-0.0005708682708310824,-9.715237758198565e-06
-0.00873282714360358,-0.0005753414379590413,-1.0001790185396097e-05
-0.008312341758181685,-0.0005796027301844876,-1.0290526227431979e-05
-0.007898337937094808,-0.0005836554001083067,-1.0581340760005177e-05
-0.007490710111367841,-0.0005875026621204223,-1.087413027556236e-05
-0.007089303161403335,-0.0005911476654386151,-1.1168792857452119e-05
-0.006693921103763212,-0.0005945934715049068,-1.1465228141687999e-05
-0.006304335588446144,-0.0005978430356779591,-1.1763337268483716e-05
-0.005920294133834032,-0.0006008991931085292,-1.2063022825680337e-05
-0.005541528065463874,-0.0006037646486583536,-1.2364188786122057e-05
-0.005167760106950773,-0.0006064419707014572,-1.266674044096201e-05
-0.0047987115004314825,-0.0006089335886033028,-1.29705843307882e-05
-0.0044341084625151884,-0.0006112417935940394,-1.3275628176337535e-05
-0.00407368776431314,-0.0006133687426507465,-1.3581780810398731e-05
-0.0037172012713991374,-0.0006153164649096746,-1.3888952112288836e-05
-0.003364419364515392,-0.0006170868700686533,-1.4197052946033418e-05
-0.0030151332532686245,-0.0006186817582230993,-1.4505995103106357e-05
-0.0026691562727188503,-0.0006201028306045961,-1.481569125031328e-05
-0.002326324305915634,-0.0006213517007492548,-1.5126054883151743e-05
-0.00198649550058757,-0.0006224299057008806,-1.5437000284764276e-05
-0.0016495494452952275,-0.0006233389169373513,-1.5748442490423835e-05
-0.0013153859391170678,-0.0006240801507834544,-1.6060297257354035e-05
-0.000983923440166925,-0.0006246549781282753,-1.637248103958197e-05
-0.0006550972372423473,-0.0006250647332976276,-1.6684910967438444e-05
-0.00032885737308282483,-0.0006253107219502089,-1.6997504831250405e-05
-5.166352247669783e-06,-0.0006253942278815416,-1.7310181068708342e-05
0.00031600331994312286,-0.0006253165186396177,-1.762285875533863e-05
0.0006346717040600697,-0.0006250788498836169,-1.7935457597469438e-05
0.0009508540190867382,-0.0006246824684528301,-1.824789792705355e-05
0.0012645631682630485,-0.0006241286141559927,-1.8560100697705754e-05
0.0015758120943983242,-0.0006234185203403274,-1.8871987481329833e-05
0.0018846158553450156,-0.0006225534133528916,-1.9183480464753136e-05
0.002190993330380998,-0.0006215345110564601,-1.9494502445855473e-05
0.0024949685284146343,-0.0006203630205917612,-1.9804976828767527e-05
0.0027965715507043817,-0.0006190401355719814,-2.0114827617808464e-05
0.0030958393180259363,-0.0006175670328547988,-2.042397940991516e-05
0.003392816171838703,-0.0006159448689823327,-2.0732357385374442e-05
0.003687554411517625,-0.0006141747763364937,-2.1039887296704148e-05
0.003980114777527154,-0.0006122578590392325,-2.134649545554808e-05
0.004270566865078041,-0.0006101951886285812,-2.1652108717465035e-05
0.004558989449233741,-0.0006079877995500033,-2.195665446450968e-05
0.004845470696303008,-0.0006056366845136191,-2.2260060585525587e-05
0.0051301082178853066,-0.000603142789785072,-2.256225545410026e-05
0.0054130089017315275,-0.0006005070105051677,-2.2863167904172822e-05
0.005694288437654856,-0.0005977301861703211,-2.3162727203341695e-05
0.005974070451864494,-0.0005948130964479412,-2.346086302399626e-05
0.006252485169483412,-0.0005917564575426043,-2.3757505412493896e-05
0.006529667538026324,-0.0005885609193657269,-2.405258475672098e-05
0.006805754762245446,-0.000585227063790659,-2.4346031752510076e-05
0.007080883230655797,-0.0005817554042924336,-2.463777736953085e-05
0.00735518486788561,-0.0005781463872677982,-2.4927752817420907e-05
0.007628783022509455,-0.0005744003952951994,-2.5215889513061656e-05
0.007901788069134321,-0.0005705177525222885,-2.5502119050016028e-05
0.008174292928619405,-0.00056649873227285,-2.5786373171214812e-05
0.008446368680827824,-0.0005623435668704882,-2.6068583746000646e-05
0.008718060392624856,-0.0005580524596021251,-2.63486827526188e-05
0.00898938325717718,-0.0005536255986896746,-2.662660226719175e-05
0.00926031916083723,-0.000549063173085171,-2.6902274460135463e-05
0.009530813841978483,-0.0005443653898344671,-2.7175631600865372e-05
0.009800774846407711,-0.0005395324926623705,-2.744660607148958e-05
0.010070070494683225,-0.0005345647813270978,-2.7715130389986946e-05
0.01033853004652112,-0.0005294626311917967,-2.798113724311667e-05
0.010605945166058148,-0.0005242265123886519,-2.8244559529011783e-05
0.010872072667168912,-0.0005188570079303451,-2.850533040909153e-05
0.011136638386470605,-0.0005133548301669352,-2.876338336861585e-05
0.011399341940191739,-0.0005077208350852696,-2.9018652284928903e-05
0.011659862101002488,-0.000501956034074971,-2.9271071502218962e-05
0.011917862576088931,-0.0004960616029056982,-2.952057591146413e-05
0.012172998035557617,-0.0004900388877527866,-2.976710103412875e-05
0.012424920291437854,-0.0004838894081710377,-3.0010583108109706e-05
0.012673284554260698,-0.00047761485695961304,-3.0250959174392368e-05
0.012917755698931289,-0.00047121709689631504,-3.048816716285635e-05
0.01315801444579113,-0.0004646981543601344,-3.0722145975670464e-05
0.013393763306411103,-0.0004580602099220839,-3.095283556674102e-05
0.01362473208346317,-0.0004513055860746153,-3.11801770157402e-05
0.013850682687823843,-0.00044443673238179354,-3.14041125953543e-05
0.014071413062333626,-0.0004374562084442542,-3.162458583056081e-05
0.014286760066772482,-0.00043036666516197764,-3.184154154896237e-05
0.014496601252534835,-0.0004231708248321508,-3.20549259214609e-05
0.014700855520352652,-0.00041587146063892897,-3.226468649282867e-05
0.014899482707779124,-0.000408471376081896,-3.247077220200888e-05
0.015092482189509692,-0.0004009733848575738,-3.267313339224375e-05
0.015279890586392623,-0.00039338029166359825,-3.287172181137404e-05
0.01546177868149561,-0.0003856948743466262,-3.30664906028766e-05
0.01563824765697334,-0.00037791986776200895,-3.3257394288403756e-05
0.015809424798163964,-0.0003700579496482246,-3.3444388742756315e-05
0.01597545884330197,-0.0003621117287378581,-3.362743116235284e-05
0.016136515169524975,-0.00035408373523465136,-3.3806480028345965e-05
0.016292770995153524,-0.0003459764136934817,-3.3981495065578e-05
0.016444410756678733,-0.00033779211825552365,-3.4152437198565255e-05
0.016591621799576146,-0.0003295331101164599,-3.4319268505658254e-05
0.016734590507740604,-0.00032120155703963075,-3.448195217244728e-05
0.016873498985304228,-0.00031279953466636955,-3.4640452445373776e-05
0.017008522397408195,-0.00030432902932069143,-3.479473458637054e-05
0.017139827069366814,-0.00029579194195399766,-3.494476482918921e-05
0.01726756942628313,-0.0002871900928300852,-3.509051033788523e-05
0.017391895821936756,-0.0002785252265180302,-3.523193916772226e-05
0.01751294326452117,-0.0002697990167464157,-3.536902022853837e-05
0.01763084100973229,-0.00026101307067785234,-3.5501723250394434e-05
0.01774571296413209,-0.00025216893218438626,-3.5630018751109995e-05
0.01785768082200094,-0.000243268083737853,-3.5753878005090556e-05
0.017966867842586637,-0.00023431194657170612,-3.587327301266795e-05
0.018073403160849558,-0.00022530187882084708,-3.5988176469016085e-05
0.018177426521377348,-0.00021623917140029035,-3.609856173157137e-05
0.018279093344567735,-0.00020712504143380407,-3.6204402784779896e-05
0.01837858007524905,-0.00019796062307884986,-3.630567420090806e-05
0.01847608980430967,-0.00018874695560896018,-3.640235109558001e-05
0.01857185816248541,-0.00017948496861726142,-3.6494409076636565e-05
0.018666159441454687,-0.0001701754642162764,-3.658182418484495e-05
0.018759312808953016,-0.00016081909615367447,-3.666457282493744e-05
0.01885168839130079,-0.00015141634585361102,-3.674263168543926e-05
0.018943712935230717,-0.00014196749552197814,-3.681597764578316e-05
0.019035874729691826,-0.0001324725986057475,-3.6884587669315095e-05
0.019128727445100704,-0.00012293144806204938,-3.694843868098204e-05
0.01922289253353267,-0.00011334354306739104,-3.7007507428764405e-05
0.01931905985457556,-0.00010370805497036399,-3.706177032827384e-05
0.019417986260158733,-9.402379344168042e-05,-3.711120329037685e-05
0.019520491974131596,-8.428917388310784e-05,-3.715578153220805e-05
0.019627454724000605,-7.450218720857479e-05,-3.719547937248097e-05
0.019739801716989518,-6.466037309832725e-05,-3.72302700125577e-05
0.019858499685350188,-5.4760797747742327e-05,-3.726012530526921e-05
0.019984543329227628,-4.4800036994097874e-05,-3.728501551395467e-05
0.020118942542854627,-3.477416552607731e-05,-3.730490906458471e-05
0.020262708825064587,-2.4678752684097507e-05,-3.731977229413726e-05
0.02041684125598325,-1.4508865163835547e-05,-3.732956919859924e-05
0.02058231237271826,-4.2590767566601686e-06,-3.733426118407936e-05
0.020760054209053535,6.076514888782781e-06,-3.733380682454633e-05
0.020950944702576513,1.650426461669029e-05,-3.732816162966996e-05
0.02115579464086227,2.7030949452549984e-05,-3.731727782615265e-05
0.021375335318225,3.7663731942321804e-05,-3.730110415580393e-05
0.021610207085506983,4.84101175432548e-05,-3.7279585693432535e-05
0.021860948971329886,5.9277906557464014e-05,-3.7252663687407354e-05
0.02212798952516346,7.027514118158735e-05,-3.722027542547259e-05
0.022411638991847366,8.141004831084005e-05,-3.718235412809948e-05
0.0227120828853517,9.269097878013982e-05,-3.7138828871326734e-05
0.023029376985025798,0.00010412634374773419,-3.7089624540694765e-05
0.023363443729590507,0.00011572454892638826,-3.7034661817526236e-05
0.0237140699437272,0.00012749392734471768,-3.697385719845846e-05
0.024080905807256848,0.00013944267128246368,-3.690712304880167e-05
0.024463464963898306,0.00015157876397525248,-3.683436768998724e-05
0.024861125659741308,0.00016390991163116238,-3.675549552108564e-05
0.02527313279955472,0.0001764434762459864,-3.667040717411635e-05
0.025698600812024,0.00018918640964888107,-3.6578999702642636e-05
0.02613651722589049,0.0002021451891583597,-3.648116680294082e-05
0.026585746881198954,0.00021532575518513206,-3.637679906685495e-05
0.027045036732816576,0.00022873345108863593,-3.626578426528651e-05
0.027513021240503907,0.00024237296558196606,-3.614800766111886e-05
0.027988228367388773,0.00025624827798393924,-3.602335235022738e-05
0.02846908620894918,0.00027036260662802376,-3.589169962907439e-05
0.028953930239186798,0.0002847183607400578,-3.5752929387232374e-05
0.0294410111021167,0.00029931709607538366,-3.5606920523028514e-05
0.02992850282715629,0.0003141594745577019,-3.545355138037024e-05
0.03041451133713988,0.0003292452280987759,-3.529270020470613e-05
0.030897083155221192,0.00034457312672186616,-3.5124245616000965e-05
0.03137421428988637,0.00036014095108314307,-3.4948067096549716e-05
0.03184385936123738,0.000375945469495924,-3.476404549140495e-05
0.03230394109088859,0.00039198241960895547,-3.457206351912873e-05
0.03275236028946339,0.0004082464949540435,-3.437200629048798e-05
0.03318700645527119,0.0004247313366402271,-3.4163761832589416e-05
0.0336057690759013,0.0004414295305230202,-3.39472216157986e-05
0.03400654971062645,0.00045833261021965214,-3.3722281080612934e-05
0.034387274912176496,0.00047543106637535287,-3.3488840161464185e-05
0.03474591000117579,0.0004927143626036909,-3.3246803804219426e-05
0.03508047362183979,0.0005101709585094448,-3.299608247394114e-05
0.03538905289641566,0.0005277883401390086,-3.273659264927903e-05
0.03566981890024201,0.000545553058088173,-3.2468257299722234e-05
0.0359210421338463,0.0005634507733466951,-3.2191006341863514e-05
0.03614110766923096,0.0005814663107974645,-3.1904777070827476e-05
0.03632852966521177,0.0005995837201310751,-3.160951456309534e-05
0.03648196496264315,0.0006177863437880388,-3.130517204711556e-05
0.03660022548487364,0.0006360568913999179,-3.099171123831857e-05
0.036682289190348986,0.0006543775200687236,-3.066910263545141e-05
0.03672730936422752,0.0006727299197073677,-3.0337325775507385e-05
0.03673462209764631,0.0006910954025728361,-2.9996369444937335e-05
0.036703751870087675,0.0007094549960647696,-2.9646231845277935e-05
0.03663441519730889,0.0007277895378316187,-2.9286920711803836e-05
0.03652652232789432,0.0007460797722129196,-2.89184533842927e-05
0.036380176975698335,0.0007643064470388177,-2.8540856829479768e-05
0.036195674074732814,0.0007824504098014255,-2.815416761526971e-05
0.03597349555035365,0.0008004927022076971,-2.7758431837267426e-05
0.035714304127170304,0.0008184146521270781,-2.7353704998683734e-05
0.035418935240251845,0.0008361979619689337,-2.694005184515973e-05
0.03508838717231621,0.0008538247925720757,-2.6517546156524476e-05
0.03472380959599332,0.000871277841764153,-2.608627049794042e-05
0.03432649075523182,0.0008885404168519593,-2.564631593328639e-05
0.033897843574230604,0.0009055965004343249,-2.519778170396482e-05
0.03343939101885522,0.0009224308090825963,-2.474077487658559e-05
0.03295275102530835,0.0009390288445936372,-2.427540996316653e-05
0.03243962125400368,0.0009553769376634652,-2.3801808517602256e-05
0.03190176386831856,0.0009714622839440458,-2.3320098712200378e-05
0.03134099052085878,0.0009872729725413402,-2.283041489807903e-05
0.030759147748751443,0.0010027980071087427,-2.233289715316651e-05
0.030158102999034493,0.0010180273197956892,-2.1827690821440403e-05
0.029539731503361668,0.0010329517784212882,-2.1314946046886158e-05
0.02890590419155213,0.0010475631873450167,-2.0794817305444583e-05
0.028258476765152807,0.001061854282584193,-2.026746293796228e-05
0.027599279939113434,0.0010758187217602595,-1.9733044686876167e-05
0.026930110724258896,0.0010894510694261026,-1.9191727239079578e-05
0.026252724507524118,0.0011027467782340483,-1.864367777716454e-05
0.025568827625146374,0.001115702166267216,-1.8089065541039222e-05
0.024880070132514347,0.0011283143907066312,-1.752806140179576e-05
0.024188038554011568,0.0011405814178782627,-1.6960837449649537e-05
0.023494248528145304,0.001152501989648802,-1.6387566597767772e-05
0.022800137412555266,0.0011640755861339772,-1.5808422203822076e-05
0.022107057043824083,0.001175302384748072,-1.5223577711101564e-05
0.02141626692969301,0.0011861832157414513,-1.4633206310979182e-05
0.020728928168763778,0.0011967195145160656,-1.4037480628414803e-05
0.02004609834955095,0.0012069132711456443,-1.3436572431999376e-05
0.01936872760684751,0.001216766977634744,-1.2830652369804279e-05
0.018697655942750854,0.0012262835735221435,-1.2219889732015058e-05
0.018033611869128205,0.0012354663904751133,-1.1604452241015743e-05
0.017377212399664475,0.0012443190965423115,-1.0984505869261387e-05
0.01672896440941325,0.001252845640744581,-1.0360214684939663e-05
0.016089267381114433,0.0012610501986922127,-9.731740725080465e-06
0.015458417560736234,0.0012689371199276754,-9.099243895425493e-06
0.014836613535609715,0.0012765108777017618,-8.462881896018134e-06
0.014223963210705098,0.0012837760218883405,-7.82281017112061e-06
0.013620492082872264,0.0012907371357117347,-7.179181881720591e-06
0.013026152604691487,0.0012973987968836257,-6.532147898571751e-06
0.012440834313467493,0.0013037655436131655,-5.881856813447553e-06
0.011864374320648621,0.0013098418457716944,-5.228454966101338e-06
0.011296567754222329,0.001315632081290412,-4.572086484335811e-06
0.010737177824339377,0.0013211405176850525,-3.912893334591945e-06
0.010185945293822418,0.001326371298464593,-3.251015380554533e-06
0.009642597219402308,0.001331328434092899,-2.58659044741516e-06
0.009106854860882935,0.0013360157971129703,-1.9197543896136926e-06
0.008578440655538009,0.0013404371209920756,-1.250641160087431e-06
0.008057084157605813,0.0013445960021953615,-5.793828792905716e-07
