acceleration,velocity,displacement
-0.004800117201486051,0.0,0.0
-0.005725776818152236,-2.631473504909572e-06,-6.578683762273931e-10
-0.006637017750138326,-5.722172146982213e-06,-2.7462797892003395e-09
-0.00753268245501065,-9.264597198269457e-06,-6.492972125513258e-09
-0.008411616729756898,-1.3250671994461345e-05,-1.2121789423695958e-08
-0.009272670849019447,-1.767174388915543e-05,-1.9852393394600153e-08
-0.010114700837354641,-2.2518586810748956e-05,-2.989997606957625e-08
-0.010936570020304504,-2.7781404525163743e-05,-4.247497390355442e-08
-0.011737150996503255,-3.344983477936568e-05,-5.778278372968678e-08
-0.01251532813225178,-3.951295456155444e-05,-7.60234810649168e-08
-0.013270000605455206,-4.5959286745981185e-05,-9.739154139180071e-08
-0.014000085952399302,-5.277680838544481e-05,-1.220755651746572e-07
-0.014704524035681519,-5.995296088246502e-05,-1.5025800749163467e-07
-0.015382281359440043,-6.747466223124541e-05,-1.8211491327006228e-07
-0.016032355678339653,-7.532832149069033e-05,-2.1781565920054622e-07
-0.016653780847382917,-8.349985562212097e-05,-2.5752270347874906e-07
-0.01724563183855638,-9.19747087936058e-05,-3.0139134458268077e-07
-0.017807029830784138,-0.00010073787421094092,-3.4956949033381746e-07
-0.01833714728313528,-0.00010977391848942077,-4.021974385089079e-07
-0.01883521293056053,-0.00011906700854284473,-4.594076702669743e-07
-0.019300516679731306,-0.00012860094094541767,-5.213246576390398e-07
-0.01973241440432947,-0.00013835917371643288,-5.880646863045025e-07
-0.02013033263250755,-0.00014832486047564213,-6.597356948525212e-07
-0.02049377309239583,-0.00015848088690686798,-7.364371316981487e-07
-0.020822317048662685,-0.0001688099094421326,-8.182598307853988e-07
-0.02111562933362252,-0.0001792943960377039,-9.05285907155358e-07
-0.021373461957668326,-0.0001899166688605266,-9.975886733799155e-07
-0.02159565718515013,-0.00020065894864623122,-1.095232577756605e-06
-0.021782149992398463,-0.00021150340044061837,-1.1982731650283174e-06
-0.021932969887401902,-0.00022243218041056846,-1.306757060241114e-06
-0.022048242154265672,-0.00023342748342098534,-1.4207219761990025e-06
-0.02212818865965916,-0.00024447159112446655,-1.5401967448353654e-06
-0.02217312838697484,-0.00025554692038612506,-1.6652013727130133e-06
-0.02218347783144039,-0.0002666360719407289,-1.7957471207947268e-06
-0.02215975131474148,-0.00027772187922727435,-1.9318366085867275e-06
-0.02210256119821612,-0.00028878745735551374,-2.0734639427324247e-06
-0.022012617920875912,-0.0002998162521352868,-2.2206148701051247e-06
-0.021890729769065843,-0.0003107920890577722,-2.3732669554033896e-06
-0.021737802276343404,-0.00032169922206912453,-2.531389783185114e-06
-0.021554837133266228,-0.00033252238192152693,-2.694945184182777e-06
-0.021342930459848225,-0.0003432468238198055,-2.86388748561811e-06
-0.021103270269150296,-0.00035385837400205515,-3.038163785073575e-06
-0.020837132931440284,-0.0003643434748022028,-3.2177142472746397e-06
-0.02054587844565564,-0.0003746892276464768,-3.4024724228868098e-06
-0.020230944360203954,-0.0003848834333479417,-3.5923655881354145e-06
-0.019893838262667995,-0.0003949146290036597,-3.787315103723315e-06
-0.019536128853067176,-0.00040477212078259353,-3.987236791169878e-06
-0.01915943569838058,-0.00041444601192045546,-4.1920413243456405e-06
-0.018765417825916866,-0.0004239272253015298,-4.401634633651137e-06
-0.018355761352866113,-0.00043320752009622554,-4.615918320000576e-06
-0.01793216637091165,-0.00044227950202717,-4.834790075531425e-06
-0.017496333308439246,-0.00045113662694700775,-5.058144107774969e-06
-0.01704994899219653,-0.0004597731975221667,-5.285871563892263e-06
-0.016594672645738155,-0.0004681843529316504,-5.517860951505717e-06
-0.01613212209830512,-0.0004763660516176612,-5.7539985526430455e-06
-0.015663860517436973,-0.0004843150472715967,-5.99416882736536e-06
-0.015191383998538874,-0.0004920288584005907,-6.238254803783407e-06
-0.014716110333458713,-0.0004995057319835901,-6.486138451379452e-06
-0.01423936923905728,-0.0005067446018767191,-6.73770103484453e-06
-0.01376239426065696,-0.0005137450427516476,-6.992823446001622e-06
-0.013286316479616833,-0.0005205072204367161,-7.251386511798713e-06
-0.01281216006201454,-0.0005270318395721239,-7.513271276800923e-06
-0.012340839605626151,-0.0005333200894890341,-7.778359259066212e-06
-0.011873159188326548,-0.0005393735891875223,-8.046532678735352e-06
-0.011409812992701588,-0.0005451943322327794,-8.317674659090428e-06
-0.010951387367092414,-0.0005507846323227279,-8.591669400229305e-06
-0.010498364169925653,-0.0005561470702069825,-8.868402325861732e-06
-0.01005112523165983,-0.0005612844425573789,-9.147760204052822e-06
-0.009609957767341875,-0.0005661997133071293,-9.429631243018948e-06
-0.009175060588892779,-0.000570895967896188,-9.713905163319777e-06
-0.008746550992718123,-0.0005753763707915907,-1.0000473247991723e-05
-0.008324472215473725,-0.0005796441265936387,-1.028922837233803e-05
-0.007908801340725167,-0.0005837024449826885,-1.058006501523211e-05
-0.007499457506992642,-0.0005875545096946179,-1.0872879253901438e-05
-0.007096310242420345,-0.0005912034516319712,-1.1167568744233085e-05
-0.006699187758091882,-0.0005946523261320993,-1.1464032688674103e-05
-0.0063078850732721636,-0.0005979040943399403,-1.1762171793792113e-05
-0.005922171902605877,-0.0006009616085839098,-1.2061888219523075e-05
-0.005541800272258076,-0.0006038276016276258,-1.236308552207596e-05
-0.005166511815006149,-0.0006065046796494419,-1.2665668592395227e-05
-0.004796044627067046,-0.0006089953187599601,-1.2969543591997577e-05
-0.0044301395016721964,-0.000611301864792145,-1.3274617887885604e-05
-0.004068545337928764,-0.0006134265360020452,-1.3580799988084151e-05
-0.003711023568332664,-0.0006153714282286105,-1.3887999479141816e-05
-0.003357351528926529,-0.0006171385220029253,-1.41961269666997e-05
-0.003007324782707587,-0.0006187296910808339,-1.450509401997064e-05
-0.00266075848065826,-0.0006201467118966753,-1.4814813120715017e-05
-0.002317487895138034,-0.0006213912734906244,-1.5125197617061842e-05
-0.001977368284337407,-0.0006224649875354932,-1.543616168231837e-05
-0.0016402742437112404,-0.0006233693981675054,-1.574762027874412e-05
-0.001306098670829383,-0.0006241059913961405,-1.605948912613503e-05
-0.0009747514238180383,-0.0006246762039198024,-1.637168467496402e-05
-0.0006461577148299004,-0.0006250814312044644,-1.6684124083745084e-05
-0.000320256264977638,-0.0006253230346994163,-1.6996725200221053e-05
3.0027484533136355e-06,-0.0006254023480785474,-1.7309406545915544e-05
0.0003236599089057133,-0.0006253206824142077,-1.7622087303538732e-05
0.0006417488818703842,-0.0006250793302165136,-1.793468730669641e-05
0.0009572987653556894,-0.0006246795683047071,-1.8247127031326715e-05
0.001270336382011121,-0.0006241226595178654,-1.8559327588282357e-05
0.0015808884146614214,-0.0006234098533186973,-1.8871210716491496e-05
0.001888983281751859,-0.000622542385394594,-1.9182698776169818e-05
0.0021946526682135883,-0.0006215214764071026,-1.9493714741620244e-05
0.0024979326842611872,-0.0006203483300689838,-1.9804182193239264e-05
0.0027988647021333435,-0.0006190241307223852,-2.0114025308437106e-05
0.003097495975008904,-0.0006175500405530996,-2.0423168851255976e-05
0.003393880141981963,-0.0006159271965238519,-2.0731538160525215e-05
0.003688077677931982,-0.0006141567070688734,-2.1039059136423395e-05
0.003980156297563609,-0.0006122396485749996,-2.1345658225334362e-05
0.004270191298964371,-0.0006101770616758676,-2.165126240289708e-05
0.004558265828526116,-0.0006079699473939949,-2.1955799155164545e-05
0.004844471043322393,-0.0006056192631760328,-2.2259196457807052e-05
0.005128906129486624,-0.0006031259188828305,-2.2561382753321767e-05
0.005411678114078522,-0.0006004907728219392,-2.2862286926247958e-05
0.005692901392846491,-0.0005977146279452079,-2.3161838276439746e-05
0.005972696891711658,-0.0005947982283740684,-2.3459966490519564e-05
0.006251190785800284,-0.0005917422564546904,-2.3756601611726752e-05
0.006528512712220577,-0.0005885473305801852,-2.4051674008485472e-05
0.006804793429513574,-0.0005852140040447516,-2.4345114342141707e-05
0.00708016190508562,-0.0005817427652111018,-2.463685353445567e-05
0.007354741862953849,-0.000578134039269092,-2.492682273557572e-05
0.007628647895700787,-0.0005743881918294283,-2.5214953293350352e-05
0.00790198131014923,-0.0005705055345279658,-2.55011767249397e-05
0.008174825900017632,-0.0005664863327254241,-2.578542469175305e-05
0.00844724381089268,-0.0005623308152976965,-2.606762897875883e-05
0.008719271613810984,-0.0005580391864415206,-2.6347721479193632e-05
0.008990916678505234,-0.0005536116393684415,-2.6625634185646123e-05
0.00926215395653877,-0.0005490483717096805,-2.6901299188415652e-05
0.009532923330119843,-0.0005443496023880158,-2.7174648681940077e-05
0.009803127720529544,-0.0005395155896253535,-2.744561497994342e-05
0.01007263216029774,-0.0005345466496551466,-2.7714130539763545e-05
0.010341264004580106,-0.0005294431756139271,-2.7980127996080812e-05
0.010608814380052964,-0.0005242056560177689,-2.8243540203988737e-05
0.010875040851457199,-0.0005188346922098913,-2.850430029104565e-05
0.01113967116123662,-0.0005133310142067178,-2.8762341717649803e-05
0.011402407810875613,-0.0005076954944636898,-2.9017598344817405e-05
0.011662933233574705,-0.0005019291592025773,-2.927000450823397e-05
0.011920915350672455,-0.0004960331970565154,-2.9519495097298746e-05
0.012176013368533306,-0.000490008964876714,-2.9766005637782053e-05
0.012427883721074546,-0.00048385799060431204,-3.000947237665231e-05
0.012676186088444773,-0.00047758197315193223,-3.024983236759137e-05
0.012920589426826968,-0.0004711827792731143,-3.0487023555697633e-05
0.013160777919843365,-0.00046466243743644673,-3.0720984859875026e-05
0.013396456708588259,-0.0004580231287793388,-3.0951656251428974e-05
0.013627357200205909,-0.00045126717530214025,-3.117897882744934e-05
0.01385324173008315,-0.00044439702556956797,-3.140289487766727e-05
0.014073907377603456,-0.00043741523829264633,-3.162334794363282e-05
0.014289188797176474,-0.00043032446424895134,-3.184028286926822e-05
0.014498959996318794,-0.00042312742705057755,-3.20536458420931e-05
0.01470313505400539,-0.0004158269032879965,-3.2263384424677745e-05
0.014901667823177174,-0.00040842570256870083,-3.246944757614192e-05
0.01509455069564415,-0.0004009266479389955,-3.267178566376884e-05
0.015281812519824984,-0.0003933325571351282,-3.287035046503737e-05
0.015463515764036909,-0.00038564622506416274,-3.30650951605872e-05
0.015639753032693975,-0.00037787040786498,-3.3255974318819485e-05
0.015810643073701166,-0.0003700078088383812,-3.344294387299532e-05
0.015976326445615738,-0.000362061066458552,-3.362596109181956e-05
0.01613696102481796,-0.0003540327445909436,-3.380498454458193e-05
0.01629271752276085,-0.0003459253249540489,-3.3979974061968184e-05
0.016443775162913447,-0.0003377412017826303,-3.4150890693652355e-05
0.016590317648745755,-0.0003294826785797155,-3.431769666374294e-05
0.016732529540441434,-0.0003211519667824187,-3.448035532508347e-05
0.01687059314762772,-0.0003127511861104014,-3.463883111330668e-05
0.01700468603856152,-0.0003042823663138541,-3.479308950141274e-05
0.017134979259456565,-0.00029574744998934956,-3.494309695548854e-05
0.0172616363411781,-0.0002871482960891909,-3.508882089200818e-05
0.017384813139057785,-0.0002784866837191319,-3.523022963696026e-05
0.017504658512433446,-0.0002697643158062591,-3.536729238684161e-05
0.017621315815434694,-0.00026098282222429206,-3.549997917134925e-05
0.017734925144443133,-0.0002521437619843226,-3.56282608174014e-05
0.01784562626895871,-0.00024324862413097216,-3.575210891393022e-05
0.017953562157234683,-0.00023429882702442382,-3.587149577671907e-05
0.018058882994985127,-0.00022529571573636886,-3.598639441240927e-05
0.01816175059230108,-0.00021624055733954732,-3.609677848067825e-05
0.01826234309241405,-0.00020713453391836854,-3.620262225349273e-05
0.018360859934908293,-0.00019797873316153796,-3.6303900570262706e-05
0.018457527064440128,-0.00018877413641170084,-3.640058878765602e-05
0.018552602384232997,-0.00017952160404953257,-3.649266272277132e-05
0.018646381412020355,-0.00017022185810046923,-3.658009858830882e-05
0.018739203012292486,-0.00016087546199439103,-3.6662872918332536e-05
0.018831454990417624,-0.0001514827974937135,-3.674096248320456e-05
0.018923579275981588,-0.0001420440389271137,-3.681434419230977e-05
0.019016076393179558,-0.0001325591250098234,-3.6882994983294e-05
0.019109508894273906,-0.00012302772868796004,-3.6946891696718446e-05
0.019204503418965915,-0.00011344922560965009,-3.700601093529285e-05
0.019301751062769927,-0.00010382266198921613,-3.7060328907192566e-05
0.019402005802682643,-9.414672277285298e-05,-3.710982125338308e-05
0.019506080825647622,-8.441970111577041e-05,-3.715446285935524e-05
0.01961484272078867,-7.463947022916134e-05,-3.7194227652191474e-05
0.01972920362426268,-6.48034586428985e-05,-3.722908838440949e-05
0.01985011153151649,-5.490862985395371e-05,-3.72590164065337e-05
0.01997853908988539,-4.495146719860324e-05,-3.728398143079684e-05
0.020115471239058002,-3.492796461636739e-05,-3.7303951288750584e-05
0.020261892081308557,-2.4833623786275753e-05,-3.7318891685851246e-05
0.02041877134546132,-1.4663457929583284e-05,-3.732876595628021e-05
0.020587050761963897,-4.41200240272698e-06,-3.733353482136329e-05
0.02076763060221896,5.926667938318733e-06,-3.733315615497939e-05
0.020961356576934594,1.6358914733107123e-05,-3.732758475931153e-05
0.02116900725808615,2.689150569186231e-05,-3.731677215420529e-05
0.021391282188969046,3.7531578053626115e-05,-3.730066638326892e-05
0.02162879085708143,4.828659631513873e-05,-3.727921183967673e-05
0.021882042700760558,5.916430470459923e-05,-3.7252349114421794e-05
0.02215143829376665,7.017267495323103e-05,-3.722001486950734e-05
0.022437261813275478,8.131984997999157e-05,-3.7182141738274035e-05
0.02273967485698194,9.261408414755593e-05,-3.7138658254742146e-05
0.02305871163261708,0.00010406368076995568,-3.708948881351277e-05
0.023394275497550025,0.00011567692755249745,-3.7034553661432156e-05
0.023746136787687798,0.0001274620306238069,-3.697376892188808e-05
0.02411393185112583,0.00013942704778351032,-3.690704665228625e-05
0.024497163189466372,0.00015157982154365837,-3.683429493495446e-05
0.024895200603068896,0.0001639279124917922,-3.67554180014456e-05
0.025307283234372813,0.00017647853345115262,-3.6670316389959865e-05
0.025732522406018764,0.0001892384848612505,-3.6578887135381765e-05
0.026169905160628195,0.00020221409175291225,-3.6481023991228226e-05
0.026618298429971658,0.00021541114265056222,-3.6376617682627355e-05
0.027076453792263696,0.00022883483070612105,-3.626555618928819e-05
0.027543012811332628,0.00024248969735702014,-3.6147725057272405e-05
0.028016512977292927,0.0002563795788041765,-3.6023007738232104e-05
0.0284953942684643,0.0002705075556156158,-3.589128595462716e-05
0.028978006320419445,0.0002848759057628368,-3.575244008928254e-05
0.029462616132369397,0.000299486061376034,-3.5606349597497826e-05
0.029947416193986193,0.0003143385694576229,-3.5452893439789415e-05
0.030430532906147268,0.00032943305673265624,-3.5291950533241843e-05
0.03091003520460368,0.000344768198760344,-3.5123400219368594e-05
0.031383943364623315,0.00036034169340265075,-3.494712274632785e-05
0.03185023804406958,0.00037615023875482397,-3.4762999763288477e-05
0.03230686967841784,0.0003921895156854458,-3.457091482467841e-05
0.03275176835219165,0.0004084541751930982,-3.4370753901958776e-05
0.03318285425184306,0.00042493783084410685,-3.416240590044948e-05
0.033598048784399794,0.00044163305660316755,-3.394576317858766e-05
0.03399528643300867,0.00045853139040751966,-3.372072206683499e-05
0.03437252740220529,0.00047562334386632316,-3.348718338326653e-05
0.034727771062847544,0.0004928984184825863,-3.3245052942679304e-05
0.03505907012636034,0.0005103451287798883,-3.2994242055863685e-05
0.03536454537269042,0.0005279510326546509,-3.273466801550505e-05
0.03564240066575097,0.0005457027691642613,-3.2466254565050325e-05
0.03589093794723927,0.0005635861038175089,-3.218893234680488e-05
0.0361085719004453,0.00058158598127943,-3.190263932553065e-05
0.03629384399265654,0.0005996865852527054,-3.160732118389761e-05
0.03644543562007849,0.0006178714051558892,-3.130293168629546e-05
0.036562180093103476,0.0006361233090841846,-3.0989433007735446e-05
0.036643073220466074,0.000654424622412577,-3.0666796024861255e-05
0.03668728228885855,0.0006727572112899082,-3.0335000566435635e-05
0.03669415329338496,0.000691102570185469,-2.999403562106679e-05
0.03666321633784632,0.0007094419125932769,-2.9643899500372103e-05
0.0365941891686467,0.0007277562639699002,-2.9284599956231308e-05
0.03648697882587135,0.0007460265559685297,-2.89161542512467e-05
0.036341681399346404,0.0007642337210248341,-2.853858918199836e-05
0.03615857987706671,0.0007823587863439374,-2.8151941055156166e-05
0.03593814008049144,0.0008003829663333269,-2.775625561698685e-05
0.03568100470674772,0.0008182877525301367,-2.7351587937270984e-05
0.03538798554168745,0.0008360550000922455,-2.693800224911539e-05
0.03506005396120036,0.0008536670099679674,-2.6515571746600337e-05
0.03469832989185963,0.0008711066059312325,-2.6084378342625536e-05
0.034304069454389546,0.0008883572057677947,-2.5644512389700778e-05
0.033878651565040045,0.0009054028860226521,-2.5196072366753165e-05
0.03342356380486176,0.0009222284398651276,-2.473916453528122e-05
0.03294038785733368,0.0009388194277806765,-2.427390256836977e-05
0.03243078476108563,0.0009551622209352813,-2.380040715619078e-05
0.03189648016930178,0.0009712440371678782,-2.331880559166499e-05
0.031339249791371725,0.0009870529696580465,-2.282923133995851e-05
0.03076090521027989,0.0010025780084084595,-2.2331823595441883e-05
0.030163280287821,0.0010178090547829847,-2.182672682964402e-05
0.02954821836806211,0.0010327369294469554,-2.1314090333586537e-05
0.028917560461281494,0.0010473533741542913,-2.0794067757686226e-05
0.02827313452575932,0.0010616510479010514,-2.026681665217239e-05
0.02761674585762517,0.0010756235179968975,-1.97324980106979e-05
0.02695016847047426,0.0010892652465789223,-1.9191275819553943e-05
0.02627513723668223,0.0011025715730057113,-1.8643316614657785e-05
0.025593340503675656,0.0011155386924408008,-1.8088789048296157e-05
0.02490641290638946,0.001128163630793317,-1.752786346748763e-05
0.02421592817250185,0.0011404442160630399,-1.696071150577354e-05
0.023523391842019074,0.00115237904606667,-1.638750569024111e-05
0.022830233964207955,0.0011639674525182268,-1.5808419065594887e-05
0.02213780195824389,0.0011752094614988398,-1.522362483709062e-05
0.021447353902182976,0.0011861057504639464,-1.4633296034099924e-05
0.02076005253127077,0.0011966576020723098,-1.403760519596586e-05
0.020076960185406362,0.001206866855251479,-1.3436724081634911e-05
0.019399034875322668,0.0012167358540166612,-1.2830823404317876e-05
0.01872712756991973,0.0012262673946279719,-1.2220072592156717e-05
0.018061980758995465,0.0012354646717102006,-1.1604639575572173e-05
0.017404228318335983,0.0012443312239795335,-1.098469060164974e-05
0.016754396694203984,0.0012528708802326686,-1.0360390075596689e-05
0.016112907425354463,0.0012610877062625581,-9.731900428972881e-06
0.015480081023571395,0.0012689859533747895,-9.099382014063544e-06
0.01485614222491417,0.0012765700091869109,-8.46299302342312e-06
0.014241226587870304,0.001283844351390107,-7.822889433278866e-06
0.013635388342616614,0.0012908135051227288,-7.179224969150658e-06
0.013038609292924228,0.001297482004531614,-6.532151091737072e-06
0.01245080846202031,0.00130385435897035,-5.881817000861581e-06
0.01187185209752437,0.0013099350241102363,-5.228369655091434e-06
0.011301563647849558,0.0013157283780465799,-4.57195380455223e-06
0.010739733396105813,0.0013212387023075686,-3.912712034463693e-06
0.010186127543079381,0.001326470167542365,-3.2507848170012093e-06
0.009640496610622778,0.0013314268235807905,-2.5863105692204202e-06
0.00910258306653171,0.0013361125935000791,-1.919425714950203e-06
0.008572128072036781,0.0013405312712847213,-1.2502647487540028e-06
0.008048877255426114,0.001344686522616587,-5.789603002786757e-07
