frame_number,force
0,826.5122163805971
1,826.5155357135346
2,826.5198251383421
3,826.5250102107977
4,826.5310124651287
5,826.537749920316
6,826.5451375865899
7,826.553087970977
8,826.5615115808139
9,826.5703174241107
10,826.5794135059106
11,826.588707320431
12,826.5981063393176
13,826.607518496116
14,826.6168526660647
15,826.6260191391896
16,826.6349300839009
17,826.6434999978653
18,826.6516461429358
19,826.6592889617431
20,826.6663524752092
21,826.6727646620662
22,826.678457822397
23,826.6833689266892
24,826.6874399504306
25,826.6906181930503
26,826.692856579501
27,826.6941139423336
28,826.6943552810915
29,826.6935519946398
30,826.6916820815152
31,826.688730303796
32,826.6846883109937
33,826.6795547218777
34,826.6733351639504
35,826.6660422718867
36,826.6576956467513
37,826.6483217769804
38,826.6379539206904
39,826.626631947948
40,826.6144021420608
41,826.6013169608424
42,826.5874347614296
43,826.572819494467
44,826.5575403747175
45,826.5416715356013
46,826.5252916751509
47,826.5084837003765
48,826.4913343760472
49,826.4739339825978
50,826.4563759863388
51,826.4387567234284
52,826.4211750975368
53,826.4037322902387
54,826.38653148275
55,826.3696775872768
56,826.3532769858055
57,826.3374372737865
58,826.3222670061119
59,826.3078754431108
60,826.2943722947856
61,826.2818674620119
62,826.2704707738993
63,826.2602917207507
64,826.2514391815364
65,826.2440211435334
66,826.2381444107016
67,826.2339142973689
68,826.2314343048336
69,826.2308057800884
70,826.2321275576559
71,826.2354955870061
72,826.241002548532
73,826.2487374604653
74,826.2587852781901
75,826.2712264871483
76,826.2861366911051
77,826.3035861981915
78,826.3236396072156
79,826.3463553964694
80,826.3717855171938
81,826.3999749941412
82,826.4309615362546
83,826.4647751611415
84,826.5014378371474
85,826.5409631459337
86,826.5833559670615
87,826.628612185234
88,826.6767184211293
89,826.7276517879332
90,826.7813796770477
91,826.8378595772418
92,826.8970389315432
93,826.9588550360492
94,827.0232349851514
95,827.0900956681818
96,827.1593438226364
97,827.2308761488924
98,827.3045794909499
99,827.380331087115
100,827.4579988934901
101,827.5374419816375
102,827.618511010001
103,827.7010487668612
104,827.7848907811241
105,827.8698659961831
106,827.9557975011495
107,828.0425033127815
108,828.129797200678
109,828.2174895479501
110,828.305388239695
111,828.3932995722182
112,828.4810291766986
113,828.5683829511152
114,828.6551679935282
115,828.7411935289293
116,828.8262718215719
117,828.9102190650592
118,828.9928562430829
119,829.0740099540855
120,829.1535131928755
121,829.2312060813722
122,829.3069365399169
123,829.3805608911633
124,829.4519443910966
125,829.520961685676
126,829.587497195598
127,829.6514454345752
128,829.712711267938
129,829.771210118574
130,829.8268681267534
131,829.8796222696362
132,829.9294204452355
133,829.9762215239928
134,830.0199953689289
135,830.0607228230778
136,830.0983956611954
137,830.133016501739
138,830.1645986746454
139,830.1931660403029
140,830.2187527553749
141,830.2414029820807
142,830.2611705391608
143,830.2781184944517
144,830.2923187001247
145,830.3038512721542
146,830.3128040158285
147,830.3192717994048
148,830.3233558785151
149,830.325163174817
150,830.3248055137188
151,830.322398827532
152,830.3180623314528
153,830.3119176799345
154,830.3040881106307
155,830.2946975829713
156,830.2838699188804
157,830.2717279539215
158,830.2583927079044
159,830.2439825845136
160,830.228612609897
161,830.212393720453
162,830.1954321098934
163,830.1778286444517
164,830.1596783527754
165,830.1410699940595
166,830.1220857047252
167,830.102800720843
168,830.0832831711884
169,830.0635939349334
170,830.0437865584375
171,830.023907226745
172,830.003994786714
173,829.9840808201831
174,829.9641897668981
175,829.9443390973267
176,829.9245395344985
177,829.9047953221592
178,829.8851045349857
179,829.8654594261214
180,829.8458468075835
181,829.8262484594337
182,829.8066415637957
183,829.7869991601418
184,829.7672906189399
185,829.7474821314296
186,829.7275372135404
187,829.7074172215123
188,829.6870818758205
189,829.6664897889905
190,829.6455989922312
191,829.6243674555602
192,829.6027535961425
193,829.5807167697955
194,829.5582177408918
195,829.5352191261035
196,829.5116858075921
197,829.487585311439
198,829.4628881471847
199,829.4375681041635
200,829.4116024999081
201,829.3849723756116
202,829.3576626340118
203,829.3296621163528
204,829.3009636168865
205,829.2715638350452
206,829.2414632665068
207,829.210666034917
208,829.1791796663335
209,829.1470148089265
210,829.1141849012406
211,829.0807057931438
212,829.0465953241845
213,829.0118728644727
214,828.9765588236883
215,828.9406741345667
216,828.9042397183485
217,828.8672759412883
218,828.8298020730851
219,828.7918357593841
220,828.7533925211062
221,828.7144852935902
222,828.6751240185215
223,828.6353153010342
224,828.5950621427806
225,828.5543637591645
226,828.5132154858367
227,828.471608776458
228,828.4295312907979
229,828.3869670695709
230,828.3438967901116
231,828.3002980950273
232,828.2561459844545
233,828.2114132618472
234,828.1660710234828
235,828.1200891826683
236,828.0734370205092
237,828.0260837559524
238,827.9779991285823
239,827.9291539882389
240,827.8795208858971
241,827.8290746604464
242,827.77779301593
243,827.7256570833104
244,827.672651960309
245,827.6187672231123
246,827.5639974049952
247,827.5083424385101
248,827.4518080589656
249,827.3944061672912
250,827.3361551502501
251,827.27708015569
252,827.2172133204181
253,827.1565939486619
254,827.0952686402243
255,827.0332913695021
256,826.9707235189467
257,826.9076338721542
258,826.844098571736
259,826.7802010453973
260,826.7160319009665
261,826.6516887886157
262,826.5872762269456
263,826.5229053888029
264,826.4586938420019
265,826.3947652394914
266,826.3312489536132
267,826.2682796503547
268,826.2059968013965
269,826.1445441334864
270,826.0840690161187
271,826.0247217900894
272,825.9666550412262
273,825.9100228249008
274,825.8549798475319
275,825.8016806114803
276,825.7502785299091
277,825.7009250186665
278,825.6537685733462
279,825.608953841381
280,825.5666207007142
281,825.5269033574883
282,825.4899294748244
283,825.4558193433335
284,825.4246851022341
285,825.3966300185302
286,825.3717478306878
287,825.3501221619968
288,825.3318260067053
289,825.3169212893506
290,825.3054584956321
291,825.2974763726087
292,825.2930016967529
293,825.2920491096738
294,825.2946210224835
295,825.3007075905278
296,825.3102867600919
297,825.3233243874183
298,825.3397744283817
299,825.3595791954117
300,825.3826696775461
301,825.4089659199576
302,825.4383774604044
303,825.4708038209617
304,825.5061350535433
305,825.5442523370829
306,825.5850286229363
307,825.6283293233282
308,825.6740130362903
309,825.7219323004676
310,825.7719343743653
311,825.8238620358788
312,825.8775543981128
313,825.9328477363422
314,825.9895763189846
315,826.0475732330088
316,826.1066711918605
317,826.1667033127034
318,826.2275038503348
319,826.2889088774776
320,826.3507569045329
321,826.4128894353568
322,826.4751514582107
323,826.5373918722493
324,826.5994638502618
325,826.6612251386877
326,826.722538296495
327,826.783270875482
328,826.8432955462753
329,826.9024901767431
330,826.9607378719343
331,827.0179269863178
332,827.0739511199372
333,827.1287091101657
334,827.1821050298714
335,827.2340482009652
336,827.2844532298147
337,827.3332400681514
338,827.3803341000942
339,827.4256662532407
340,827.4691731298599
341,827.5107971529351
342,827.5504867206317
343,827.5881963615216
344,827.62388688197
345,827.6575254968349
346,827.6890859350448
347,827.7185485127001
348,827.74590016822
349,827.7711344566236
350,827.7942515026011
351,827.8152579138037
352,827.8341666564705
353,827.8509968955775
354,827.865773801793
355,827.8785283277765
356,827.889296956302
357,827.8981214221355
358,827.9050484090413
359,827.9101292233968
360,827.9134194467907
361,827.9149785711447
362,827.9148696205698
363,827.9131587640627
364,827.9099149227116
365,827.9052093750855
366,827.8991153653607
367,827.8917077201519
368,827.883062480935
369,827.8732565584436
370,827.8623674137395
371,827.8504727687629
372,827.8376503473474
373,827.8239776453001
374,827.8095317249324
375,827.7943890263859
376,827.7786251865961
377,827.7623148571009
378,827.7455315132057
379,827.7283472484536
380,827.7108325501174
381,827.6930560539997
382,827.6750842799605
383,827.6569813522368
384,827.638808709825
385,827.62062481197
386,827.602484843047
387,827.5844404206316
388,827.5665393103579
389,827.54882515102
390,827.5313371933654
391,827.5141100562057
392,827.4971735034492
393,827.4805522453663
394,827.464265767137
395,827.4483281876736
396,827.432748151694
397,827.417528757906
398,827.4026675260159
399,827.3881564051343
400,827.373981825912
401,827.360124798095
402,827.346561053885
403,827.3332612358968
404,827.3201911275346
405,827.3073119236855
406,827.2945805399555
407,827.2819499582329
408,827.2693696052935
409,827.2567857606323
410,827.2441419903865
411,827.2313796056466
412,827.2184381445777
413,827.2052558778861
414,827.1917703361496
415,827.1779188556854
416,827.1636391374253
417,827.1488698114493
418,827.1335509992355
419,827.117624866588
420,827.1010361621022
421,827.0837327378432
422,827.0656660497607
423,827.0467916350932
424,827.027069563348
425,827.0064648572366
426,826.9849478803955
427,826.9624946892931
428,826.9390873468179
429,826.9147141943788
430,826.8893700778813
431,826.8630565210062
432,826.83578183777
433,826.807561176522
434,826.7784164895205
435,826.748376425007
436,826.7174761411505
437,826.6857570430658
438,826.6532664456614
439,826.6200571665818
440,826.5861870547685
441,826.5517184609861
442,826.516717657422
443,826.481254214986
444,826.445400349408
445,826.4092302497185
446,826.3728194038231
447,826.3362439351957
448,826.2995799629873
449,826.262902995835
450,826.2262873673764
451,826.189805718818
452,826.1535285314441
453,826.1175237104843
454,826.0818562214532
455,826.0465877803144
456,826.0117765990134
457,825.9774771878699
458,825.9437402159119
459,825.9106124290569
460,825.8781366241927
461,825.8463516757557
462,825.8152926113676
463,825.7849907341936
464,825.7554737905999
465,825.7267661815737
466,825.6988892152926
467,825.6718613964365
468,825.6456987454483
469,825.6204151385241
470,825.5960226576186
471,825.5725319397806
472,825.5499525162747
473,825.5282931332158
474,825.5075620462238
475,825.4877672823931
476,825.46891686458
477,825.4510189957591
478,825.4340822038969
479,825.4181154493831
480,825.4031281974903
481,825.3891304582583
482,825.3761327960042
483,825.3641463102501
484,825.3531825892636
485,825.3432536371239
486,825.3343717755007
487,825.3265495216609
488,825.3197994439863
489,825.3141339955695
490,825.3095653257643
491,825.3061050692772
492,825.3037641127727
493,825.3025523402366
494,825.3024783604574
495,825.3035492223846
496,825.3057701259422
497,825.3091441364394
498,825.3136719100393
499,825.3193514363069
500,825.3261778020504
501,825.3341429787396
502,825.3432356340394
503,825.3534409666873
504,825.3647405632181
505,825.3771122751408
506,825.3905301161451
507,825.4049641801936
508,825.4203805822464
509,825.4367414237176
510,825.4540047848843
511,825.4721247464652
512,825.4910514425269
513,825.5107311470094
514,825.531106396617
515,825.5521161533244
516,825.5736960098352
517,825.5957784407091
518,825.6182931004244
519,825.6411671674236
520,825.6643257304206
521,825.687692210334
522,825.7111888086152
523,825.7347369707594
524,825.7582578526744
525,825.7816727777498
526,825.8049036742696
527,825.8278734857805
528,825.850506549778
529,825.8727289415465
530,825.8944687803101
531,825.9156564948827
532,825.9362250464774
533,825.9561101074795
534,825.9752501967919
535,825.9935867746285
536,826.0110643019317
537,826.0276302714709
538,826.0432352186689
539,826.0578327199948
540,826.0713793858105
541,826.0838348539596
542,826.0951617908025
543,826.1053259071348
544,826.1142959963022
545,826.1220440004148
546,826.1285451082466
547,826.1337778854654
548,826.1377244344126
549,826.1403705772934
550,826.1417060541764
551,826.1417247261148
552,826.1404247739555
553,826.13780888456
554,826.1338844176864
555,826.1286635482406
556,826.122163379829
557,826.114406026509
558,826.1054186604688
559,826.0952335243599
560,826.0838879081475
561,826.0714240911601
562,826.0578892501466
563,826.0433353337943
564,826.0278189037538
565,826.0114009419801
566,825.994146624028
567,825.9761250577185
568,825.9574089865343
569,825.9380744575744
570,825.918200454991
571,825.8978685010243
572,825.8771622274588
573,825.8561669204131
574,825.8349690411433
575,825.8136557254745
576,825.7923142650588
577,825.7710315750904
578,825.7498936548889
579,825.7289850491387
580,825.7083883182218
581,825.6881835258777
582,825.6684477510979
583,825.6492546287187
584,825.6306739204731
585,825.6127711163255
586,825.5956070650702
587,825.579237633173
588,825.5637133913524
589,825.5490793293594
590,825.5353746007836
591,825.522632301192
592,825.5108792839054
593,825.5001360178777
594,825.4904164914716
595,825.481728164661
596,825.4740719708352
597,825.4674423685335
598,825.4618274432222
599,825.457209059258
600,825.4535630622115
601,825.4508595317318
602,825.4490630850078
603,825.4481332302544
604,825.4480247684459
605,825.4486882402135
606,825.4500704139587
607,825.4521148106029
608,825.4547622594505
609,825.4579514783834
610,825.461619670583
611,825.4657031294328
612,825.4701378429013
613,825.4748600883524
614,825.4798070085004
615,825.4849171591176
616,825.4901310189538
617,825.4953914525028
618,825.5006441175713
619,825.5058378124126
620,825.5109247606794
621,825.5158608351734
622,825.5206057223141
623,825.525123028788
624,825.5293803312612
625,825.5333491700836
626,825.5370049882358
627,825.5403270170281
628,825.5432981105814
629,825.5459045321936
630,825.5481356970411
631,825.5499838770714
632,825.5514438755392
633,825.5525126802178
634,825.5531891050753
635,825.5534734297056
636,825.5533670448015
637,825.5528721114557
638,825.5519912421462
639,825.5507272110763
640,825.5490827005957
641,825.5470600889913
642,825.5446612835951
643,825.5418876023772
644,825.5387397072218
645,825.5352175925447
646,825.5313206326687
647,825.5270476894451
648,825.5223972780902
649,825.5173677852048
650,825.511957729609
651,825.5061660546666
652,825.499992440378
653,825.4934376243862
654,825.4865037223265
655,825.479194538894
656,825.4715158616507
657,825.4634757308521
658,825.4550846808748
659,825.4463559514146
660,825.4373056683742
661,825.4279529948844
662,825.4183202526993
663,825.4084330141301
664,825.3983201652602
665,825.3880139421019
666,825.3775499419177
667,825.3669671117639
668,825.3563077154513
669,825.3456172790042
670,825.3349445142856
671,825.3243412215847
672,825.3138621742522
673,825.3035649904044
674,825.2935099969525
675,825.2837600897044
676,825.2743805911338
677,825.2654391057865
678,825.257005372563
679,825.2491511127276
680,825.2419498719005
681,825.2354768534572
682,825.2298087399929
683,825.2250234989065
684,825.2212001679578
685,825.2184186172791
686,825.2167592859807
687,825.2163028938294
688,825.2171301307368
689,825.2193213282503
690,825.2229561175377
691,825.2281130776337
692,825.2348693764274
693,825.2433004057136
694,825.2534794113043
695,825.2654771198355
696,825.279361364813
697,825.2951967146621
698,825.3130441047473
699,825.3329604740125
700,825.3549984059508
701,825.3792057736576
702,825.4056253898134
703,825.4342946641832
704,825.4652452727901
705,825.498502843442
706,825.5340866615818
707,825.5720093994325
708,825.6122768711525
709,825.654887817248
710,825.6998337220903
711,825.7470986684132
712,825.7966592321641
713,825.8484844205211
714,825.9025356555658
715,825.9587668058093
716,826.0171242671809
717,826.0775470941666
718,826.1399671805731
719,826.2043094877798
720,826.2704923165556
721,826.3384276171693
722,826.4080213319901
723,826.479173764914
724,826.5517799725015
725,826.6257301724346
726,826.700910165475
727,826.7772017674434
728,826.8544832481351
729,826.932629774868
730,827.0115138592631
731,827.0910058062595
732,827.1709741639864
733,827.2512861721709
734,827.3318082055962
735,827.4124062081477
736,827.4929461128052
737,827.5732942440679
738,827.6533177015228
739,827.7328847257447
740,827.8118650497755
741,827.8901302408889
742,827.9675540382207
743,828.0440126919086
744,828.1193853085226
745,828.1935542060675
746,828.2664052801504
747,828.337828381137
748,828.4077177002403
749,828.475972160706
750,828.5424958090158
751,828.6071982006465
752,828.6699947751711
753,828.7308072154719
754,828.7895637849244
755,828.8461996351218
756,828.9006570762095
757,828.9528858025228
758,829.0028430673988
759,829.0504938023319
760,829.0958106772799
761,829.1387741010524
762,829.1793721629352
763,829.2176005182826
764,829.2534622211748
765,829.2869675064658
766,829.3181335223612
767,829.3469840140926
768,829.3735489597881
769,829.3978641611005
770,829.4199707929729
771,829.4399149186045
772,829.4577469768394
773,829.4735212496406
774,829.487295317328
775,829.4991295092896
776,829.509086358003
777,829.5172300640445
778,829.5236259789103
779,829.528340111038
780,829.531438658993
781,829.5329875749154
782,829.5330521610413
783,829.5316967018812
784,829.5289841338986
785,829.5249757534666
786,829.519730963272
787,829.5133070575542
788,829.5057590472405
789,829.4971395267428
790,829.4874985847715
791,829.4768837616584
792,829.4653400547551
793,829.4529099711499
794,829.4396336237394
795,829.4255488638101
796,829.4106914418094
797,829.395095187973
798,829.378792205177
799,829.3618130671496
800,829.3441870158914
801,829.3259421527024
802,829.3071056172563
803,829.287703748691
804,829.2677622224089
805,829.2473061570964
806,829.2263601883305
807,829.2049485070334
808,829.1830948620053
809,829.1608225257995
810,829.1381542230448
811,829.1151120208427
812,829.091717182462
813,829.0679899879253
814,829.0439495274621
815,829.0196134757307
816,828.9949978562174
817,828.9701168062622
818,828.9449823534802
819,828.9196042139555
820,828.8939896219084
821,828.8681431999946
822,828.8420668788331
823,828.8157598730231
824,828.7892187183508
825,828.7624373715432
826,828.7354073706148
827,828.7081180510224
828,828.6805568107261
829,828.6527094157696
830,828.6245603368484
831,828.5960931065329
832,828.5672906869978
833,828.5381358397145
834,828.5086114911863
835,828.4787010917164
836,828.4483889667613
837,828.4176606619084
838,828.3865032821226
839,828.3549058237124
840,828.3228594947826
841,828.290358018413
842,828.2573979131389
843,828.2239787468909
844,828.1901033621446
845,828.1557780708879
846,828.1210128184512
847,828.085821315869
848,828.0502211412105
849,828.0142338105371
850,827.9778848184555
851,827.9412036469498
852,827.9042237399277
853,827.8669824403248
854,827.8295208871061
855,827.7918838709126
856,827.7541196486931
857,827.7162797188108
858,827.6784185587286
859,827.6405933275495
860,827.6028635356104
861,827.565290683499
862,827.5279378738462
863,827.4908694010517
864,827.4541503260957
865,827.4178460449433
866,827.3820218591828
867,827.3467425562613
868,827.3120720043693
869,827.2780727646291
870,827.2448057216926
871,827.2123297332574
872,827.1807012987173
873,827.1499742464872
874,827.1201994384766
875,827.091424489261
876,827.0636934973102
877,827.0370467863169
878,827.0115206558154
879,826.9871471411744
880,826.9639537833357
881,826.9419634086487
882,826.9211939193642
883,826.9016580958041
884,826.8833634117497
885,826.8663118653063
886,826.8504998285231
887,826.8359179199322
888,826.8225509043417
889,826.8103776235159
890,826.7993709599845
891,826.7894978343887
892,826.7807192350299
893,826.7729902774597
894,826.7662602924083
895,826.760472941494
896,826.7555663612994
897,826.7514733375443
898,826.7481215125309
899,826.7454336304801
900,826.7433278260752
901,826.7417179612324
902,826.7405140140223
903,826.7396225220155
904,826.7389470805174
905,826.7383888947593
906,826.7378473842961
907,826.7372208371853
908,826.7364071106205
909,826.735304373574
910,826.7338118856901
911,826.7318308052405
912,826.7292650177153
913,826.726021975795
914,826.7220135409794
915,826.7171568168969
916,826.7113749642375
917,826.7045979873413
