frame_number,force
0,826.512216380779
1,826.5155357137463
2,826.5198251385956
3,826.5250102111037
4,826.531012465496
5,826.5377499207518
6,826.5451375870991
7,826.5530879715627
8,826.5615115814777
9,826.5703174248533
10,826.5794135067317
11,826.5887073213304
12,826.5981063402951
13,826.607518497171
14,826.6168526671973
15,826.6260191404003
16,826.6349300851904
17,826.6434999992341
18,826.6516461443845
19,826.6592889632722
20,826.6663524768193
21,826.6727646637576
22,826.6784578241695
23,826.6833689285422
24,826.6874399523631
25,826.69061819506
26,826.6928565815853
27,826.6941139444895
28,826.6943552833161
29,826.6935519969311
30,826.6916820838719
31,826.6887303062186
32,826.684688313484
33,826.6795547244385
34,826.6733351665853
35,826.6660422746003
36,826.6576956495486
37,826.6483217798668
38,826.6379539236711
39,826.6266319510272
40,826.6144021452415
41,826.6013169641269
42,826.5874347648199
43,826.5728194979648
44,826.5575403783234
45,826.5416715393151
46,826.5252916789715
47,826.5084837043023
48,826.4913343800764
49,826.4739339867284
50,826.4563759905697
51,826.4387567277588
52,826.4211751019669
53,826.4037322947695
54,826.386531487383
55,826.3696775920132
56,826.3532769906453
57,826.3374372787277
58,826.3222670111512
59,826.3078754482441
60,826.2943723000079
61,826.281867467317
62,826.2704707792802
63,826.260291726199
64,826.2514391870424
65,826.2440211490876
66,826.2381444162945
67,826.2339143029901
68,826.2314343104723
69,826.2308057857333
70,826.2321275632952
71,826.2354955926285
72,826.2410025541265
73,826.2487374660204
74,826.2587852836949
75,826.2712264925918
76,826.2861366964769
77,826.3035862034812
78,826.3236396124133
79,826.3463554015655
80,826.3717855221786
81,826.3999749990064
82,826.4309615409929
83,826.4647751657465
84,826.5014378416136
85,826.5409631502564
86,826.5833559712368
87,826.6286121892579
88,826.6767184249981
89,826.7276517916442
90,826.7813796805996
91,826.8378595806344
92,826.8970389347777
93,826.9588550391285
94,827.0232349880797
95,827.0900956709644
96,827.1593438252792
97,827.2308761514015
98,827.3045794933319
99,827.3803310893768
100,827.4579988956392
101,827.5374419836828
102,827.618511011953
103,827.7010487687322
104,827.7848907829281
105,827.8698659979349
106,827.9557975028647
107,828.0425033144764
108,828.1297972023697
109,828.2174895496563
110,828.3053882414339
111,828.3932995740079
112,828.4810291785584
113,828.5683829530649
114,828.6551679955877
115,828.7411935311185
116,828.8262718239101
117,828.9102190675651
118,828.9928562457739
119,829.0740099569772
120,829.1535131959816
121,829.2312060847044
122,829.3069365434845
123,829.380560894974
124,829.4519443951567
125,829.5209616899896
126,829.5874972001677
127,829.6514454394022
128,829.7127112730218
129,829.7712101239126
130,829.8268681323427
131,829.8796222754697
132,829.929420451305
133,829.9762215302878
134,830.0199953754369
135,830.0607228297844
136,830.0983956680847
137,830.1330165087938
138,830.1645986818473
139,830.1931660476318
140,830.2187527628099
141,830.2414029896007
142,830.2611705467448
143,830.2781185020781
144,830.2923187077719
145,830.3038512798013
146,830.3128040234558
147,830.319271806994
148,830.32335588605
149,830.3251631822823
150,830.3248055211009
151,830.3223988348187
152,830.3180623386336
153,830.3119176869995
154,830.304088117571
155,830.2946975897789
156,830.283869925549
157,830.2717279604461
158,830.2583927142814
159,830.243982590741
160,830.228612615974
161,830.2123937263801
162,830.1954321156727
163,830.1778286500859
164,830.1596783582673
165,830.141069999412
166,830.1220857099406
167,830.1028007259226
168,830.0832831761331
169,830.063593939744
170,830.0437865631153
171,830.0239072312908
172,830.0039947911289
173,829.984080824469
174,829.9641897710568
175,829.9443391013602
176,829.9245395384083
177,829.9047953259463
178,829.8851045386507
179,829.8654594296659
180,829.8458468110097
181,829.8262484627444
182,829.8066415669941
183,829.7869991632322
184,829.7672906219274
185,829.7474821343203
186,829.7275372163406
187,829.7074172242283
188,829.6870818784582
189,829.6664897915555
190,829.6455989947281
191,829.6243674579936
192,829.6027535985173
193,829.580716772117
194,829.5582177431658
195,829.5352191283367
196,829.5116858097923
197,829.4875853136139
198,829.4628881493422
199,829.4375681063124
200,829.4116025020578
201,829.384972377772
202,829.3576626361938
203,829.3296621185672
204,829.3009636191443
205,829.2715638373579
206,829.2414632688857
207,829.2106660373727
208,829.1791796688751
209,829.1470148115625
210,829.1141849039782
211,829.0807057959889
212,829.0465953271421
213,829.0118728675476
214,828.9765588268848
215,828.940674137888
216,828.9042397217956
217,828.8672759448602
218,828.8298020767786
219,828.7918357631936
220,828.7533925250241
221,828.7144852976079
222,828.67512402263
223,828.6353153052238
224,828.5950621470412
225,828.5543637634853
226,828.5132154902059
227,828.4716087808628
228,828.4295312952239
229,828.3869670740039
230,828.343896794537
231,828.3002980994314
232,828.2561459888244
233,828.2114132661711
234,828.1660710277505
235,828.1200891868702
236,828.0734370246364
237,828.0260837599958
238,827.9779991325332
239,827.9291539920891
240,827.8795208896393
241,827.8290746640743
242,827.7777930194393
243,827.725657086698
244,827.6726519635731
245,827.618767226252
246,827.563997408011
247,827.5083424414039
248,827.4518080617405
249,827.3944061699509
250,827.336155152799
251,827.2770801581335
252,827.2172133227621
253,827.1565939509125
254,827.0952686423875
255,827.0332913715838
256,826.9707235209522
257,826.9076338740886
258,826.8440985736036
259,826.7802010472021
260,826.7160319027129
261,826.6516887903083
262,826.5872762285899
263,826.5229053904059
264,826.4586938435723
265,826.3947652410393
266,826.3312489551491
267,826.2682796518898
268,826.2059968029419
269,826.1445441350529
270,826.0840690177167
271,826.0247217917282
272,825.966655042914
273,825.9100228266448
274,825.8549798493389
275,825.8016806133554
276,825.7502785318562
277,825.700925020688
278,825.6537685754437
279,825.6089538435542
280,825.5666207029612
281,825.5269033598056
282,825.4899294772066
283,825.4558193457741
284,825.4246851047255
285,825.3966300210644
286,825.3717478332562
287,825.3501221645909
288,825.3318260093171
289,825.3169212919724
290,825.3054584982575
291,825.2974763752317
292,825.2930016993682
293,825.2920491122769
294,825.2946210250695
295,825.3007075930922
296,825.3102867626301
297,825.3233243899265
298,825.3397744308576
299,825.3595791978548
300,825.3826696799576
301,825.4089659223403
302,825.4383774627621
303,825.4708038232992
304,825.5061350558657
305,825.5442523393953
306,825.5850286252443
307,825.6283293256373
308,825.6740130386064
309,825.721932302797
310,825.7719343767138
311,825.8238620382522
312,825.8775544005159
313,825.9328477387794
314,825.9895763214594
315,826.0475732355236
316,826.1066711944167
317,826.1667033153014
318,826.2275038529743
319,826.2889088801575
320,826.3507569072517
321,826.4128894381134
322,826.4751514610041
323,826.5373918750782
324,826.5994638531249
325,826.6612251415833
326,826.7225382994222
327,826.7832708784406
328,826.8432955492657
329,826.9024901797668
330,826.9607378749943
331,827.0179269894186
332,827.0739511230843
333,827.1287091133645
334,827.1821050331273
335,827.2340482042827
336,827.2844532331973
337,827.3332400716012
338,827.3803341036127
339,827.4256662568299
340,827.4691731335218
341,827.5107971566715
342,827.5504867244437
343,827.5881963654089
344,827.6238868859308
345,827.6575255008662
346,827.6890859391431
347,827.7185485168615
348,827.7459001724403
349,827.7711344608983
350,827.7942515069257
351,827.8152579181742
352,827.8341666608837
353,827.8509969000304
354,827.8657738062825
355,827.878528332299
356,827.8892969608526
357,827.8981214267083
358,827.9050484136292
359,827.9101292279912
360,827.9134194513824
361,827.9149785757241
362,827.9148696251266
363,827.9131587685866
364,827.9099149271924
365,827.9052093795136
366,827.899115369727
367,827.891707724448
368,827.8830624851531
369,827.873256562576
370,827.8623674177786
371,827.8504727727013
372,827.8376503511785
373,827.8239776490179
374,827.8095317285329
375,827.7943890298662
376,827.7786251899547
377,827.7623148603379
378,827.7455315163235
379,827.7283472514557
380,827.7108325530077
381,827.6930560567819
382,827.6750842826386
383,827.6569813548153
384,827.6388087123089
385,827.6206248143652
386,827.6024848453592
387,827.5844404228657
388,827.5665393125187
389,827.5488251531114
390,827.5313371953908
391,827.514110058168
392,827.4971735053505
393,827.4805522472084
394,827.4642657689211
395,827.4483281894004
396,827.4327481533642
397,827.4175287595205
398,827.402667527576
399,827.3881564066419
400,827.37398182737
401,827.3601247995074
402,827.3465610552568
403,827.3332612372335
404,827.3201911288431
405,827.3073119249733
406,827.2945805412313
407,827.281949959506
408,827.269369606574
409,827.2567857619306
410,827.2441419917133
411,827.2313796070118
412,827.218438145991
413,827.2052558793571
414,827.1917703376878
415,827.1779188572992
416,827.1636391391218
417,827.148869813234
418,827.1335510011121
419,827.117624868558
420,827.1010361641654
421,827.0837327399985
422,827.0656660520062
423,827.0467916374268
424,827.027069565767
425,827.0064648597364
426,826.9849478829703
427,826.9624946919362
428,826.939087349522
429,826.9147141971364
430,826.8893700806848
431,826.8630565238478
432,826.8357818406412
433,826.8075611794136
434,826.7784164924228
435,826.7483764279102
436,826.7174761440444
437,826.6857570459401
438,826.6532664485046
439,826.6200571693815
440,826.5861870575122
441,826.5517184636615
442,826.5167176600177
443,826.4812542174919
444,826.4454003518157
445,826.4092302520218
446,826.3728194060177
447,826.3362439372786
448,826.299579964957
449,826.2629029976915
450,826.2262873691212
451,826.1898057204544
452,826.1535285329765
453,826.1175237119181
454,826.0818562227952
455,826.0465877815727
456,826.0117766001973
457,825.9774771889898
458,825.9437402169792
459,825.9106124300835
460,825.8781366251911
461,825.8463516767388
462,825.815292612348
463,825.7849907351838
464,825.7554737916125
465,825.726766182622
466,825.6988892163903
467,825.6718613975967
468,825.6456987466836
469,825.6204151398473
470,825.596022659042
471,825.5725319413149
472,825.5499525179292
473,825.5282931349983
474,825.5075620481409
475,825.4877672844501
476,825.4689168667811
477,825.4510189981073
478,825.4340822063944
479,825.4181154520312
480,825.4031282002899
481,825.3891304612091
482,825.3761327991058
483,825.3641463135009
484,825.353182592661
485,825.3432536406648
486,825.3343717791813
487,825.3265495254765
488,825.3197994479314
489,825.3141339996382
490,825.3095653299498
491,825.3061050735716
492,825.303764117167
493,825.3025523447216
494,825.302478365024
495,825.3035492270238
496,825.305770130645
497,825.309144141197
498,825.3136719148434
499,825.3193514411497
500,825.3261778069242
501,825.3341429836368
502,825.3432356389532
503,825.3534409716111
504,825.3647405681453
505,825.377112280065
506,825.3905301210601
507,825.4049641850934
508,825.4203805871247
509,825.4367414285675
510,825.4540047896987
511,825.472124751237
512,825.4910514472492
513,825.5107311516755
514,825.531106401221
515,825.5521161578607
516,825.5736960142984
517,825.595778445094
518,825.6182931047267
519,825.6411671716398
520,825.6643257345472
521,825.687692214368
522,825.7111888125535
523,825.7347369745993
524,825.758257856414
525,825.7816727813878
526,825.8049036778049
527,825.8278734892125
528,825.8505065531068
529,825.8727289447738
530,825.8944687834387
531,825.9156564979164
532,825.9362250494214
533,825.9561101103392
534,825.9752501995736
535,825.9935867773399
536,826.0110643045814
537,826.0276302740675
538,826.0432352212206
539,826.0578327225096
540,826.071379388296
541,826.0838348564237
542,826.0951617932533
543,826.1053259095817
544,826.1142959987557
545,826.1220440028857
546,826.1285451107458
547,826.1337778880044
548,826.1377244370034
549,826.1403705799487
550,826.1417060569087
551,826.1417247289368
552,826.1404247768801
553,826.1378088876
554,826.1338844208542
555,826.1286635515468
556,826.1221633832816
557,826.1144060301139
558,826.1054186642286
559,826.0952335282743
560,826.0838879122135
561,826.0714240953715
562,826.057889254495
563,826.0433353382692
564,826.0278189083431
565,826.0114009466707
566,825.9941466288062
567,825.97612506257
568,825.9574089914439
569,825.938074462528
570,825.9182004599751
571,825.8978685060262
572,825.8771622324666
573,825.856166925416
574,825.8349690461315
575,825.8136557304393
576,825.7923142699922
577,825.771031579985
578,825.7498936597383
579,825.7289850539374
580,825.7083883229648
581,825.6881835305608
582,825.6684477557178
583,825.6492546332723
584,825.6306739249577
585,825.6127711207384
586,825.5956070694098
587,825.5792376374374
588,825.5637133955397
589,825.5490793334668
590,825.5353746048075
591,825.5226323051282
592,825.5108792877487
593,825.5001360216214
594,825.4904164951082
595,825.4817281681829
596,825.4740719742346
597,825.4674423718023
598,825.4618274463526
599,825.457209062242
600,825.4535630650415
601,825.4508595344009
602,825.4490630875093
603,825.4481332325817
604,825.4480247705931
605,825.448688242176
606,825.4500704157335
607,825.4521148121886
608,825.4547622608463
609,825.4579514795894
610,825.4616196716
611,825.4657031302627
612,825.4701378435464
613,825.4748600888155
614,825.4798070087846
615,825.4849171592267
616,825.490131018893
617,825.495391452278
618,825.5006441171898
619,825.5058378118822
620,825.5109247600088
621,825.515860834372
622,825.5206057213921
623,825.5251230277571
624,825.529380330134
625,825.5333491688733
626,825.537004986955
627,825.540327015689
628,825.5432981091957
629,825.5459045307728
630,825.5481356955967
631,825.5499838756147
632,825.5514438740797
633,825.5525126787638
634,825.5531891036339
635,825.5534734282828
636,825.5533670434022
637,825.5528721100846
638,825.5519912408079
639,825.5507272097752
640,825.5490826993363
641,825.5470600877777
642,825.5446612824319
643,825.5418876012691
644,825.5387397061738
645,825.5352175915617
646,825.5313206317556
647,825.5270476886071
648,825.5223972773326
649,825.5173677845326
650,825.5119577290272
651,825.5061660541807
652,825.4999924399931
653,825.4934376241072
654,825.486503722158
655,825.47919453884
656,825.4715158617146
657,825.4634757310372
658,825.4550846811848
659,825.4463559518531
660,825.437305668945
661,825.4279529955916
662,825.4183202535473
663,825.408433015124
664,825.3983201664058
665,825.3880139434049
666,825.3775499433834
667,825.366967113397
668,825.3563077172557
669,825.3456172809828
670,825.3349445164404
671,825.3243412239173
672,825.3138621767635
673,825.3035649930948
674,825.2935099998217
675,825.2837600927512
676,825.274380594356
677,825.265439109181
678,825.2570053761258
679,825.2491511164549
680,825.2419498757881
681,825.2354768575018
682,825.2298087441915
683,825.2250235032559
684,825.2212001724549
685,825.2184186219209
686,825.2167592907643
687,825.2163028987515
688,825.2171301357937
689,825.2193213334383
690,825.222956122853
691,825.2281130830728
692,825.2348693819869
693,825.2433004113897
694,825.2534794170926
695,825.2654771257313
696,825.2793613708108
697,825.2951967207554
698,825.3130441109283
699,825.3329604802725
700,825.3549984122802
701,825.3792057800459
702,825.4056253962499
703,825.4342946706564
704,825.4652452792888
705,825.498502849955
706,825.5340866680982
707,825.572009405942
708,825.6122768776457
709,825.6548878237166
710,825.699833728527
711,825.7470986748106
712,825.7966592385153
713,825.8484844268199
714,825.9025356618062
715,825.9587668119854
716,826.0171242732868
717,826.0775471001969
718,826.1399671865237
719,826.2043094936485
720,826.2704923223408
721,826.3384276228705
722,826.4080213376083
723,826.479173770451
724,826.5517799779605
725,826.6257301778194
726,826.7009101707897
727,826.777201772692
728,826.854483253322
729,826.9326297799984
730,827.0115138643431
731,827.0910058112964
732,827.1709741689888
733,827.2512861771479
734,827.3318082105573
735,827.412406213102
736,827.4929461177617
737,827.5732942490354
738,827.6533177065104
739,827.732884730762
740,827.8118650548324
741,827.8901302459959
742,827.9675540433877
743,828.0440126971453
744,828.1193853138377
745,828.1935542114688
746,828.2664052856455
747,828.3378283867329
748,828.4077177059424
749,828.475972166519
750,828.5424958149429
751,828.6071982066894
752,828.6699947813306
753,828.7308072217484
754,828.7895637913174
755,828.8461996416302
756,828.9006570828311
757,828.9528858092552
758,829.0028430742399
759,829.0504938092795
760,829.0958106843322
761,829.1387741082073
762,829.1793721701908
763,829.2176005256365
764,829.2534622286239
765,829.2869675140059
766,829.3181335299882
767,829.3469840218028
768,829.3735489675774
769,829.3978641689647
770,829.4199708009058
771,829.4399149265989
772,829.4577469848865
773,829.4735212577299
774,829.4872953254481
775,829.4991295174281
776,829.5090863661461
777,829.5172300721784
778,829.5236259870212
779,829.5283401191122
780,829.5314386670165
781,829.5329875828744
782,829.5330521689231
783,829.5316967096742
784,829.5289841415921
785,829.524975761051
786,829.5197309707382
787,829.5133070648955
788,829.5057590544527
789,829.4971395338252
790,829.4874985917263
791,829.4768837684896
792,829.4653400614686
793,829.4529099777537
794,829.4396336302435
795,829.4255488702262
796,829.4106914481495
797,829.3950951942494
798,829.3787922114022
799,829.3618130733361
800,829.344187022051
801,829.3259421588463
802,829.3071056233949
803,829.2877037548333
804,829.2677622285622
805,829.2473061632675
806,829.2263601945256
807,829.2049485132577
808,829.1830948682631
809,829.1608225320937
810,829.1381542293782
811,829.1151120272178
812,829.0917171888802
813,829.0679899943874
814,829.0439495339682
815,829.0196134822806
816,828.9949978628109
817,828.9701168128989
818,828.9449823601599
819,828.919604220678
820,828.8939896286729
821,828.8681432067993
822,828.8420668856756
823,828.8157598799004
824,828.7892187252593
825,828.7624373784795
826,828.7354073775743
827,828.708118058
828,828.6805568177159
829,828.6527094227657
830,828.6245603438454
831,828.5960931135253
832,828.5672906939806
833,828.5381358466832
834,828.5086114981369
835,828.4787010986456
836,828.4483889736667
837,828.4176606687886
838,828.3865032889764
839,828.3549058305393
840,828.322859501582
841,828.2903580251848
842,828.2573979198824
843,828.2239787536049
844,828.190103368827
845,828.1557780775353
846,828.1210128250596
847,828.0858213224332
848,828.0502211477246
849,828.0142338169953
850,827.9778848248513
851,827.9412036532761
852,827.9042237461774
853,827.8669824464907
854,827.8295208931809
855,827.7918838768886
856,827.754119654563
857,827.7162797245675
858,827.6784185643655
859,827.6405933330616
860,827.602863540994
861,827.5652906887518
862,827.5279378789667
863,827.490869406039
864,827.4541503309504
865,827.4178460496669
866,827.3820218637777
867,827.3467425607304
868,827.3120720087154
869,827.2780727688561
870,827.2448057258042
871,827.2123297372572
872,827.1807013026084
873,827.1499742502722
874,827.1201994421574
875,827.0914244928397
876,827.0636935007894
877,827.0370467897001
878,827.0115206591057
879,826.9871471443755
880,826.9639537864514
881,826.9419634116828
882,826.9211939223202
883,826.9016580986852
884,826.8833634145586
885,826.8663118680456
886,826.8504998311952
887,826.8359179225395
888,826.8225509068874
889,826.810377626004
890,826.7993709624193
891,826.7894978367751
892,826.7807192373728
893,826.772990279765
894,826.7662602946828
895,826.7604729437445
896,826.7555663635342
897,826.7514733397722
898,826.7481215147618
899,826.7454336327241
900,826.743327828342
901,826.7417179635306
902,826.7405140163603
903,826.7396225244014
904,826.7389470829595
905,826.7383888972655
906,826.7378473868736
907,826.7372208398399
908,826.7364071133563
909,826.7353043763937
910,826.7338118885946
911,826.7318308082304
912,826.7292650207918
913,826.72602197896
914,826.7220135442351
915,826.7171568202457
916,826.7113749676815
917,826.7045979908828
