frame_number,force
0,826.5018175245679
1,826.525226948795
2,826.5474111251178
3,826.5681261479103
4,826.5872066342599
5,826.6045631865383
6,826.620177218522
7,826.6340936154365
8,826.6464116861664
9,826.6572748366108
10,826.6668594067388
11,826.6753631836464
12,826.6829941560516
13,826.6899600088941
14,826.6964586680978
15,826.7026699986553
16,826.7087486067834
17,826.714817598753
18,826.7209631213016
19,826.7272296067932
20,826.733615875966
21,826.7400725072888
22,826.7465010011338
23,826.752755158853
24,826.758644844153
25,826.7639420783524
26,826.7683893160274
27,826.7717096520607
28,826.7736185253294
29,826.7738362678634
30,826.7721007377953
31,826.7681793097272
32,826.7618796217924
33,826.7530586687603
34,826.741630080654
35,826.7275696452823
36,826.7109191820842
37,826.6917887194917
38,826.6703566808436
39,826.6468676174093
40,826.621627073447
41,826.5949934468972
42,826.5673671054176
43,826.5391773577929
44,826.5108680715921
45,826.4828827995626
46,826.4556502820325
47,826.4295711287161
48,826.4050063468276
49,826.382268202495
50,826.3616136904797
51,826.3432406479499
52,826.3272863434871
53,826.313828266464
54,826.3028868117697
55,826.2944295356671
56,826.2883766248498
57,826.2846071956141
58,826.2829660621037
59,826.2832706908514
60,826.285318160385
61,826.2888920412221
62,826.2937692003123
63,826.2997265796258
64,826.3065479214041
65,826.314030212698
66,826.32198944542
67,826.3302652737527
68,826.3387242914008
69,826.3472618726082
70,826.3558027681548
71,826.3643008416954
72,826.3727383702558
73,826.3811251976379
74,826.3894978400907
75,826.3979185544172
76,826.4064744193928
77,826.4152765334254
78,826.4244593942634
79,826.4341804387416
80,826.4446196660142
81,826.4559792696979
82,826.4684832566214
83,826.4823771010794
84,826.4979274753584
85,826.5154219374796
86,826.5351682252984
87,826.5574926678318
88,826.5827372697586
89,826.6112552182356
90,826.6434047912945
91,826.6795417971841
92,826.7200107143354
93,826.765134726097
94,826.8152049451242
95,826.8704692612558
96,826.9311213358453
97,826.9972903001698
98,827.0690317328003
99,827.1463204774245
100,827.2290457836237
101,827.3170091071696
102,827.4099247164838
103,827.5074230579131
104,827.6090566879134
105,827.7143084971976
106,827.8226018828151
107,827.9333124454391
108,828.0457807363993
109,828.1593255813842
110,828.2732575749526
111,828.3868924773378
112,828.499564392707
113,828.6106386486103
114,828.7195241969182
115,828.8256852218403
116,828.9286515870953
117,829.0280277960999
118,829.1235002112633
119,829.2148423059779
120,829.3019176481997
121,829.3846801378675
122,829.4631708575031
123,829.5375109326656
124,829.6078901381937
125,829.6745515425815
126,829.7377730470067
127,829.7978470670988
128,829.855059766958
129,829.9096712300424
130,829.9618978217909
131,830.0118978278531
132,830.0597612382891
133,830.1055042450865
134,830.1490686276817
135,830.1903258009472
136,830.2290849836545
137,830.2651047413838
138,830.2981070370212
139,830.3277928515324
140,830.3538584293212
141,830.3760113002863
142,830.3939854323445
143,830.4075550816455
144,830.4165470330123
145,830.4208509517802
146,830.4204275576337
147,830.4153143278892
148,830.4056284697297
149,830.3915669957071
150,830.3734039052061
151,830.3514846749085
152,830.3262183952472
153,830.2980678894513
154,830.2675380755819
155,830.2351628025542
156,830.201490458165
157,830.1670687734794
158,830.1324293781606
159,830.0980727652741
160,830.0644544135871
161,830.0319729015887
162,830.0009608692216
163,829.971679549177
164,829.9443172898478
165,829.9189920943405
166,829.8957577675565
167,829.8746128569455
168,829.8555112940312
169,829.8383735884205
170,829.8230975826348
171,829.8095680380706
172,829.7976646136249
173,829.7872681113313
174,829.778265151615
175,829.7705515831811
176,829.7640348562351
177,829.7586353739375
178,829.7542866666064
179,829.7509342227689
180,829.748532916482
181,829.7470430782217
182,829.7464253346027
183,829.7466344388175
184,829.7476124528267
185,829.7492817781215
186,829.7515385915424
187,829.7542471877196
188,829.7572355871044
189,829.7602926106732
190,829.7631665098152
191,829.7655651833077
192,829.7671579938883
193,829.767579197455
194,829.7664329973013
195,829.7633002149978
196,829.7577465339504
197,829.7493322300926
198,829.7376232386929
199,829.7222032923072
200,829.7026867089165
201,829.6787312672499
202,829.6500505628048
203,829.6164253320806
204,829.5777134059404
205,829.5338581023443
206,829.4848949306173
207,829.4309564566137
208,829.3722751226086
209,829.3091837915206
210,829.2421138143462
211,829.1715904663861
212,829.0982256184461
213,829.0227075111801
214,828.9457875287894
215,828.8682639515426
216,828.7909628239885
217,828.7147163221747
218,828.6403392892743
219,828.5686048363683
220,828.500220041453
221,828.4358028717135
222,828.3758615225969
223,828.3207773590075
224,828.2707924897537
225,828.2260027055705
226,828.1863561410864
227,828.1516576558488
228,828.121578593619
229,828.0956712860817
230,828.073387430465
231,828.0540992847485
232,828.0371225028953
233,828.0217394323323
234,828.0072218364448
235,827.9928522205327
236,827.9779431583353
237,827.961854218608
238,827.9440062708234
239,827.9238930878467
240,827.9010902576581
241,827.8752614719589
242,827.8461622597898
243,827.8136411611295
244,827.777638247319
245,827.7381809160842
246,827.6953770608122
247,827.6494059285903
248,827.6005071113525
249,827.5489681272671
250,827.495110981062
251,827.4392779959335
252,827.3818171394375
253,827.3230670657854
254,827.2633422157315
255,827.2029185750603
256,827.142021005329
257,827.0808132479531
258,827.0193916334987
259,826.9577831965009
260,826.8959484143281
261,826.8337883335802
262,826.7711555388638
263,826.7078682259399
264,826.6437264652361
265,826.5785295756893
266,826.5120934761093
267,826.4442670069312
268,826.374946441302
269,826.3040876048731
270,826.2317151810929
271,826.1579289607156
272,826.0829070003281
273,826.0069057985394
274,825.9302576376591
275,825.8533652190976
276,825.7766937046537
277,825.7007603152357
278,825.626121782187
279,825.5533601908322
280,825.4830680099845
281,825.415833240175
282,825.3522255667741
283,825.2927842031113
284,825.2380078649306
285,825.1883471383278
286,825.1441993970185
287,825.1059062910742
288,825.0737535720862
289,825.047972683495
290,825.0287433072453
291,825.0161960598685
292,825.0104147455309
293,825.0114378710947
294,825.0192594131082
295,825.0338290471489
296,825.0550521375196
297,825.0827896927019
298,825.1168582839288
299,825.1570297518349
300,825.2030305104555
301,825.2545404191779
302,825.3111914485057
303,825.3725665815386
304,825.4381994834339
305,825.5075754296861
306,825.5801338274514
307,825.6552724305361
308,825.7323531604246
309,825.8107094478459
310,825.8896551973372
311,825.9684956650667
312,826.0465405429584
313,826.1231193313947
314,826.1975987295646
315,826.2694013398286
316,826.338024555442
317,826.4030582310394
318,826.4641997457653
319,826.5212653507072
320,826.5741971332254
321,826.6230653838384
322,826.6680664657135
323,826.7095163902485
324,826.7478402739638
325,826.7835578216101
326,826.8172649977081
327,826.8496121352199
328,826.8812789423258
329,826.9129472018784
330,826.9452722952616
331,826.9788549155382
332,827.0142144509884
333,827.0517655264617
334,827.0917990589363
335,827.1344689116708
336,827.1797848655842
337,827.2276122100245
338,827.2776778212901
339,827.3295822167693
340,827.3828168131389
341,827.4367854559584
342,827.4908291419837
343,827.5442526979341
344,827.5963520670642
345,827.6464408418603
346,827.693874768328
347,827.7380731310661
348,827.7785362305582
349,827.8148585670776
350,827.8467377440586
351,827.8739793718069
352,827.8964983484013
353,827.9143168894084
354,827.9275596747615
355,827.9364464988711
356,827.9412827792888
357,827.9424481702457
358,827.9403834189861
359,827.9355755979351
360,827.9285419659201
361,827.9198128764953
362,827.9099142432676
363,827.8993500455882
364,827.8885852847778
365,827.8780297999851
366,827.8680234903899
367,827.8588237159174
368,827.8505957980234
369,827.8434074735908
370,827.8372279045046
371,827.8319315626164
372,827.8273070380235
373,827.8230704581846
374,827.8188827152301
375,827.8143692314052
376,827.8091407634973
377,827.8028138035618
378,827.795029331901
379,827.785468894835
380,827.7738672428225
381,827.7600211493559
382,827.7437944995777
383,827.725120128138
384,827.7039990502245
385,827.6804976698669
386,827.6547434068706
387,827.6269190829767
388,827.59725635337
389,827.5660284252823
390,827.5335422865527
391,827.5001306777156
392,827.4661440284996
393,827.4319425270515
394,827.3978884494948
395,827.3643388745098
396,827.331638916066
397,827.3001156087839
398,827.270072582032
399,827.2417856683403
400,827.2154995928266
401,827.1914258334805
402,827.169741589162
403,827.1505895992074
404,827.1340784665936
405,827.1202832107844
406,827.1092458939048
407,827.100976162518
408,827.0954514507603
409,827.0926165771264
410,827.0923826423428
411,827.0946254247706
412,827.0991837101444
413,827.1058580700671
414,827.114410502408
415,827.1245651104114
416,827.1360096985441
417,827.1483979176246
418,827.1613515271805
419,827.1744625040536
420,827.1872950297899
421,827.199387672432
422,827.2102561989897
423,827.219397391303
424,827.2262941017441
425,827.2304217102035
426,827.2312561590383
427,827.2282837670621
428,827.2210129642359
429,827.2089879016434
430,827.1918035717961
431,827.1691216741112
432,827.1406861307219
433,827.1063370759427
434,827.0660223388543
435,827.0198057571721
436,826.9678719285287
437,826.9105271791274
438,826.8481966649505
439,826.7814176544913
440,826.7108291452005
441,826.6371580102242
442,826.5612019193086
443,826.4838094527285
444,826.4058581661757
445,826.328231719764
446,826.2517973419093
447,826.1773847924238
448,826.1057677345735
449,826.0376481431551
450,825.9736440660774
451,825.9142807029697
452,825.859984453004
453,825.8110794399292
454,825.7677860673101
455,825.7302212974529
456,825.6984004849253
457,825.6722407014242
458,825.6515655410507
459,825.6361113298551
460,825.6255344915147
461,825.619419707643
462,825.6172886148821
463,825.6186090527707
464,825.6228051131461
465,825.6292683083235
466,825.637370081227
467,825.6464756639953
468,825.6559589702305
469,825.6652178646054
470,825.6736889452595
471,825.6808609881936
472,825.6862863769907
473,825.6895900218119
474,825.690475365865
475,825.6887271586429
476,825.6842108914757
477,825.6768691580189
478,825.6667155545989
479,825.6538269078293
480,825.6383346044881
481,825.6204157032516
482,825.6002843914157
483,825.5781841982474
484,825.5543811971252
485,825.5291582983152
486,825.5028106936836
487,825.4756424859062
488,825.4479644240789
489,825.4200924869331
490,825.3923468842966
491,825.3650509477333
492,825.3385293926551
493,825.3131055928268
494,825.28909780576
495,825.2668146384926
496,825.246550312898
497,825.2285803734096
498,825.2131583786331
499,825.2005139082072
500,825.1908519575176
501,825.1843535223339
502,825.1811769414605
503,825.1814594059102
504,825.1853179808982
505,825.1928495582921
506,825.2041293679291
507,825.2192079397989
508,825.2381066133897
509,825.2608118142059
510,825.2872684050744
511,825.3173724888013
512,825.3509640965161
513,825.3878202822049
514,825.4276492770908
515,825.4700864920225
516,825.5146932221601
517,825.560958857052
518,825.6083072119936
519,825.6561072819497
520,825.7036883110446
521,825.7503586302236
522,825.7954273155333
523,825.8382274072969
524,825.8781392419548
525,825.9146124514298
526,825.9471854351305
527,825.9755015316612
528,825.9993215018659
529,826.0185321153837
530,826.0331506293556
531,826.0433249002396
532,826.0493288879046
533,826.051553435142
534,826.0504924364803
535,826.0467248146946
536,826.0408930398926
537,826.0336791840576
538,826.025779629141
539,826.0178794955881
540,826.0106276987011
541,826.0046134452688
542,826.0003450531234
543,825.9982321056297
544,825.9985719545892
545,826.0015413955131
546,826.007194013581
547,826.0154632798193
548,826.0261709872098
549,826.0390401383557
550,826.0537110574247
551,826.069759374222
552,826.0867146073275
553,826.1040782912536
554,826.1213408614984
555,826.1379967640286
556,826.1535574660744
557,826.1675622071318
558,826.1795864630682
559,826.1892482471361
560,826.1962125374721
561,826.2001942273984
562,826.200959987601
563,826.1983293386655
564,826.1921751280088
565,826.1824235205752
566,826.1690535326788
567,826.152096047147
568,826.131632177159
569,826.1077908571061
570,826.0807456427499
571,826.0507108237741
572,826.0179369972545
573,825.9827062008443
574,825.9453266088404
575,825.9061267267372
576,825.8654490588947
577,825.8236433993806
578,825.7810601318024
579,825.738044103973
580,825.694929716536
581,825.6520378143865
582,825.6096747511638
583,825.568133614618
584,825.5276971855192
585,825.4886419148081
586,825.451242095544
587,825.4157734355903
588,825.382515356335
589,825.3517515384631
590,825.3237685031045
591,825.2988523069218
592,825.2772836529101
593,825.2593318171363
594,825.2452477665317
595,825.2352567294469
596,825.2295503571692
597,825.2282785731201
598,825.2315412634027
599,825.239380059432
600,825.251770558531
601,825.2686154188045
602,825.2897388296582
603,825.314882843641
604,825.3437059417652
605,825.3757840692203
606,825.4106143026435
607,825.4476212616698
608,825.4861662684109
609,825.5255590899503
610,825.5650719546027
611,825.6039554491118
612,825.6414558373892
613,825.6768332612771
614,825.7093802096286
615,825.7384395730373
616,825.7634215153289
617,825.7838183450098
618,825.7992166902224
619,825.8093066226576
620,825.8138878179728
621,825.812873156398
622,825.8062902037117
623,825.7942808285723
624,825.7770990104198
625,825.7551067889949
626,825.7287682512223
627,825.6986413918297
628,825.6653676732426
629,825.6296591947838
630,825.5922835203036
631,825.5540463725998
632,825.5157726059124
633,825.4782860831328
634,825.4423891844841
635,825.4088425959433
636,825.3783458823234
637,825.3515192997211
638,825.3288873531046
639,825.3108646298889
640,825.2977443571871
641,825.2896899816973
642,825.2867299447458
643,825.2887557921052
644,825.2955238557495
645,825.3066609111075
646,825.3216742712542
647,825.3399665724407
648,825.3608550490918
649,825.3835945583929
650,825.4074031743153
651,825.4314889351718
652,825.4550763281219
653,825.4774312777791
654,825.4978836459613
655,825.5158464234624
656,825.5308309135564
657,825.542457408497
658,825.550461214717
659,825.5546942720065
660,825.5551228625314
661,825.5518219586578
662,825.5449666919064
663,825.534821374809
664,825.5217265535614
665,825.5060846664813
666,825.4883449247806
667,825.4689879593382
668,825.4485105974197
669,825.4274109166507
670,825.406173618218
671,825.3852558979738
672,825.3650743162493
673,825.3459934368361
674,825.3283170152032
675,825.3122822587997
676,825.2980573272586
677,825.2857419721693
678,825.275371088085
679,825.2669208755228
680,825.260317213775
681,825.2554457054785
682,825.2521627267234
683,825.2503067164788
684,825.2497089004792
685,825.2502027340852
686,825.2516315981776
687,825.2538546358946
688,825.2567509585546
689,825.2602226629829
690,825.2641971363666
691,825.2686289982543
692,825.2735018141641
693,825.2788295205755
694,825.2846574354269
695,825.2910628124982
696,825.298155024805
697,825.3060754843167
698,825.3149972694648
699,825.3251242181551
700,825.3366890910991
701,825.3499504135318
702,825.3651877729602
703,825.3826956237615
704,825.4027759014485
705,825.4257298408734
706,825.451849298316
707,825.4814077412209
708,825.5146510523971
709,825.551788406237
710,825.592983597442
711,825.6383472413886
712,825.6879302233156
713,825.7417187241226
714,825.7996311402139
715,825.8615172100514
716,825.9271596082594
717,825.9962781648368
718,826.0685367164124
719,826.1435523820323
720,826.2209068115791
721,826.3001587759724
722,826.3808574115104
723,826.4625554754714
724,826.5448220745379
725,826.6272544534405
726,826.7094885319265
727,826.7912079364236
728,826.8721513378492
729,826.9521180282397
730,827.0309718063743
731,827.1086433009108
732,827.1851307946047
733,827.260499459235
734,827.3348787238757
735,827.40845734103
736,827.4814756823116
737,827.5542149680125
738,827.62698347945
739,827.7001001901818
740,827.7738765760613
741,827.8485975987107
742,827.9245030014732
743,828.0017700796059
744,828.0804989655212
745,828.1607012518238
746,828.2422925276937
747,828.3250891442996
748,828.4088092462704
749,828.4930778409698
750,828.5774354921037
751,828.6613501689786
752,828.7442318194994
753,828.8254492257629
754,828.9043485453483
755,828.9802727210534
756,829.0525808351188
757,829.1206665461858
758,829.1839748865561
759,829.2420168497787
760,829.2943813964781
761,829.3407447743481
762,829.3808773263554
763,829.4146481354925
764,829.4420278383558
765,829.4630897441922
766,829.47800913855
767,829.4870604872214
768,829.490612271175
769,829.489119344523
770,829.483112931121
771,829.4731885862909
772,829.4599925862741
773,829.4442072438709
774,829.426535627632
775,829.4076861543331
776,829.388357544309
777,829.3692246151066
778,829.3509252786616
779,829.3340489184039
780,829.3191261459217
781,829.3066198564136
782,829.2969175224631
783,829.290324701476
784,829.2870596956617
785,829.2872492217185
786,829.2909249400924
787,829.2980208166088
788,829.308371483189
789,829.3217119622069
790,829.3376792947115
791,829.3558167137837
792,829.3755809332011
793,829.3963528252028
794,829.4174513175956
795,829.4381499379001
796,829.4576952354114
797,829.4753263314428
798,829.4902949647778
799,829.5018855142098
800,829.5094345737813
801,829.5123497119578
802,829.5101270119793
803,829.5023668653043
804,829.4887873871168
805,829.4692348802835
806,829.4436909892338
807,829.4122764001831
808,829.3752510134644
809,829.3330104374268
810,829.2860785494584
811,829.2350958734572
812,829.1808037013627
813,829.1240241916593
814,829.0656369930484
815,829.0065531970907
816,828.9476876251138
817,828.8899305958369
818,828.8341203618164
819,828.7810173465062
820,828.7312812259112
821,828.6854518443236
822,828.6439349064618
823,828.6069932317349
824,828.5747440180761
825,828.5471621108222
826,828.5240888291002
827,828.5052455404216
828,828.4902509227794
829,828.4786407029329
830,828.4698885591436
831,828.463426827162
832,828.4586657473147
833,828.4550103041539
834,828.4518741755421
835,828.448690809115
836,828.4449220835924
837,828.4400652736093
838,828.4336589971887
839,828.4252884951292
840,828.4145901760446
841,828.4012551152641
842,828.385031230865
843,828.3657240805051
844,828.3431964358869
845,828.3173668849228
846,828.2882077316493
847,828.2557425092172
848,828.220043483774
849,828.1812295017254
850,828.1394643634925
851,828.0949556446199
852,828.0479536276897
853,827.9987498546193
854,827.9476748261183
855,827.8950945372299
856,827.8414057310739
857,827.7870298833856
858,827.7324059817105
859,827.6779821510759
860,827.6242061333843
861,827.5715146280221
862,827.5203216332743
863,827.4710061946087
864,827.4239002673093
865,827.3792776090781
866,827.3373446410883
867,827.2982340240274
868,827.2620013472333
869,827.228624970376
870,827.1980088313832
871,827.1699879600463
872,827.1443364085445
873,827.120777223544
874,827.0989939352656
875,827.0786429107923
876,827.0593659024241
877,827.0408022392782
878,827.0226002957353
879,827.0044280151216
880,826.9859823124731
881,826.9669971764666
882,826.9472503193516
883,826.9265682891714
884,826.9048300315894
885,826.881968991753
886,826.8579739961452
887,826.8328892835295
888,826.8068140732032
889,826.7799019450067
890,826.7523600873062
891,826.7244481857798
892,826.6964764615938
893,826.6688022520245
894,826.6418246149708
895,826.6159766426786
896,826.5917153792412
897,826.5695094536298
898,826.5498248121472
899,826.5331092116829
900,826.5197763058571
901,826.5101901774411
902,826.5046510738168
903,826.503382924951
904,826.5065230248913
905,826.5141141269753
906,826.5260991631159
907,826.5423187794817
908,826.562511827447
909,826.5863188574203
910,826.6132885368821
911,826.6428867641048
912,826.6745081201425
913,826.7074892281305
914,826.7411235602235
915,826.7746772255293
916,826.8074052801713
917,826.8385681202797
