frame_number,force
0,826.6323361681281
1,826.6312108320361
2,826.6303710579184
3,826.6297778407176
4,826.6293911983214
5,826.6291703632027
6,826.6290739791548
7,826.6290603024801
8,826.6290874069598
9,826.6291133918928
10,826.6290965925068
11,826.6289957921075
12,826.628770435392
13,826.6283808422953
14,826.6277884215726
15,826.6269558831414
16,826.625847448078
17,826.6244290550936
18,826.6226685623111
19,826.6205359432863
20,826.6180034764669
21,826.6150459275588
22,826.611640724421
23,826.6077681240425
24,826.6034113709565
25,826.598556846287
26,826.5931942065708
27,826.5873165114574
28,826.5809203392705
29,826.5740058892635
30,826.566577069363
31,826.5586415682903
32,826.5502109111445
33,826.5413004977771
34,826.5319296236061
35,826.5221214827988
36,826.511903153878
37,826.5013055677268
38,826.490363457812
39,826.4791152923588
40,826.4676031883236
41,826.4558728073454
42,826.4439732342996
43,826.4319568394648
44,826.4198791255454
45,826.4077985609181
46,826.3957764005119
47,826.3838764957156
48,826.3721650946026
49,826.3607106336232
50,826.3495835217332
51,826.3388559177118
52,826.3286015012468
53,826.3188952382641
54,826.3098131409603
55,826.3014320229768
56,826.2938292501241
57,826.2870824870415
58,826.281269440193
59,826.2764675976763
60,826.2727539664147
61,826.2702048073943
62,826.2688953696961
63,826.2688996241178
64,826.2702899971085
65,826.2731371055604
66,826.2775094928384
67,826.2834733664246
68,826.2910923377085
69,826.3004271646693
70,826.3115354984565
71,826.324471635076
72,826.3392862734366
73,826.3560262809077
74,826.3747344673637
75,826.3954493686274
76,826.4182050402696
77,826.4430308627822
78,826.4699513591107
79,826.49898602545
80,826.5301491761463
81,826.5634498035449
82,826.5988914536524
83,826.6364721185261
84,826.6761841462679
85,826.7180141693059
86,826.7619430513753
87,826.8079458534298
88,826.8559918186859
89,826.9060443771187
90,826.9580611698663
91,827.0119940940502
92,827.0677893684626
93,827.1253876204885
94,827.1847239946158
95,827.245728282895
96,827.3083250776793
97,827.3724339468748
98,827.4379696318159
99,827.5048422677357
100,827.5729576265913
101,827.6422173817307
102,827.7125193935739
103,827.7837580151736
104,827.8558244162512
105,827.9286069241149
106,828.0019913796943
107,828.0758615067481
108,828.1500992921664
109,828.2245853752153
110,828.2991994435679
111,828.3738206340506
112,828.4483279361349
113,828.5226005962243
114,828.5965185206737
115,828.6699626753626
116,828.7428154796035
117,828.8149611922453
118,828.8862862879367
119,828.9566798215988
120,829.0260337791514
121,829.0942434124448
122,829.1612075562753
123,829.2268289254912
124,829.29101439062
125,829.3536752310783
126,829.414727365677
127,829.4740915606155
128,829.5316936154304
129,829.5874645274495
130,829.6413406353006
131,829.6932637419711
132,829.7431812178307
133,829.7910460838531
134,829.8368170750146
135,829.8804586835802
136,829.9219411817965
137,829.9612406234323
138,829.998338823604
139,830.0332233163649
140,830.0658872896428
141,830.0963294973088
142,830.1245541484658
143,830.1505707743493
144,830.1743940734593
145,830.1960437356688
146,830.2155442461384
147,830.2329246699576
148,830.2482184185487
149,830.2614629990425
150,830.2726997480636
151,830.2819735516246
152,830.289332553009
153,830.2948278505701
154,830.2985131873337
155,830.3004446342914
156,830.3006802693454
157,830.299279853993
158,830.2963045099435
159,830.2918163979438
160,830.2858784011344
161,830.2785538152981
162,830.2699060483185
163,830.2599983309736
164,830.2488934408251
165,830.2366534404935
166,830.2233394311015
167,830.2090113211771
168,830.1937276109342
169,830.1775451916824
170,830.1605191601496
171,830.142702647631
172,830.124146664037
173,830.1048999570919
174,830.0850088870881
175,830.0645173176152
176,830.0434665224986
177,830.0218951088606
178,829.9998389559455
179,829.977331169238
180,829.9544020493995
181,829.9310790755615
182,829.9073869024962
183,829.8833473711992
184,829.8589795324782
185,829.8342996832052
186,829.8093214148906
187,829.7840556741315
188,829.7585108343169
189,829.7326927777848
190,829.7066049875064
191,829.6802486472995
192,829.6536227495593
193,829.626724209504
194,829.5995479849531
195,829.572087200666
196,829.5443332762741
197,829.5162760568526
198,829.4879039451735
199,829.4592040346403
200,829.4301622418322
201,829.4007634375342
202,829.3709915751732
203,829.340829815767
204,829.310260648753
205,829.2792660083056
206,829.247827384909
207,829.2159259320265
208,829.183542567752
209,829.150658071394
210,829.1172531750512
211,829.0833086503693
212,829.0488053907414
213,829.0137244892826
214,828.978047312975
215,828.9417555734935
216,828.9048313953829
217,828.867257382504
218,828.8290166839246
219,828.79009306062
220,828.7504709544412
221,828.7101355608391
222,828.669072906837
223,828.6272699356502
224,828.5847145991243
225,828.5413959587709
226,828.4973042957305
227,828.452431229528
228,828.4067698450602
229,828.3603148268619
230,828.3130625993583
231,828.2650114715316
232,828.2161617842111
233,828.1665160581023
234,828.1160791407191
235,828.0648583505155
236,828.0128636166588
237,827.9601076130266
238,827.9066058851431
239,827.8523769688812
240,827.7974424998257
241,827.7418273122527
242,827.6855595266912
243,827.6286706249928
244,827.5711955117773
245,827.5131725612011
246,827.4546436482065
247,827.3956541636862
248,827.3362530131955
249,827.2764925989298
250,827.216428784716
251,827.1561208437548
252,827.0956313888861
253,827.0350262852392
254,826.9743745453507
255,826.9137482071777
256,826.8532221958352
257,826.7928741701711
258,826.7327843553292
259,826.6730353622352
260,826.6137119945897
261,826.554901043615
262,826.4966910706144
263,826.4391721773188
264,826.3824357639314
265,826.3265742747169
266,826.2716809310367
267,826.2178494519434
268,826.1651737627577
269,826.1137476923335
270,826.0636646599497
271,826.0150173530276
272,825.9678973971376
273,825.9223950199683
274,825.8785987110274
275,825.8365948788696
276,825.7964675076834
277,825.7582978151235
278,825.72216391344
279,825.6881404761895
280,825.6562984130493
281,825.6267045553709
282,825.5994213550229
283,825.57450659884
284,825.5520131406968
285,825.5319886529778
286,825.5144753990265
287,825.4995100279278
288,825.4871233926215
289,825.4773403918972
290,825.4701798364658
291,825.4656543391616
292,825.4637702293877
293,825.464527492049
294,825.4679197313311
295,825.4739341597324
296,825.4825516126801
297,825.4937465888141
298,825.5074873156542
299,825.5237358400566
300,825.5424481426892
301,825.563574275766
302,825.5870585233864
303,825.6128395839006
304,825.6408507736849
305,825.6710202515626
306,825.7032712628601
307,825.7375224017754
308,825.7736878904868
309,825.8116778733711
310,825.8513987248374
311,825.8927533694324
312,825.9356416128606
313,825.9799604823585
314,826.0256045745407
315,826.0724664084497
316,826.1204367811661
317,826.1694051231348
318,826.219259850433
319,826.2698887115391
320,826.321179126663
321,826.3730185182143
322,826.4252946313713
323,826.4778958438986
324,826.530711464426
325,826.5836320184612
326,826.6365495215092
327,826.6893577388364
328,826.7419524317015
329,826.7942315902599
330,826.8460956537357
331,826.8974477187404
332,826.9481937367719
333,826.9982427019812
334,827.0475068302044
335,827.0959017300279
336,827.143346566328
337,827.1897642163531
338,827.2350814180136
339,827.2792289097018
340,827.3221415607283
341,827.3637584913223
342,827.4040231810192
343,827.4428835641293
344,827.4802921108964
345,827.5162058929668
346,827.5505866319095
347,827.5834007297339
348,827.6146192806856
349,827.6442180640319
350,827.6721775179777
351,827.6984826951668
352,827.723123200374
353,827.7460931110415
354,827.7673908813836
355,827.7870192308483
356,827.8049850177723
357,827.8212990990082
358,827.8359761762617
359,827.8490346299236
360,827.8604963413459
361,827.870386504711
362,827.8787334297673
363,827.8855683367092
364,827.8909251444358
365,827.8948402534412
366,827.8973523247289
367,827.8985020563634
368,827.8983319594173
369,827.8968861349985
370,827.894210053797
371,827.8903503393037
372,827.8853545555763
373,827.8792710000702
374,827.8721485015604
375,827.8640362227131
376,827.8549834666271
377,827.845039486703
378,827.834253299362
379,827.8226734993312
380,827.810348077444
381,827.7973242412568
382,827.7836482392179
383,827.7693651894813
384,827.7545189146018
385,827.7391517832784
386,827.7233045601614
387,827.7070162646236
388,827.6903240393294
389,827.673263029364
390,827.6558662726479
391,827.6381646023451
392,827.620186561917
393,827.6019583333953
394,827.5835036793599
395,827.5648438990537
396,827.5459977990207
397,827.5269816785953
398,827.5078093305024
399,827.4884920567658
400,827.469038700052
401,827.4494556904343
402,827.4297471073344
403,827.409914756126
404,827.3899582587055
405,827.3698751573164
406,827.3496610309288
407,827.3293096233874
408,827.308812982356
409,827.288161607984
410,827.2673446103005
411,827.2463498745416
412,827.2251642337662
413,827.2037736481212
414,827.1821633899592
415,827.1603182337318
416,827.1382226492498
417,827.1158609966365
418,827.0932177212129
419,827.0702775466938
420,827.0470256653641
421,827.0234479241906
422,826.9995310059567
423,826.9752626044948
424,826.9506315929992
425,826.9256281844034
426,826.900244082892
427,826.8744726257281
428,826.8483089146192
429,826.8217499357719
430,826.7947946676021
431,826.7674441748087
432,826.7397016873376
433,826.7115726628228
434,826.6830648314188
435,826.6541882223826
436,826.6249551721693
437,826.5953803141057
438,826.5654805499718
439,826.5352750040803
440,826.5047849606599
441,826.4740337855078
442,826.4430468330187
443,826.4118513399549
444,826.3804763077139
445,826.3489523752528
446,826.3173116850174
447,826.2855877441523
448,826.2538152830291
449,826.222030112859
450,826.1902689838311
451,826.158569444847
452,826.1269697055681
453,826.0955085012938
454,826.0642249611525
455,826.0331584801357
456,826.0023485955463
457,825.9718348684266
458,825.9416567704812
459,825.9118535768391
460,825.8824642647282
461,825.8535274179195
462,825.8250811367973
463,825.7971629540713
464,825.7698097562829
465,825.7430577112384
466,825.7169422013363
467,825.6914977624915
468,825.66675802799
469,825.64275567625
470,825.6195223812344
471,825.597088764255
472,825.575484346073
473,825.5547374983803
474,825.5348753938526
475,825.515923954077
476,825.4979077948952
477,825.4808501691072
478,825.4647729068683
479,825.4496963543422
480,825.4356393112199
481,825.4226189676988
482,825.410650841472
483,825.3997487152087
484,825.3899245749022
485,825.3811885494146
486,825.3735488515674
487,825.3670117211711
488,825.361581370333
489,825.3572599312668
490,825.3540474067069
491,825.3519416229767
492,825.3509381857986
493,825.3510304391087
494,825.3522094274401
495,825.3544638627733
496,825.3577800970071
497,825.362142101272
498,825.3675314531841
499,825.3739273329131
500,825.3813065286428
501,825.3896434517036
502,825.3989101613724
503,825.4090763991246
504,825.4201096319957
505,825.4319751047041
506,825.4446359003092
507,825.4580530093541
508,825.4721854075474
509,825.4869901420778
510,825.5024224266512
511,825.518435745319
512,825.5349819651423
513,825.5520114577338
514,825.5694732297777
515,825.587315062675
516,825.6054836614672
517,825.6239248130823
518,825.6425835537148
519,825.6614043448155
520,825.6803312567409
521,825.6993081586646
522,825.7182789129682
523,825.7371875720243
524,825.7559785751087
525,825.7745969432046
526,825.7929884697269
527,825.8110999056304
528,825.8288791377795
529,825.8462753596751
530,825.8632392336876
531,825.8797230439552
532,825.8956808391862
533,825.9110685647825
534,825.9258441839766
535,825.9399677880313
536,825.9534016959029
537,825.9661105440645
538,825.9780613673478
539,825.9892236716606
540,825.9995694993016
541,826.0090734875411
542,826.0177129212118
543,826.0254677801914
544,826.0323207826663
545,826.0382574248816
546,826.0432660177689
547,826.0473377204294
548,826.0504665699777
549,826.0526495067812
550,826.0538863937896
551,826.0541800285282
552,826.0535361463874
553,826.0519634140519
554,826.0494734121679
555,826.0460806065951
556,826.041802307802
557,826.0366586181392
558,826.0306723668776
559,826.0238690330771
560,826.0162766565468
561,826.0079257373112
562,825.9988491240372
563,825.9890818918527
564,825.9786612099535
565,825.9676261993785
566,825.9560177813291
567,825.9438785163996
568,825.9312524350889
569,825.9181848600543
570,825.9047222207392
571,825.8909118612008
572,825.8768018420735
573,825.8624407376259
574,825.8478774288407
575,825.8331608934365
576,825.8183399938401
577,825.8034632643303
578,825.7885786988254
579,825.7737335409956
580,825.7589740784583
581,825.7443454427779
582,825.7298914167801
583,825.7156542503127
584,825.7016744851638
585,825.6879907895411
586,825.6746398023671
587,825.6616559876257
588,825.6490714990435
589,825.636916055502
590,825.6252168277616
591,825.6139983372577
592,825.6032823678537
593,825.5930878914253
594,825.5834310080191
595,825.5743249011089
596,825.5657798082362
597,825.5578030071681
598,825.5503988176334
599,825.5435686186746
600,825.5373108816199
601,825.5316212186559
602,825.5264924469233
603,825.5219146679372
604,825.5178753619269
605,825.5143594964615
606,825.511349648576
607,825.508826139493
608,825.5067671808653
609,825.505149031261
610,825.5039461614306
611,825.5031314268011
612,825.5026762455694
613,825.5025507806959
614,825.5027241240531
615,825.5031644809507
616,825.5038393532288
617,825.5047157191245
618,825.5057602083028
619,825.5069392708592
620,825.5082193396092
621,825.5095669853835
622,825.510949065183
623,825.5123328629847
624,825.5136862228994
625,825.5149776743909
626,825.5161765493224
627,825.5172530906333
628,825.5181785525375
629,825.5189252922951
630,825.5194668538202
631,825.5197780436041
632,825.5198349996774
633,825.5196152545808
634,825.5190977934373
635,825.5182631081515
636,825.5170932486296
637,825.5155718718473
638,825.5136842896151
639,825.5114175158792
640,825.5087603142648
641,825.505703246373
642,825.5022387211521
643,825.4983610455664
644,825.4940664768021
645,825.4893532763369
646,825.4842217661741
647,825.4786743872739
648,825.4727157597122
649,825.4663527435097
650,825.4595944986064
651,825.4524525421763
652,825.4449408014401
653,825.4370756602789
654,825.4288759981612
655,825.4203632200554
656,825.4115612761173
657,825.4024966701487
658,825.3931984561825
659,825.3836982229601
660,825.3740300663451
661,825.3642305498172
662,825.3543386531845
663,825.3443957096603
664,825.3344453315602
665,825.3245333250385
666,825.314707594381
667,825.3050180363801
668,825.2955164252013
669,825.2862562880185
670,825.2772927716502
671,825.2686825006184
672,825.2604834274184
673,825.2527546760916
674,825.2455563802508
675,825.2389495165037
676,825.2329957339185
677,825.2277571799551
678,825.2232963231895
679,825.2196757731239
680,825.2169580972937
681,825.2152056357795
682,825.2144803131251
683,825.2148434475891
684,825.2163555576311
685,825.2190761656369
686,825.2230635991381
687,825.2283747901323
688,825.2350650734481
689,825.2431879853133
690,825.2527950633279
691,825.2639356489329
692,825.2766566932645
693,825.2910025671063
694,825.3070148755911
695,825.3247322783868
696,825.3441903162199
697,825.3654212446072
698,825.3884538755265
699,825.4133134275421
700,825.4400213847379
701,825.4685953647889
702,825.4990489966439
703,825.5313918085152
704,825.5656291270786
705,825.6017619888277
706,825.6397870643915
707,825.6796965964414
708,825.7214783517352
709,825.7651155878931
710,825.8105870355498
711,825.8578668964893
712,825.9069248582612
713,825.95772612565
714,826.010231469284
715,826.0643972915844
716,826.1201757101301
717,826.1775146583396
718,826.2363580031497
719,826.2966456790946
720,826.3583138378864
721,826.4212950123641
722,826.4855182935623
723,826.5509095196384
724,826.6173914754496
725,826.6848841016472
726,826.7533047122115
727,826.8225682193784
728,826.8925873649396
729,826.9632729570004
730,827.0345341113859
731,827.1062784969333
732,827.1784125838437
733,827.2508418941055
734,827.3234712528265
735,827.3962050391619
736,827.468947435494
737,827.5416026736843
738,827.6140752775602
739,827.6862703011642
740,827.7580935626111
741,827.8294518736261
742,827.9002532649821
743,827.9704072080776
744,828.039824832792
745,828.1084191415489
746,828.1761052192961
747,828.2428004388704
748,828.3084246609687
749,828.3729004277119
750,828.4361531486343
751,828.4981112779117
752,828.558706481707
753,828.6178737945557
754,828.6755517636108
755,828.7316825794134
756,828.7862121918264
757,828.8390904098952
758,828.8902709846199
759,828.9397116738538
760,828.9873742888312
761,829.0332247221801
762,829.0772329576457
763,829.1193730620297
764,829.1596231599342
765,829.1979653918312
766,829.2343858558344
767,829.2688745335028
768,829.3014252001146
769,829.3320353201026
770,829.3607059286385
771,829.3874415006385
772,829.4122498086525
773,829.4351417711904
774,829.4561312930656
775,829.475235099357
776,829.4924725646251
777,829.5078655390121
778,829.5214381727335
779,829.5332167402712
780,829.543229465368
781,829.5515063478
782,829.5580789928606
783,829.5629804444555
784,829.566245022595
785,829.5679081659009
786,829.5680062796521
787,829.5665765899067
788,829.5636570043318
789,829.5592859804581
790,829.5535024021495
791,829.5463454650774
792,829.5378545718264
793,829.528069236901
794,829.5170290013957
795,829.504773356639
796,829.4913416758794
797,829.476773153051
798,829.4611067477337
799,829.4443811355068
800,829.4266346629747
801,829.4079053067917
802,829.3882306359944
803,829.3676477768463
804,829.3461933793316
805,829.3239035845259
806,829.3008139923172
807,829.2769596292081
808,829.2523749160372
809,829.2270936354429
810,829.2011488988403
811,829.1745731127311
812,829.147397944381
813,829.1196542872294
814,829.0913722267202
815,829.0625810075156
816,829.0333090032533
817,829.0035836901438
818,828.9734316257385
819,828.9428784341221
820,828.9119487986687
821,828.8806664634114
822,828.8490542439793
823,828.8171340488489
824,828.7849269112719
825,828.7524530317389
826,828.7197318303466
827,828.6867820080128
828,828.6536216151719
829,828.620268126367
830,828.58673851899
831,828.5530493543085
832,828.5192168589581
833,828.4852570053266
834,828.4511855896608
835,828.4170183071712
836,828.382770823814
837,828.3484588446613
838,828.3140981787385
839,828.279704799901
840,828.2452949029511
841,828.2108849539889
842,828.1764917340688
843,828.1421323754994
844,828.1078243903808
845,828.0735856911351
846,828.0394346028777
847,828.0053898675985
848,827.9714706402676
849,827.9376964770398
850,827.9040873156594
851,827.8706634480068
852,827.8374454845703
853,827.8044543105634
854,827.7717110335125
855,827.7392369223686
856,827.7070533384643
857,827.6751816588221
858,827.6436431924382
859,827.6124590902073
860,827.5816502491592
861,827.5512372117219
862,827.5212400608776
863,827.491678312363
864,827.4625708053616
865,827.4339355933504
866,827.4057898367776
867,827.378149699062
868,827.3510302470607
869,827.3244453567847
870,827.2984076249061
871,827.2729282865016
872,827.2480171394174
873,827.2236824755244
874,827.1999310189595
875,827.1767678712794
876,827.1541964634106
877,827.132218514353
878,827.1108339967312
879,827.090041109396
880,827.0698362572818
881,827.0502140386967
882,827.03116724021
883,827.0126868393411
884,826.9947620152842
885,826.9773801679788
886,826.9605269459436
887,826.9441862833844
888,826.9283404470731
889,826.9129700933505
890,826.8980543353584
891,826.8835708202969
892,826.8694958162058
893,826.8558043076094
894,826.8424700993979
895,826.8294659284526
896,826.8167635826633
897,826.8043340271241
898,826.792147537482
899,826.7801738406018
900,826.7683822627957
901,826.7567418857982
902,826.7452217104914
903,826.73379082813
904,826.7224185985339
905,826.7110748345036
906,826.6997299915973
907,826.6883553623
908,826.6769232734965
909,826.6654072860002
910,826.6537823947053
911,826.6420252277405
912,826.6301142428364
913,826.6180299190221
914,826.6057549417261
915,826.593274379349
916,826.5805758494033
917,826.5676496723609
