frame_number,force
0,826.5458034097338
1,826.5478357014581
2,826.5506590457095
3,826.5542122700352
4,826.5584307834855
5,826.5632469567712
6,826.5685905094837
7,826.5743889032893
8,826.5805677400032
9,826.5870511633942
10,826.5937622636957
11,826.6006234841469
12,826.6075570291924
13,826.6144852738067
14,826.6213311727886
15,826.6280186681781
16,826.6344730924712
17,826.6406215650369
18,826.6463933791429
19,826.6517203774855
20,826.6565373151109
21,826.6607822097161
22,826.6643966798827
23,826.6673262714922
24,826.6695207717129
25,826.6709345092233
26,826.6715266390614
27,826.6712614102366
28,826.670108413663
29,826.6680428072635
30,826.6650455148163
31,826.6611033953924
32,826.6562093808692
33,826.6503625798873
34,826.6435683477426
35,826.6358383226981
36,826.6271904295426
37,826.6176488507725
38,826.6072439649586
39,826.5960122513475
40,826.5839961600482
41,826.5712439483325
42,826.5578094851958
43,826.5437520277142
44,826.5291359735216
45,826.5140305940416
46,826.4985097531375
47,826.4826516155979
48,826.4665383493199
49,826.4502558243105
50,826.4338933107583
51,826.41754317742
52,826.401300590695
53,826.3852632142564
54,826.3695309088894
55,826.3542054320067
56,826.3393901360763
57,826.3251896650032
58,826.3117096474932
59,826.2990563866475
60,826.2873365453546
61,826.2766568273626
62,826.2671236542209
63,826.2588428384264
64,826.2519192528181
65,826.246456495506
66,826.2425565489752
67,826.2403194320171
68,826.239842843756
69,826.241221799988
70,826.2445482631224
71,826.2499107678899
72,826.2573940452701
73,826.267078646726
74,826.2790405702572
75,826.2933508896019
76,826.3100753882431
77,826.3292742002351
78,826.3510014598796
79,826.3753049620949
80,826.4022258352403
81,826.4317982282971
82,826.4640490146049
83,826.498997514715
84,826.5366552409467
85,826.5770256656516
86,826.6201040142986
87,826.6658770839351
88,826.7143230876958
89,826.765411526685
90,826.8191030913232
91,826.8753495946697
92,826.9340939402017
93,826.9952701263951
94,827.0588032905963
95,827.1246097949214
96,827.1925973569587
97,827.2626652278512
98,827.3347044200545
99,827.408597986647
100,827.4842213533924
101,827.5614427038058
102,827.6401234163675
103,827.7201185518975
104,827.8012773881849
105,827.8834439982941
106,827.9664578683746
107,828.0501545501896
108,828.134366343101
109,828.2189230000156
110,828.3036524518507
111,828.3883815454344
112,828.4729367902075
113,828.557145109153
114,828.6408345889564
115,828.7238352238784
116,828.8059796476496
117,828.8871038479352
118,828.967047858304
119,829.0456564228915
120,829.1227796288325
121,829.1982735010532
122,829.2720005536136
123,829.3438302921761
124,829.4136396637374
125,829.4813134521792
126,829.5467446206444
127,829.6098346035338
128,829.6704935518186
129,829.7286405355534
130,829.7842037072471
131,829.8371204293587
132,829.8873373686362
133,829.9348105591037
134,829.979505434252
135,830.0213968276979
136,830.060468940602
137,830.096715273604
138,830.1301385208111
139,830.1607504233505
140,830.1885715802098
141,830.213631214713
142,830.2359668959958
143,830.2556242159151
144,830.2726564225474
145,830.2871240117744
146,830.2990942786415
147,830.3086408303801
148,830.3158430633157
149,830.3207856064403
150,830.3235577352491
151,830.3242527603694
152,830.3229673961484
153,830.3198011144723
154,830.314855488859
155,830.3082335337955
156,830.30003904455
157,830.2903759431459
158,830.2793476366145
159,830.2670563939428
160,830.253602748334
161,830.2390849315525
162,830.2235983470002
163,830.207235087408
164,830.1900835015981
165,830.1722278129429
166,830.1537477901549
167,830.1347184691398
168,830.1152099232128
169,830.095287078401
170,830.0750095707916
171,830.0544316435161
172,830.0336020817159
173,830.0125641846669
174,829.9913557749909
175,829.9700092450794
176,829.9485516402185
177,829.9270047767545
178,829.9053853926753
179,829.8837053276512
180,829.8619717297239
181,829.8401872860001
182,829.8183504747927
183,829.7964558368329
184,829.7744942635477
185,829.7524533007889
186,829.7303174665301
187,829.7080685807559
188,829.6856861051899
189,829.6631474898878
190,829.640428523322
191,829.6175036824338
192,829.5943464791582
193,829.5709298000696
194,829.5472262359723
195,829.5232083983925
196,829.4988492200439
197,829.4741222364601
198,829.4490018460532
199,829.4234635457614
200,829.39748413922
201,829.3710419142415
202,829.3441167866331
203,829.316690408173
204,829.2887462376748
205,829.2602695750865
206,829.2312475592464
207,829.2016691302616
208,829.1715249576707
209,829.1408073358562
210,829.1095100486382
211,829.077628205497
212,829.0451580522333
213,829.0120967591247
214,828.9784421899315
215,828.9441926555611
216,828.909346656883
217,828.8739026221506
218,828.8378586455419
219,828.8012122341016
220,828.7639600707178
221,828.7260978009025
222,828.6876198511164
223,828.6485192860221
224,828.6087877110751
225,828.568415225289
226,828.5273904271327
227,828.4857004746483
228,828.4433311990915
229,828.4002672697824
230,828.3564924064478
231,828.3119896341485
232,828.2667415749496
233,828.2207307700583
234,828.1739400262893
235,828.1263527811784
236,828.0779534815791
237,828.0287279710703
238,827.9786638819562
239,827.9277510279807
240,827.8759817940937
241,827.8233515197298
242,827.7698588720011
243,827.7155062049204
244,827.6602999004618
245,827.6042506874218
246,827.5473739348095
247,827.4896899174662
248,827.4312240522817
249,827.372007103613
250,827.3120753564629
251,827.2514707558282
252,827.190241010609
253,827.1284396607145
254,827.0661261067319
255,827.0033656027944
256,826.9402292147698
257,826.8767937468971
258,826.8131416400149
259,826.7493608435393
260,826.685544661781
261,826.6217915737366
262,826.558205024591
263,826.4948931867332
264,826.4319686877092
265,826.3695483022051
266,826.3077526052557
267,826.2467055846703
268,826.1865342118426
269,826.1273679711854
270,826.0693383493342
271,826.0125782862485
272,825.9572215914056
273,825.903402329088
274,825.8512541771514
275,825.8009097637919
276,825.7524999869433
277,825.7061533212437
278,825.6619951181659
279,825.6201469059334
280,825.5807256968484
281,825.5438433101932
282,825.509605718629
283,825.4781124251434
284,825.4494558765178
285,825.4237209184112
286,825.4009842965161
287,825.3813142074649
288,825.3647699018612
289,825.3514013401825
290,825.3412489010094
291,825.3343431406479
292,825.3307046036275
293,825.3303436842596
294,825.3332605400956
295,825.339445058518
296,825.3488768775718
297,825.3615254613319
298,825.3773502288437
299,825.3963007345745
300,825.4183168978248
301,825.4433292787747
302,825.4712593994507
303,825.5020201083838
304,825.5355159877762
305,825.5716438015533
306,825.610292981854
307,825.651346150418
308,825.6946796704633
309,825.7401642245654
310,825.7876654147291
311,825.8370443815764
312,825.8881584396364
313,825.9408617250068
314,825.9950058504485
315,826.050440561483
316,826.1070143856464
317,826.1645752662688
318,826.2229711724825
319,826.2820506785533
320,826.3416635076671
321,826.4016610373887
322,826.4618967655689
323,826.5222267362088
324,826.5825099250252
325,826.6426085846483
326,826.7023885497496
327,826.7617195030007
328,826.8204752038178
329,826.8785336833326
330,826.9357774105041
331,826.9920934353079
332,827.047373515481
333,827.1015142333697
334,827.1544171089479
335,827.2059887140039
336,827.2561407910412
337,827.3047903787615
338,827.351859944245
339,827.3972775203684
340,827.4409768459055
341,827.4828975050162
342,827.5229850621714
343,827.5611911878555
344,827.5974737698747
345,827.631797004984
346,827.6641314658388
347,827.6944541389596
348,827.7227484305665
349,827.7490041387103
350,827.7732173917092
351,827.7953905539961
352,827.8155321009251
353,827.8336564641653
354,827.8497838493931
355,827.8639400281769
356,827.8761561059431
357,827.8864682676042
358,827.8949175021219
359,827.9015493073633
360,827.9064133771614
361,827.9095632732049
362,827.9110560848089
363,827.9109520795566
364,827.9093143475542
365,827.9062084420561
366,827.9017020197434
367,827.895864484796
368,827.8887666414483
369,827.8804803594138
370,827.8710782555513
371,827.8606333940048
372,827.8492190059495
373,827.8369082286326
374,827.8237738614594
375,827.8098881350352
376,827.7953224881591
377,827.7801473479602
378,827.7644319091335
379,827.7482439090713
380,827.7316493967193
381,827.7147124945028
382,827.6974951545244
383,827.680056911785
384,827.6624546378785
385,827.6447422984419
386,827.6269707171539
387,827.6091873487511
388,827.591436063375
389,827.5737569444419
390,827.5561861021939
391,827.5387555051514
392,827.5214928316449
393,827.504421343391
394,827.4875597828806
395,827.470922296283
396,827.4545183835189
397,827.4383528770571
398,827.4224259508643
399,827.4067331608202
400,827.3912655177377
401,827.3760095937088
402,827.3609476616882
403,827.346057867242
404,827.3313144307873
405,827.3166878786628
406,827.3021453015542
407,827.2876506385097
408,827.2731649841277
409,827.2586469161625
410,827.2440528411972
411,827.2293373568733
412,827.2144536298493
413,827.1993537887143
414,827.1839893304787
415,827.1683115381595
416,827.1522719056621
417,827.135822565076
418,827.1189167111594
419,827.1015090183479
420,827.0835560467651
421,827.0650166348348
422,827.045852276612
423,827.026027481821
424,827.0055101162075
425,826.9842717197175
426,826.9622878003145
427,826.9395381016167
428,826.9160068426287
429,826.8916829274681
430,826.8665601221459
431,826.8406371943311
432,826.8139180111914
433,826.786411590545
434,826.7581321017766
435,826.7290988146789
436,826.6993359958717
437,826.6688727535902
438,826.637742832585
439,826.6059843618176
440,826.5736395584112
441,826.5407543918335
442,826.5073782127741
443,826.4735633521029
444,826.4393646967977
445,826.404839251241
446,826.3700456929693
447,826.3350439315616
448,826.2998946783257
449,826.2646590332378
450,826.2293980942314
451,826.194172592339
452,826.159042554708
453,826.1240669966415
454,826.0893036436142
455,826.0548086843602
456,826.0206365562302
457,825.9868397639791
458,825.953468732885
459,825.9205716963868
460,825.8881946173017
461,825.8563811407995
462,825.8251725772733
463,825.794607913891
464,825.7647238541515
465,825.7355548846809
466,825.707133367848
467,825.6794896576848
468,825.6526522351608
469,825.6266478573809
470,825.6015017143795
471,825.5772375871821
472,825.5538780014849
473,825.5314443720509
474,825.5099571333881
475,825.489435852733
476,825.4698993223897
477,825.4513656301095
478,825.4338522078186
479,825.4173758599461
480,825.401952772868
481,825.3875985069326
482,825.3743279724191
483,825.362155390535
484,825.3510942402007
485,825.3411571912055
486,825.3323560244836
487,825.3247015404572
488,825.3182034562643
489,825.3128702922529
490,825.3087092477184
491,825.3057260656889
492,825.3039248867925
493,825.3033080930112
494,825.3038761433916
495,825.3056274052233
496,825.3085579852873
497,825.3126615661126
498,825.3179292517694
499,825.3243494268598
500,825.3319076312793
501,825.3405864521609
502,825.3503654333608
503,825.361221002047
504,825.373126411517
505,825.3860516994157
506,825.3999636610995
507,825.4148258386483
508,825.4305985265516
509,825.4472387952907
510,825.4647005340978
511,825.4829345141586
512,825.5018884734703
513,825.5215072246389
514,825.5417327871526
515,825.5625045459537
516,825.5837594381697
517,825.6054321694762
518,825.6274554606812
519,825.6497603237715
520,825.6722763649875
521,825.6949321107342
522,825.7176553505618
523,825.7403734902521
524,825.763013907365
525,825.785504301693
526,825.8077730341405
527,825.8297494493146
528,825.8513641787614
529,825.8725494226591
530,825.8932392079629
531,825.9133696210179
532,825.932879012937
533,825.9517081767253
534,825.9698004962194
535,825.9871020682673
536,826.0035618009672
537,826.0191314919124
538,826.033765890992
539,826.0474227521826
540,826.0600628782057
541,826.0716501615782
542,826.0821516258466
543,826.0915374712546
544,826.099781129026
545,826.1068593276267
546,826.1127521729948
547,826.1174432429827
548,826.1209196942234
549,826.12317237764
550,826.1241959573665
551,826.1239890272147
552,826.1225542190017
553,826.1198982977742
554,826.1160322399018
555,826.1109712909146
556,826.1047350007186
557,826.0973472344268
558,826.088836157572
559,826.0792341950872
560,826.0685779641489
561,826.0569081814915
562,826.0442695459056
563,826.0307105964357
564,826.0162835465799
565,826.0010440946663
566,825.9850512104995
567,825.9683668982548
568,825.9510559355854
569,825.9331855891969
570,825.9148253078192
571,825.8960463942273
572,825.8769216584005
573,825.8575250539665
574,825.8379312999427
575,825.8182154897532
576,825.7984526898473
577,825.7787175311049
578,825.7590837972749
579,825.739624015513
580,825.7204090544669
581,825.7015077352249
582,825.6829864596289
583,825.6649088589795
584,825.6473354645186
585,825.6303233998932
586,825.6139260952806
587,825.5981930228302
588,825.5831694533617
589,825.5688962348127
590,825.5554095937246
591,825.5427409619122
592,825.5309168310355
593,825.5199586378575
594,825.5098826825451
595,825.5007000815773
596,825.492416755985
597,825.4850334551119
598,825.4785458159278
599,825.4729444579185
600,825.4682151135634
601,825.4643387943966
602,825.4612919925429
603,825.4590469172232
604,825.4575717649811
605,825.4568310215793
606,825.4567857929719
607,825.4573941623757
608,825.4586115698756
609,825.4603912102336
610,825.4626844439507
611,825.4654412162939
612,825.4686104787858
613,825.4721406074393
614,825.475979811881
615,825.480076529437
616,825.484379798175
617,825.4888396029979
618,825.4934071896882
619,825.4980353434906
620,825.5026786309186
621,825.5072936051201
622,825.5118389757117
623,825.5162757437224
624,825.5205673019573
625,825.5246795011268
626,825.5285806822972
627,825.5322416763848
628,825.5356357717402
629,825.5387386515221
630,825.5415283033886
631,825.5439849048798
632,825.5460906888355
633,825.5478297941575
634,825.5491881076795
635,825.5501531026221
636,825.5507136785137
637,825.5508600071703
638,825.5505833893677
639,825.5498761267389
640,825.5487314128624
641,825.5471432466526
642,825.5451063703568
643,825.542616234001
644,825.5396689881411
645,825.5362615070557
646,825.5323914443712
647,825.5280573219493
648,825.5232586507576
649,825.5179960800431
650,825.5122715691267
651,825.5060885749599
652,825.4994522483449
653,825.4923696322436
654,825.4848498563658
655,825.4769043227956
656,825.4685468778052
657,825.4597939657602
658,825.4506647624027
659,825.4411812863548
660,825.4313684887409
661,825.4212543211432
662,825.410869781991
663,825.4002489414487
664,825.3894289452193
665,825.3784499982414
666,825.3673553296086
667,825.3561911399484
668,825.3450065319962
669,825.333853424444
670,825.3227864489116
671,825.3118628305818
672,825.3011422544258
673,825.2906867201287
674,825.280560388979
675,825.2708294251012
676,825.2615618321375
677,825.2528272855279
678,825.2446969601193
679,825.2372433526232
680,825.2305400980944
681,825.2246617791333
682,825.2196837260651
683,825.2156818060054
684,825.2127321986219
685,825.2109111567902
686,825.2102947513505
687,825.2109586005912
688,825.21297758645
689,825.2164255603061
690,825.2213750414269
691,825.2278969107085
692,825.2360601015772
693,825.2459312892327
694,825.2575745792212
695,825.2710511967099
696,825.2864191783721
697,825.3037330689306
698,825.3230436239113
699,825.3443975193719
700,825.3678370687867
701,825.3933999472915
702,825.4211189241257
703,825.4510216051399
704,825.483130188162
705,825.5174612343028
706,825.5540254578383
707,825.5928275366813
708,825.6338659452734
709,825.6771328120248
710,825.722613803755
711,825.7702880395804
712,825.8201280363546
713,825.8720996874077
714,825.9261622760945
715,825.9822685254626
716,826.0403646849575
717,826.1003906544971
718,826.1622801454886
719,826.2259608773564
720,826.2913548070497
721,826.3583783881505
722,826.4269428558567
723,826.4969545341645
724,826.5683151618761
725,826.6409222344596
726,826.7146693591106
727,826.7894466205333
728,826.865140955181
729,826.9416365321382
730,827.0188151393462
731,827.096556574102
732,827.174739036517
733,827.2532395240405
734,827.3319342244442
735,827.4106989040723
736,827.489409288047
737,827.5679414297929
738,827.646172068581
739,827.723978975275
740,827.8012412877075
741,827.8778398379978
742,827.9536574746511
743,828.0285793823363
744,828.102493401733
745,828.1752903509604
746,828.2468643491048
747,828.3171131413266
748,828.385938423922
749,828.4532461666776
750,828.5189469291327
751,828.5829561671709
752,828.6451945265394
753,828.7055881199178
754,828.7640687836454
755,828.8205743094786
756,828.8750486464878
757,828.9274420686106
758,828.9777113041223
759,829.0258196241003
760,829.0717368879797
761,829.1154395456061
762,829.1569105965634
763,829.1961395085317
764,829.2331220966922
765,829.2678603657562
766,829.3003623155273
767,829.3306417105858
768,829.3587178150364
769,829.3846150941646
770,829.4083628859646
771,829.4299950465312
772,829.4495495740265
773,829.4670682162179
774,829.482596066606
775,829.4961811541982
776,829.5078740320689
777,829.5177273697608
778,829.5257955540784
779,829.5321343019704
780,829.536800288341
781,829.53985079111
782,829.5413433556705
783,829.5413354807483
784,829.5398843272151
785,829.5370464507594
786,829.5328775589426
787,829.5274322932851
788,829.5207640374119
789,829.5129247526984
790,829.5039648431872
791,829.4939330516102
792,829.4828763877719
793,829.4708400891362
794,829.4578676115073
795,829.4440006459478
796,829.4292791571672
797,829.4137414385748
798,829.3974241795893
799,829.3803625412303
800,829.3625902364175
801,829.3441396117051
802,829.3250417271802
803,829.3053264309386
804,829.2850224243684
805,829.2641573149249
806,829.2427576541752
807,829.2208489599999
808,829.1984557223941
809,829.1756013923048
810,829.1523083528266
811,829.1285978723646
812,829.1044900403075
813,829.0800036871578
814,829.0551562924712
815,829.0299638850929
816,829.004440941066
817,828.9786002851904
818,828.9524530023875
819,828.9260083647821
820,828.8992737799791
821,828.8722547656929
822,828.8449549555244
823,828.8173761398809
824,828.7895183444833
825,828.7613799469015
826,828.7329578295618
827,828.7042475659748
828,828.6752436356583
829,828.645939662346
830,828.6163286693853
831,828.5864033457528
832,828.5561563162396
833,828.5255804103241
834,828.4946689258405
835,828.4634158853052
836,828.4318162843239
837,828.3998663324032
838,828.3675636862803
839,828.3349076745894
840,828.3018995110976
841,828.2685424928509
842,828.234842179803
843,828.2008065534768
844,828.1664461531905
845,828.1317741889309
846,828.0968066302481
847,828.0615622709548
848,828.0260627699071
849,827.9903326683133
850,827.9543993836361
851,827.9182931794192
852,827.8820471096558
853,827.8456969359955
854,827.8092810164155
855,827.7728401648643
856,827.736417482371
857,827.7000581608298
858,827.6638092610727
859,827.6277194669709
860,827.5918388172848
861,827.5562184171107
862,827.520910131378
863,827.4859662639574
864,827.4514392271477
865,827.4173812071393
866,827.3838438311393
867,827.3508778410833
868,827.3185327774817
869,827.2868566755044
870,827.2558957744815
871,827.2256942416307
872,827.1962939106395
873,827.1677340353094
874,827.1400510578159
875,827.1132783905614
876,827.0874462104662
877,827.0625812649242
878,827.0387066893084
879,827.0158418364169
880,826.9940021183893
881,826.9731988615712
882,826.9534391748937
883,826.9347258325688
884,826.9170571721669
885,826.9004270095325
886,826.8848245725572
887,826.8702344563126
888,826.8566366020967
889,826.8440063024839
890,826.8323142335777
891,826.8215265145203
892,826.8116047932168
893,826.802506356688
894,826.7941842646948
895,826.7865875059136
896,826.7796611765906
897,826.7733466822348
898,826.7675819637499
899,826.7623017502217
900,826.7574378409707
901,826.7529194192614
902,826.7486733993796
903,826.744624807775
904,826.7406971978589
905,826.7368130971951
906,826.7328944853201
907,826.7288633000143
908,826.7246419693026
909,826.7201539657998
910,826.715324379229
911,826.7100805020998
912,826.7043524228055
913,826.6980736199263
914,826.6911815512674
915,826.6836182310451
916,826.6753307886195
917,826.666272002264
