frame_number,force
0,873.5924700068496
1,873.6635780256765
2,873.7345063778625
3,873.8050764536503
4,873.8751117490727
5,873.944438898589
6,874.0128886827483
7,874.0802970021441
8,874.1465058095491
9,874.2113639931616
10,874.2747282049296
11,874.3364636287135
12,874.3964446837223
13,874.4545556594352
14,874.5106912791603
15,874.5647571901842
16,874.6166703787292
17,874.6663595076235
18,874.7137651742484
19,874.7588400865101
20,874.8015491555418
21,874.8418695052773
22,874.8797904002712
23,874.915313093501
24,874.9484505954663
25,874.9792273653728
26,875.0076789249771
27,875.0338513956788
28,875.0578009596755
29,875.0795932469211
30,875.0993026516604
31,875.1170115848464
32,875.1328096705444
33,875.1467928950991
34,875.1590627183313
35,875.1697251573297
36,875.1788898551198
37,875.1866691473437
38,875.1931771394876
39,875.1985288057848
40,875.2028391195377
41,875.206222223459
42,875.2087906476286
43,875.210654581696
44,875.2119212066941
45,875.2126940896351
46,875.2130726409043
47,875.2131516312018
48,875.2130207624382
49,875.2127642860696
50,875.2124606628585
51,875.2121822598035
52,875.2119950824456
53,875.2119585430656
54,875.212125266732
55,875.2125409373264
56,875.2132441846819
57,875.2142665124387
58,875.2156322649766
59,875.2173586311208
60,875.21945568223
61,875.2219264429152
62,875.2247669939779
63,875.2279666084228
64,875.2315079216258
65,875.2353671359826
66,875.2395142597207
67,875.2439133797935
68,875.2485229693432
69,875.2532962298699
70,875.2581814666219
71,875.2631224937403
72,875.2680590642935
73,875.2729273195328
74,875.2776602512552
75,875.2821881712214
76,875.2864391822867
77,875.2903396469867
78,875.2938146503487
79,875.2967884544296
80,875.2991849424737
81,875.3009280510366
82,875.301942189478
83,875.3021526479674
84,875.3014859967107
85,875.2998704793142
86,875.2972364015803
87,875.2935165143816
88,875.2886463869055
89,875.28256476515
90,875.2752139100064
91,875.2665399093851
92,875.2564929595002
93,875.2450276113398
94,875.2321029793856
95,875.2176829110832
96,875.2017361176081
97,875.1842362687959
98,875.1651620570346
99,875.1444972357417
100,875.1222306371968
101,875.0983561721699
102,875.072872811223
103,875.0457845461656
104,875.0171003301114
105,874.9868339951207
106,874.9550041467262
107,874.9216340345607
108,874.8867513982767
109,874.8503882885251
110,874.8125808639483
111,874.7733691661805
112,874.732796875133
113,874.6909110465083
114,874.6477618330973
115,874.6034021912956
116,874.5578875745907
117,874.5112756167171
118,874.4636258087903
119,874.4149991765635
120,874.3654579652339
121,874.3150653395227
122,874.2638851060142
123,874.2119814635405
124,874.1594187863674
125,874.1062614442284
126,874.0525736623822
127,873.9984194233166
128,873.9438624094196
129,873.8889659834626
130,873.8337932017516
131,873.7784068537522
132,873.7228695219096
133,873.6672436558956
134,873.6115916561644
135,873.555975962206
136,873.5004591413827
137,873.445103974987
138,873.3899735394305
139,873.3351312820167
140,873.2806410918113
141,873.2265673662249
142,873.1729750733715
143,873.1199298095314
144,873.0674978502075
145,873.0157461922032
146,872.9647425831009
147,872.9145555337399
148,872.8652543089113
149,872.8169088916001
150,872.7695899168277
151,872.7233685722733
152,872.6783164638434
153,872.6345054449177
154,872.592007408246
155,872.5508940398365
156,872.5112365350332
157,872.4731052783974
158,872.4365694907054
159,872.4016968479043
160,872.3685530781962
161,872.3372015446107
162,872.3077028212674
163,872.2801142718595
164,872.2544896389653
165,872.230878652997
166,872.2093266699105
167,872.1898743469275
168,872.1725573650659
169,872.1574062059793
170,872.1444459885525
171,872.1336963682735
172,872.1251714997665
173,872.118880060031
174,872.1148253272279
175,872.113005307885
176,872.1134129043357
177,872.1160361137759
178,872.1208582504534
179,872.1278581835033
180,872.1370105850219
181,872.148286186055
182,872.1616520418156
183,872.1770718105159
184,872.1945060512784
185,872.2139125452265
186,872.2352466409261
187,872.2584616221965
188,872.2835090938046
189,872.3103393788972
190,872.338901920993
191,872.3691456826461
192,872.4010195324984
193,872.4344726127405
194,872.469454680484
195,872.5059164189124
196,872.5438097161533
197,872.583087910503
198,872.6237059999371
199,872.6656208126777
200,872.7087911351541
201,872.7531777947872
202,872.798743697495
203,872.8454538227246
204,872.8932751809515
205,872.9421767389534
206,872.9921293165447
207,873.0431054556507
208,873.0950792600597
209,873.1480262028559
210,873.2019228984494
211,873.2567468369532
212,873.3124760802269
213,873.3690889210249
214,873.4265635088576
215,873.4848774479643
216,873.5440073740647
217,873.6039285173422
218,873.6646142594402
219,873.7260356922209
220,873.7881611857507
221,873.8509559725237
222,873.9143817543998
223,873.9783963382333
224,874.0429533058202
225,874.108001723673
226,874.1734858981354
227,874.239345181065
228,874.3055138304923
229,874.3719209294969
230,874.4384903656062
231,874.5051408724503
232,874.5717861349482
233,874.6383349585363
234,874.7046915016895
235,874.7707555693139
236,874.8364229630805
237,874.9015858839282
238,874.9661333817527
239,875.0299518472292
240,875.0929255404327
241,875.1549371502399
242,875.215868377495
243,875.2756005338923
244,875.3340151478734
245,875.3909945687989
246,875.4464225613305
247,875.5001848833983
248,875.552169843031
249,875.6022688311889
250,875.6503768291193
251,875.6963928893842
252,875.7402205895937
253,875.7817684573789
254,875.8209503650904
255,875.857685893933
256,875.891900669709
257,875.923526675013
258,875.9525025443899
259,875.9787738489335
260,876.0022933750711
261,876.0230213994301
262,876.0409259585155
263,876.0559831090967
264,876.0681771732249
265,876.0775009606567
266,876.0839559608007
267,876.0875524958212
268,876.0883098263839
269,876.0862562020661
270,876.0814288499084
271,876.0738738966462
272,876.063646222303
273,876.0508092448323
274,876.0354346374639
275,876.0176019822829
276,875.99739836498
277,875.9749179163899
278,875.9502613066101
279,875.9235351977695
280,875.894851662257
281,875.8643275742444
282,875.8320839831937
283,875.7982454781849
284,875.762939551051
285,875.7262959647323
286,875.6884461315921
287,875.6495225050696
288,875.6096579869358
289,875.5689853515788
290,875.5276366884133
291,875.4857428635804
292,875.4434330022578
293,875.4008339930339
294,875.3580700159966
295,875.3152620963818
296,875.2725276857572
297,875.2299802728052
298,875.1877290255427
299,875.145878466105
300,875.1045281783663
301,875.0637725483151
302,875.0237005375557
303,874.9843954912128
304,874.9459349823173
305,874.9083906951051
306,874.8718283495476
307,874.8363076687663
308,874.8018823897991
309,874.76860031685
310,874.7365034150159
311,874.7056279413003
312,874.6760046080434
313,874.6476587720629
314,874.6206106419521
315,874.5948754969229
316,874.5704639127905
317,874.5473819928475
318,874.525631602533
319,874.5052106070989
320,874.4861131114509
321,874.4683297011441
322,874.4518476829129
323,874.4366513223932
324,874.4227220766404
325,874.4100388202011
326,874.3985780654956
327,874.3883141800371
328,874.3792196037065
329,874.3712650690261
330,874.3644198268144
331,874.3586518789314
332,874.353928218849
333,874.3502150798316
334,874.3474781902484
335,874.3456830358393
336,874.3447951287272
337,874.3447802820646
338,874.3456048879766
339,874.3472361956324
340,874.3496425860055
341,874.3527938399927
342,874.3566613968259
343,874.3612185997856
344,874.366440925825
345,874.3723061949775
346,874.3787947548543
347,874.3858896355616
348,874.3935766709474
349,874.4018445830029
350,874.41068502733
351,874.4200925986895
352,874.4300647962755
353,874.4406019481532
354,874.4517070938618
355,874.4633858247574
356,874.4756460837448
357,874.4884979287405
358,874.5019532662009
359,874.5160255615867
360,874.5307295329816
361,874.5460808330278
362,874.5620957235525
363,874.5787907469002
364,874.5961823977512
365,874.6142867985628
366,874.6331193806293
367,874.6526945717536
368,874.6730254912064
369,874.6941236528944
370,874.7159986780264
371,874.7386580190037
372,874.7621066968736
373,874.7863470552743
374,874.811378534179
375,874.837197466919
376,874.8637969040172
377,874.891166467205
378,874.9192922363385
379,874.948156670614
380,874.9777385638962
381,875.0080130327387
382,875.0389515348544
383,875.0705219149725
384,875.1026884742537
385,875.1354120592011
386,875.1686501666019
387,875.2023570623567
388,875.2364839138513
389,875.2709789372574
390,875.30578756208
391,875.340852615116
392,875.376114525277
393,875.4115115501888
394,875.4469800252715
395,875.4824546358225
396,875.5178687118865
397,875.5531545440556
398,875.5882437162828
399,875.6230674503636
400,875.6575569565042
401,875.6916437850532
402,875.7252601753877
403,875.758339398677
404,875.7908160915775
405,875.8226265779169
406,875.8537091753011
407,875.8840044835973
408,875.9134556524641
409,875.9420086253273
410,875.9696123571725
411,875.9962190035187
412,876.0217840787518
413,876.0462665837881
414,876.0696291047632
415,876.0918378850887
416,876.1128628728458
417,876.1326777446479
418,876.1512599059827
419,876.16859046679
420,876.1846541900875
421,876.1994394111505
422,876.2129379251679
423,876.2251448424615
424,876.2360584121752
425,876.2456798174167
426,876.2540129467135
427,876.2610641480314
428,876.2668419724447
429,876.2713569150008
430,876.2746211604373
431,876.2766483408781
432,876.2774533110965
433,876.2770519445131
434,876.2754609505497
435,876.2726977120375
436,876.2687801403426
437,876.2637265456831
438,876.2575555206012
439,876.2502858353322
440,876.2419363441919
441,876.2325259015157
442,876.2220732840883
443,876.2105971152209
444,876.1981157848513
445,876.1846473606736
446,876.1702094869243
447,876.1548192696698
448,876.1384931502258
449,876.1212467712628
450,876.1030948424866
451,876.0840510141433
452,876.0641277671594
453,876.043336328481
454,876.0216866187549
455,875.9991872366045
456,875.9758454799153
457,875.9516674011657
458,875.9266578923832
459,875.900820796149
460,875.8741590410818
461,875.8466748015713
462,875.8183696811795
463,875.7892449175944
464,875.7593016055176
465,875.7285409331026
466,875.6969644271629
467,875.6645742017286
468,875.6313732035844
469,875.5973654477526
470,875.5625562358888
471,875.5269523515271
472,875.4905622282442
473,875.4533960899875
474,875.4154660662509
475,875.3767862874623
476,875.3373729670807
477,875.2972444762964
478,875.2564214153867
479,875.2149266837664
480,875.172785549397
481,875.1300257175342
482,875.0866773982917
483,875.0427733717636
484,874.9983490485503
485,874.9534425226387
486,874.9080946125373
487,874.8623488852868
488,874.8162516571552
489,874.7698519653267
490,874.7232015066526
491,874.6763545416173
492,874.6293677632542
493,874.5823001317217
494,874.5352126760022
495,874.488168265073
496,874.4412313518746
497,874.3944676941444
498,874.3479440566919
499,874.3017279002088
500,874.2558870622246
501,874.2104894359157
502,874.1656026519355
503,874.1212937675848
504,874.0776289668638
505,874.034673274018
506,873.9924902818046
507,873.9511418941072
508,873.9106880812744
509,873.8711866457094
510,873.8326929944881
511,873.7952599150063
512,873.7589373491859
513,873.7237721621598
514,873.6898079028209
515,873.6570845557865
516,873.6256382867095
517,873.5955011849347
518,873.5667010086963
519,873.5392609382201
520,873.5131993417932
521,873.4885295599358
522,873.4652597133864
523,873.443392540954
524,873.422925272604
525,873.4038495418098
526,873.3861513403895
527,873.3698110192136
528,873.3548033386381
529,873.3410975723392
530,873.3286576668739
531,873.3174424567682
532,873.3074059318036
533,873.2984975504295
534,873.2906625916114
535,873.2838425370129
536,873.2779754756252
537,873.2729965230372
538,873.2688382471503
539,873.2654310917706
540,873.262703790095
541,873.2605837621155
542,873.2589974929507
543,873.2578708919815
544,873.2571296345279
545,873.2566994883796
546,873.2565066271659
547,873.2564779321604
548,873.2565412843223
549,873.2566258492448
550,873.2566623587271
551,873.2565833934138
552,873.2563236709238
553,873.2558203429071
554,873.255013302506
555,873.2538455010489
556,873.2522632700011
557,873.2502166419841
558,873.2476596636989
559,873.2445506939474
560,873.2408526810641
561,873.2365334152059
562,873.2315657518437
563,873.225927803668
564,873.2196030992593
565,873.2125807081475
566,873.2048553327319
567,873.1964273674638
568,873.1873029248751
569,873.1774938273109
570,873.1670175632382
571,873.155897207591
572,873.1441613061634
573,873.1318437242605
574,873.1189834595352
575,873.1056244181447
576,873.0918151523845
577,873.0776085575816
578,873.0630615268036
579,873.0482345635437
580,873.0331913540998
581,873.0179983022128
582,873.0027240287716
583,872.9874388397396
584,872.972214166362
585,872.9571219826355
586,872.9422342051545
587,872.927622079988
588,872.9133555612227
589,872.8995026866824
590,872.8861289575597
591,872.8732967294513
592,872.8610646221922
593,872.8494869549993
594,872.8386132122304
595,872.8284875440092
596,872.8191483053236
597,872.8106276371309
598,872.8029510934479
599,872.7961373187948
600,872.7901977800586
601,872.7851365557848
602,872.7809501848451
603,872.7776275759788
604,872.7751499798201
605,872.7734910252127
606,872.7726168216042
607,872.7724861292301
608,872.7730505986968
609,872.7742550810101
610,872.7760380078721
611,872.7783318406408
612,872.7810635852328
613,872.7841553695357
614,872.7875250794366
615,872.7910870492079
616,872.7947528014121
617,872.798431830105
618,872.8020324187459
619,872.8054624814827
620,872.8086304146167
621,872.8114459450812
622,872.813820964643
623,872.8156703411598
624,872.8169127004089
625,872.8174711733582
626,872.8172741045071
627,872.8162557172203
628,872.8143567318604
629,872.8115249321315
630,872.807715674676
631,872.8028923369119
632,872.7970266984463
633,872.7900992518435
634,872.7820994385464
635,872.7730258052055
636,872.7628860750957
637,872.7516971297129
638,872.7394848976625
639,872.7262841512386
640,872.7121382144188
641,872.69709858826
642,872.6812245005993
643,872.6645823871129
644,872.6472453109725
645,872.6292923289676
646,872.6108078126616
647,872.5918807332203
648,872.5726039178646
649,872.55307328501
650,872.5333870643738
651,872.5136450074407
652,872.4939475922818
653,872.4743952251642
654,872.4550874405817
655,872.436122101874
656,872.4175946062056
657,872.39959709968
658,872.3822177104413
659,872.3655398095647
660,872.349641310939
661,872.3345940215255
662,872.3204630521487
663,872.3073062968294
664,872.295173986304
665,872.2841083192761
666,872.2741431734216
667,872.2653038973407
668,872.2576071844735
669,872.2510610303684
670,872.2456647753544
671,872.2414092350175
672,872.2382769202396
673,872.2362423467322
674,872.2352724314609
675,872.2353269708908
676,872.2363591938737
677,872.2383163800665
678,872.2411405331576
679,872.2447690974224
680,872.2491357062023
681,872.2541709510988
682,872.2598031606699
683,872.2659591776462
684,872.2725651246033
685,872.2795471495294
686,872.2868321445314
687,872.2943484329411
688,872.3020264221375
689,872.3097992209092
690,872.3176032206787
691,872.3253786394591
692,872.333070026551
693,872.340626725403
694,872.3480032921963
695,872.3551598686125
696,872.3620625085086
697,872.3686834593531
698,872.3750013999155
699,872.3810016357543
700,872.3866762537017
701,872.3920242361247
702,872.3970515354823
703,872.4017711097024
704,872.4062029188918
705,872.4103738832638
706,872.4143178007147
707,872.4180752209195
708,872.4216932722636
709,872.425225438894
710,872.4287312872326
711,872.4322761434611
712,872.4359307249211
713,872.4397707288231
714,872.443876381575
715,872.4483319522311
716,872.4532252344046
717,872.4586470020506
718,872.4646904450736
719,872.4714505904855
720,872.479023713891
721,872.4875067445251
722,872.496996665267
723,872.5075899077667
724,872.519381742652
725,872.5324656656376
726,872.5469327814882
727,872.5628711885716
728,872.580365367137
729,872.5994955745325
730,872.6203372504432
731,872.642960435172
732,872.6674292043997
733,872.6938011247915
734,872.7221267359731
735,872.7524490654605
736,872.7848031838097
737,872.8192158072484
738,872.8557049543693
739,872.8942796626148
740,872.9349397696224
741,872.9776757637128
742,873.0224687063758
743,873.0692902276724
744,873.1181025938664
745,873.168858846054
746,873.2215030090667
747,873.275970370579
748,873.332187830104
749,873.390074316118
750,873.4495412676639
751,873.5104931754421
752,873.5728281767705
753,873.6364386983142
754,873.701212139929
755,873.7670315928219
756,873.833776585779
757,873.9013238537525
758,873.9695481228052
759,874.0383229043874
760,874.1075212909551
761,874.1770167442614
762,874.2466838667676
763,874.316399145301
764,874.3860416548853
765,874.4554937103702
766,874.524641454404
767,874.5933753723596
768,874.6615907279704
769,874.7291879171737
770,874.7960727410142
771,874.8621566007221
772,874.9273566194685
773,874.9915956965001
774,875.0548025006009
775,875.1169114110126
776,875.1778624148864
777,875.2376009707076
778,875.2960778465264
779,875.3532489401316
780,875.4090750857857
781,875.4635218493647
782,875.5165593113586
783,875.5681618358012
784,875.6183078232572
785,875.6669794474564
786,875.7141623774171
787,875.7598454892541
788,875.8040205737092
789,875.8466820461716
790,875.8878266652631
791,875.9274532644038
792,875.965562498996
793,876.0021566104617
794,876.0372392072571
795,876.0708150618822
796,876.1028899219251
797,876.1334703329858
798,876.162563472117
799,876.190176991179
800,876.2163188689503
801,876.2409972691755
802,876.2642204006545
803,876.2859963764836
804,876.3063330724287
805,876.3252379874916
806,876.3427181115752
807,876.358779805614
808,876.3734286990136
809,876.3866696079867
810,876.3985064766139
811,876.4089423409586
812,876.4179793161065
813,876.4256186069265
814,876.4318605452088
815,876.4367046573742
816,876.4401497668122
817,876.4421941329055
818,876.4428356260196
819,876.4420719353603
820,876.4399008052607
821,876.4363202951863
822,876.4313290591855
823,876.4249266410902
824,876.417113781946
825,876.4078927355737
826,876.3972675870077
827,876.3852445674418
828,876.3718323587651
829,876.3570423808203
830,876.3408890547821
831,876.3233900364036
832,876.3045664134357
833,876.2844428626001
834,876.2630477630444
835,876.2404132648267
836,876.2165753122525
837,876.1915736226903
838,876.1654516219218
839,876.1382563373505
840,876.1100382506102
841,876.0808511112912
842,876.0507517137055
843,876.0197996391692
844,875.9880569674618
845,875.955587962736
846,875.9224587405884
847,875.8887369237003
848,875.8544912932642
849,875.8197914424466
850,875.7847074365096
851,875.7493094822399
852,875.7136676076054
853,875.677851351516
854,875.6419294630508
855,875.6059696095087
856,875.5700380933064
857,875.5341995789681
858,875.4985168326838
859,875.4630504779255
860,875.4278587715653
861,875.3929974057364
862,875.3585193408261
863,875.3244746740991
864,875.2909105468465
865,875.2578710911095
866,875.2253974151696
867,875.1935276251226
868,875.1622968780206
869,875.1317374605173
870,875.1018788860237
871,875.0727480032677
872,875.0443691097295
873,875.0167640645534
874,874.9899523970154
875,874.9639514078755
876,874.9387762615753
877,874.9144400675355
878,874.8909539493723
879,874.8683271015326
880,874.8465668332161
881,874.8256785998213
882,874.8056660231867
883,874.7865309033874
884,874.7682732258315
885,874.7508911674365
886,874.7343811052025
887,874.7187376301074
888,874.7039535690245
889,874.6900200171497
890,874.6769263832439
891,874.6646604499622
892,874.6532084516003
893,874.6425551713518
894,874.6326840590002
895,874.623577367714
896,874.6152163059535
897,874.6075811984888
898,874.6006516495271
899,874.5944067006396
900,874.5888249762891
901,874.5838848104208
902,874.5795643490218
903,874.5758416257157
904,874.5726946101972
905,874.570101232244
906,874.5680393865429
907,874.5664869248936
908,874.5654216424126
909,874.5648212635687
910,874.5646634326342
911,874.5649257113907
912,874.5655855847497
913,874.5666204727627
914,874.5680077456856
915,874.5697247374518
916,874.5717487522361
917,874.574057059048
