acceleration,velocity,displacement
-0.0012899742691618284,0.0,0.0
-0.0009126575444464723,-5.506579534020751e-07,-1.376644883505188e-10
-0.0005353694509451634,-9.12664702249984e-07,-5.034951522635336e-10
-0.0001581403554192547,-1.0860421538410887e-06,-1.0031718662863017e-09
0.00021899592884507324,-1.070828260484634e-06,-1.5423894698677324e-09
0.0005960004760197056,-8.670791592684392e-07,-2.0268663248060006e-09
0.0009728276417300703,-4.7487212983099513e-07,-2.3623541470808592e-09
0.0013494235273855838,1.0569066244791844e-07,-2.4546495139266285e-09
0.001725724518475155,8.744776739131031e-07,-2.209607429836373e-09
0.002101655893919284,1.8313227770117129e-06,-1.5331573171051691e-09
0.0024771305032345774,2.9760193763001783e-06,-3.313217787771962e-10
0.0028520475148270177,4.308313880815577e-06,1.4897615355017427e-09
0.0032262912471466825,5.8278985713090016e-06,4.0238146485328875e-09
0.003599730102931394,7.534403908828521e-06,7.364390268567268e-09
0.003972215636932282,9.42739034379444e-06,1.160483883172301e-08
0.004343581795696864,1.1506339701951728e-05,1.6838271343159555e-08
0.004713644366446291,1.3770646242487517e-05,2.3157517829269366e-08
0.005082200659585167,1.6219607498995382e-05,3.065508126464009e-08
0.005449029433939563,1.8852415022376564e-05,3.9423086894983075e-08
0.0058138910644487,2.166814514697363e-05,4.9553226937320624e-08
0.006176527950655253,2.466574990074962e-05,6.113670069925144e-08
0.006536665164166704,2.784404817945511e-05,7.426415021930262e-08
0.006894011325199881,3.120171730179675e-05,8.902559158961559e-08
0.007248259680523368,3.4737285053227567e-05,1.0551034217837167e-07
0.007599089336246665,3.8449122307420076e-05,1.2380694401853358e-07
0.007946166591704391,4.233543628940784e-05,1.4400308366774056e-07
0.00828914633318521,4.639426452063024e-05,1.6618550887025009e-07
0.008627673474822128,5.0623469472632075e-05,1.9043994236856567e-07
0.008961384466617529,5.502073395799199e-05,2.1685099322622168e-07
0.009289908911967014,5.958355730263812e-05,2.455020660413792e-07
0.009612871339617447,6.430925236553424e-05,2.7647526845842226e-07
0.009929893157532677,6.919494348982177e-05,3.098513174222613e-07
0.01024059478939173,7.423756547655287e-05,3.4570944466385496e-07
0.010544597970374893,7.943386366649453e-05,3.8412730194961683e-07
0.010841528162538836,8.478039519972296e-05,4.251808666661712e-07
0.011131017040228659,9.027353150041484e-05,4.6894434834120564e-07
0.011412704990440115,9.590946200808204e-05,5.154900967183298e-07
0.011686243570179243,0.00010168419914823688,5.648885120074096e-07
0.011951297860665606,0.00010759358450594809,6.172079579209558e-07
0.012207548652364513,0.00011363329613420562,6.725146780809943e-07
0.012454694384169246,0.00011979885689333906,7.308727163378804e-07
0.012692452751769676,0.0001260856436773238,7.923438414805461e-07
0.012920561903851876,0.00013248889734122918,8.569874767351843e-07
0.013138781160303873,0.00013900373310726813,9.248606343473086e-07
0.013346891207070256,0.00014562515119911166,9.960178554239035e-07
0.013544693743551776,0.00015234804743676717,1.0705111550828732e-06
0.013732010581191384,0.00015916722351795297,1.1483899728215533e-06
0.013908682214619394,0.00016607739671690565,1.229701127880268e-06
0.014074565906098225,0.00017307320874708506,1.3144887792462656e-06
0.014229533338201277,0.00018014923355815993,1.4027943898225768e-06
0.014373467900928813,0.00018729998386794245,1.4946566941791025e-06
0.01450626168806046,0.00019451991626518976,1.5901116692123856e-06
0.014627812279730847,0.0002018034347571376,1.6891925069679674e-06
0.014738019382582984,0.00020914489267271605,1.7919295888254308e-06
0.014836781392150817,0.0002165385928663995,1.8983504602102096e-06
0.014923991942425066,0.0002239787862000435,2.0084798049768203e-06
0.014999536514703754,0.0002314596683143257,2.1223394186054126e-06
0.015063289185914146,0.00023897537473948016,2.239948179368864e-06
0.015115109601013562,0.0002465199744362121,2.361322016662787e-06
0.015154840252220712,0.0002540874618995207,2.4864738757467206e-06
0.015182304139124182,0.0002616717479973569,2.61541367822094e-06
0.01519730287352721,0.00026926664975051977,2.7481482776579092e-06
0.01519961528948534,0.0002768658792912729,2.8846814099183572e-06
0.015188996622629822,0.00028446303226930164,3.0250136378085006e-06
0.015165178325097303,0.0002920515760062334,3.1691422898773845e-06
0.015127868576867475,0.0002996248377317246,3.317061393311874e-06
0.015076753541749368,0.0003071759932613788,3.46876160106015e-06
0.015011499397124432,0.00031469805649609727,3.624230113499519e-06
0.014931755137755503,0.00032218387012981724,3.7834505951559975e-06
0.014837156115358976,0.00032962609794309587,3.946403087174226e-06
0.014727328234007622,0.0003370172190304375,4.11306391641761e-06
0.014601892688735525,0.0003443495242611233,4.2834056022405e-06
0.01446047112277845,0.0003516151152140018,4.4573967621092814e-06
0.01430269109043836,0.000358805905767306,4.635002017354608e-06
0.014128191736921926,0.0003659136264741461,4.816181900414971e-06
0.013936629627836365,0.00037292983181533567,5.000892764987342e-06
0.013727684669923836,0.00037984591038977574,5.189086700538619e-06
0.013501066059998876,0.0003866530980722564,5.380711452654128e-06
0.013256518183216716,0.0003933424941330603,5.575710350705457e-06
0.012993826359870805,0.00039990508026883215,5.77402224430593e-06
0.012712822321351703,0.0004063317424391378,5.975581449982922e-06
0.012413389292137571,0.0004126132953425101,6.180317709428334e-06
0.012095466571709098,0.00041874050930847177,6.388156160591079e-06
0.011759053541273866,0.0004247041393367175,6.599017322752377e-06
0.011404213051233977,0.00043049495598484447,6.8128170965827676e-06
0.011031074167864204,0.00043610377778961903,7.029466780026384e-06
0.010639834273727354,0.0004415215049000169,7.2488731006987924e-06
0.010230760531656575,0.0004467391536013629,7.470938265324138e-06
0.009804190737938064,0.00045174789141876157,7.695560026579169e-06
0.009360533603418757,0.00045653907250410076,7.922631767559885e-06
0.008900268508975644,0.0004611042730321994,8.15204260394396e-06
0.008423944782914364,0.0004654353263551719,8.383677503790804e-06
0.007932180542124722,0.00046952435768643166,8.617417424801204e-06
0.007425661129605869,0.0004733638181043643,8.853139468748902e-06
0.0069051371751193726,0.0004769465176805456,9.09071705269513e-06
0.0063714223093709905,0.0004802656575516682,9.330020096503184e-06
0.005825390573136181,0.00048331486077229495,9.570915226084174e-06
0.00526797356923746,0.00048608820180788835,9.81326599172922e-06
0.004700157394206315,0.0004885802345487493,1.0056933100818378e-05
0.0041229793586013645,0.0004907860187369512,1.0301774664139803e-05
0.0035375244757270365,0.0004927011446955333,1.0547646454997925e-05
0.0029449216809725436,0.0004943217562347082,1.0794402180230485e-05
0.002346339737491566,0.0004956445715893243,1.1041893762186493e-05
0.0017429827819993838,0.000496666902219197,1.1289971630638624e-05
0.0011360854670840177,0.0004973866692814679,1.153848502351379e-05
0.0005269076691050124,0.0004978024175655151,1.1787282295225537e-05
-8.327124591760473e-05,0.000497913326671312,1.2036211231284744e-05
-0.0006931585775895938,0.0004977192192154352,1.2285119367756431e-05
-0.0013014548184236553,0.0004972205658664319,1.2533854314026897e-05
-0.0019068604795221935,0.0004964184870419454,1.2782264077253992e-05
-0.0025080831270971288,0.0004953147511402905,1.3030197386799551e-05
-0.0031038445424237766,0.0004939117692229103,1.3277504016890352e-05
-0.003692887927559908,0.0004922125861054143,1.3524035105722433e-05
-0.004273985091050683,0.0004902208678507617,1.3769643469211477e-05
-0.00484594355789583,0.0004879408856885251,1.4014183907596298e-05
-0.005407613552079319,0.0004853774964110313,1.4257513503121187e-05
-0.005957894791946978,0.00048253611932502473,1.44994919070552e-05
-0.0064957430201357,0.0004794227098720041,1.4739981614354458e-05
-0.007020176174213088,0.00047604373007341686,1.4978848224340812e-05
-0.007530280106649332,0.00047240611600320127,1.5215960685859967e-05
-0.00802521378417542,0.0004685172425304951,1.545119152549339e-05
-0.00850421392683825,0.00046438488560274167,1.5684417057526698e-05
-0.008966599074721906,0.00046001718235235165,1.5915517574515472e-05
-0.009411773086085975,0.0004554225893121497,1.61443775174316e-05
-0.00983922806910461,0.000450609839023352,1.6370885624515473e-05
-0.010248546736441556,0.0004455878953219655,1.6594935058101803e-05
-0.010639404164055774,0.0004403659075968412,1.6816423508831506e-05
-0.011011568942602197,0.0004349531643201767,1.703525327681076e-05
-0.011364903727346552,0.0004293590461526895,1.725133132942898e-05
-0.011699365210883205,0.0004235929789181321,1.7464569335696684e-05
-0.012015003556251156,0.00041766438672634847,1.7674883677107804e-05
-0.012311961333290801,0.00041158264550396296,1.788219543516538e-05
-0.012590471997505712,0.00040535703717126386,1.808643035583419e-05
-0.012850857938543774,0.00039899670468725146,1.828751879129882e-05
-0.013093528106668487,0.0003925106081759484,1.848539561951462e-05
-0.013318975205083034,0.0003859074823480105,1.868000014214561e-05
-0.013527772420205326,0.0003791957954416884,1.8871275961593037e-05
-0.01372056965613755,0.0003723837099226027,1.905917083793411e-05
-0.013898089245066142,0.0003654790451973018,1.9243636526714084e-05
-0.01406112112184996,0.00035848924260557276,1.94246285986648e-05
-0.014210517478349359,0.00035142133295552294,1.9602106242555077e-05
-0.014347186946809809,0.0003442819068492332,1.9776032052506267e-05
-0.014472088389377533,0.00033707708801518636,1.9946371801222373e-05
-0.014586224383511124,0.0003298125098219642,2.011309420068166e-05
-0.014690634495666632,0.00032249329510216973,2.0276170651912693e-05
-0.014786388441009725,0.0003151240393680006,2.0435574985530234e-05
-0.014874579236300638,0.00030770879744867303,2.0591283194734403e-05
-0.014956316451891282,0.000300251073526625,2.0743273162478227e-05
-0.015032719643786751,0.0002927538145027055,2.089152438448556e-05
-0.015104912004262158,0.00028521940659069326,2.103601768975891e-05
-0.015174014228358464,0.0002776496750325381,2.1176734960164717e-05
-0.015241138564639158,0.0002700458868342887,2.1313658850631425e-05
-0.01530738300028695,0.00026240875644305717,2.144677251145076e-05
-0.015373825519120738,0.00025473845431320523,2.1576059314139827e-05
-0.015441518367926958,0.0002470346183414433,2.170150258230349e-05
-0.01551148227724223,0.000239296368180151,2.1823085328933888e-05
-0.015584700609777364,0.0002315223224583961,2.1940790001593524e-05
-0.015662113446762715,0.0002237106189442611,2.2054598236944187e-05
-0.015744611656058394,0.00021585893766855582,2.216449062609739e-05
-0.0158330310051982,0.00020796452700324165,2.227044649226534e-05
-0.01592814638960502,0.00020002423265454085,2.2372443682179784e-05
-0.016030666252344502,0.00019203452949405347,2.2470458372716933e-05
-0.016141227283389428,0.00018399155611012,2.2564464894117976e-05
-0.01626038949752575,0.00017589115191489122,2.265443557112423e-05
-0.01638863179211619,0.00016772889659248072,2.2740340583251074e-05
-0.01652634807793022,0.00015950015162496912,2.2822147845305435e-05
-0.016673844063082973,0.00015120010358971581,2.2899822909109106e-05
-0.016831334755565752,0.00014282380888505362,2.2973328887227797e-05
-0.016998942735029512,0.0001343662395124048,2.304262639932716e-05
-0.01717669722781924,0.0001258223295216926,2.3107673541585685e-05
-0.017364533999738807,0.0001171870217148031,2.316842587939481e-05
-0.01756229606246757,0.0001084553141992515,2.322483646337332e-05
-0.01776973518075709,9.962230638844534e-05,2.3276855868520246e-05
-0.017986514170651897,9.068324405059309e-05,2.3324432256130004e-05
-0.018212209981914973,8.163356301245137e-05,2.3367511457895765e-05
-0.018446317546433742,7.246893113036419e-05,2.3406037081431468e-05
-0.018688254349320012,6.318528815642575e-05,2.3439950636253165e-05
-0.018937365653462324,5.3778883155730166e-05,2.3469191679081202e-05
-0.01919293029221574,4.4246309169310646e-05,2.3493697977162463e-05
-0.01945416694335945,3.458453486041685e-05,2.3513405688169897e-05
-0.01972024081095014,2.479093292183945e-05,2.352824955511546e-05
-0.019990270662715585,1.4863305053423018e-05,2.3538163114609277e-05
-0.020263336187119015,4.799903340964368e-06,2.3543078916707873e-05
-0.020538485641964928,-5.400552116306618e-06,2.3542928754514037e-05
-0.020814743771033914,-1.5738859469556327e-05,2.353764390161757e-05
-0.021091119966821645,-2.6215325404020216e-05,2.3527155355399176e-05
-0.021366616646240556,-3.682975955728577e-05,2.351139408415885e-05
-0.02164023777895634,-4.758147316358499e-05,2.349029127597863e-05
-0.02191099747480362,-5.846928197702498e-05,2.346377858719348e-05
-0.022177928507817777,-6.949151347268033e-05,2.3431788388331052e-05
-0.02244009063273039,-8.064601825781736e-05,2.3394254005398427e-05
-0.02269657853796461,-9.193018555049112e-05,2.335110995444635e-05
-0.022946529282622655,-0.00010334096250563793,2.330229216743232e-05
-0.023189129088396522,-0.00011487487709839272,2.324773820753131e-05
-0.023423619399579272,-0.00012652806422038668,2.3187387472201615e-05
-0.023649302176196915,-0.00013829629461433073,2.3121181382492936e-05
-0.02386554443074172,-0.0001501750062660654,2.3049063557272837e-05
-0.02407178204365168,-0.00016215933788466373,2.2970979971235154e-05
-0.024267522892662048,-0.00017424416411874216,2.28868790957343e-05
-0.024452349313159715,-0.00018642413217019761,2.2796712021662066e-05
-0.024625919880932653,-0.0001986936994687207,2.2700432563752337e-05
-0.024787970482747064,-0.00021104717205964064,2.2597997345870245e-05
-0.024938314620672596,-0.00022347874333549555,2.248936586702146e-05
-0.025076842891816907,-0.00023598253271361793,2.2374500548009182e-05
-0.025203521601613793,-0.0002485526238369756,2.2253366758871535e-05
-0.0253183904987799,-0.000261183101862074,2.2125932827446773e-05
-0.025421559648430857,-0.00027386808939887673,2.1992170029631534e-05
-0.025513205479348613,-0.00028660178068082157,2.185205256211161e-05
-0.02559356605873598,-0.00029937847356534275,2.1705557498550067e-05
-0.02566293567201116,-0.00031219259899802954,2.1552664730409225e-05
-0.025721658814907265,-0.00032503874761975916,2.1393356893754777e-05
-0.025770123730676227,-0.00033791169325615505,2.1227619283535797e-05
-0.025808755642407512,-0.000350806413099426,2.1055439756946902e-05
-0.025838009844350536,-0.0003637181044711155,2.0876808627554268e-05
-0.02585836482788143,-0.0003766421981391735,2.0691718551901694e-05
-0.025870315618306827,-0.00038957436825072056,2.0500164410304222e-05
-0.025874367480507792,-0.0004025105390254242,2.0302143183485186e-05
-0.025871030118326272,-0.0004154468884251327,2.0097653826622547e-05
-0.02586081245497312,-0.0004283798490684576,1.988669714224915e-05
-0.025844218047166214,-0.00044130610669399243,1.9669275653308536e-05
-0.025821741156002807,-0.00045422259649478467,1.9445393477511344e-05
-0.02579386347166703,-0.00046712649765170213,1.9215056203974724e-05
-0.02576105146644431,-0.00048001522638622994,1.897827077296524e-05
-0.02572375432976453,-0.0004928864278352822,1.873504535940986e-05
-0.025682402418809022,-0.0005057379670224256,1.8485389260695434e-05
-0.02563740614086933,-0.0005185679191623451,1.822931278914924e-05
-0.025589155172753786,-0.000531374559490751,1.7966827169485966e-05
-0.025538017917395555,-0.0005441563527632883,1.7697944441422458e-05
-0.025484341094123012,-0.0005569119425161679,1.7422677367602594e-05
-0.025428449352709263,-0.0005696401401278759,1.7141039346941582e-05
-0.02537064479457822,-0.0005823399136646978,1.685304433349344e-05
-0.02531120628900472,-0.0005950103764355935,1.6558706760968367e-05
-0.025250388497631948,-0.0006076507751322527,1.6258041473076407e-05
-0.025188420563202387,-0.0006202604773974613,1.595106365994398e-05
-0.025125504466303256,-0.0006328389586548376,1.5637788800930904e-05
-0.0250618130982041,-0.0006453857880459645,1.5318232614255702e-05
-0.02499748813434367,-0.0006579006133541014,1.4992411013905686e-05
-0.024932637818429387,-0.0006703831448422947,1.4660340074356588e-05
-0.024867334777673382,-0.0006828331379913204,1.4322036003648184e-05
-0.0248016139844683,-0.0006952503751818559,1.397751512535489e-05
-0.02473547096765464,-0.0007076346464198866,1.3626793869954454e-05
-0.02466886037090883,-0.0007199857292545276,1.326988877603585e-05
-0.024601694955616583,-0.0007323033680861589,1.290681650170068e-05
-0.024533845133507377,-0.0007445872531084399,1.253759384640203e-05
-0.024465139080944255,-0.0007568369991620528,1.2162237783334407e-05
-0.02439536344299827,-0.0007690521247930384,1.1780765502345634e-05
-0.02432426459843626,-0.000781232031803397,1.1393194463196525e-05
-0.02425155043424066,-0.0007933759855615663,1.0999542458855285e-05
-0.024176892568807864,-0.0008054830963123284,1.059982768838681e-05
-0.02409992896149714,-0.0008175523016949047,1.0194068838885002e-05
-0.024020266848453133,-0.0008295823506473922,9.782285175799428e-06
-0.023937485950462453,-0.0008415717888471211,9.3644966409258e-06
-0.02385114191047698,-0.000853518945812356,8.940723957260931e-06
-0.023760769935341583,-0.0008654219237738106,8.51098873986439e-06
-0.0236658886328392,-0.0008772785884158558,8.075313611816973e-06
-0.02356600404630918,-0.0008890865615856429,7.633722324316598e-06
-0.023460613890387415,-0.000900843216069817,7.186239879902732e-06
-0.023349211980134277,-0.0009125456725374475,6.732892657750916e-06
-0.023231292826359214,-0.0009241907987390708,6.2737085399317866e-06
-0.023106356354290012,-0.0009357752110342332,5.808717037488461e-06
-0.022973912701707136,-0.0009472952782982325,5.3379494151553445e-06
-0.02283348706448889,-0.0009587471282397815,4.861438813520841e-06
-0.022684624568295106,-0.0009701266561479774,4.379220367423901e-06
-0.02252689513933312,-0.0009814295360748844,3.891331319368186e-06
-0.0223598983200433,-0.0009926512344397285,3.397811126739533e-06
-0.022183267937549444,-0.0010037870260041267,2.898701561628569e-06
-0.021996676502826697,-0.0010148320121142207,2.394046802098982e-06
-0.02179983921033204,-0.0010257811410425103,1.8838935138097994e-06
-0.021592517421113972,-0.0010366292302003719,1.368290920999079e-06
-0.021374521535510033,-0.0010473709899395279,8.47290865964104e-07
-0.02114571318365398,-0.001058001048619319,3.2094785632439237e-07
-0.02090600668128022,-0.0010685139785855525,-2.1068090047682546e-07
-0.020655369716670605,-0.0010789043226850403,-7.475354757944736e-07
-0.02039382325246159,-0.0010891666209273234,-1.2895532116975646e-06
-0.02012144064352279,-0.0010992954369013195,-1.8366687261547254e-06
-0.019838345989797813,-0.0011092853835596498,-2.3888139312699678e-06
-0.01954471175907646,-0.0011191311479968682,-2.9459180641590973e-06
-0.019240755728025243,-0.0011288275148686436,-3.5079077298754754e-06
-0.018926737302608822,-0.0011383693881263021,-4.074706955624212e-06
-0.018602953292876232,-0.0011477518107751734,-4.6462372553495805e-06
-0.018269733229263792,-0.0011569699824057083,-5.222417703644801e-06
-0.01792743431478144,-0.0011660192742917197,-5.803165017819158e-06
-0.017576436108718205,-0.0011748952418975946,-6.3883936468664865e-06
-0.017217135034065578,-0.0011835936346832907,-6.978015866011707e-06
-0.01684993879563493,-0.0011921104031407158,-7.571941875467709e-06
-0.016475260791227006,-0.0012004417030374312,-8.170079902012246e-06
-0.016093514593828153,-0.001208583896883695,-8.772336301992527e-06
-0.01570510857683747,-0.0012165335526763614,-9.378615664382542e-06
-0.015310440746742513,-0.0012242874400072564,-9.988820912553446e-06
-0.01490989384090457,-0.0012318425236541681,-1.0602853403468802e-05
-0.01450383074355573,-0.0012391959548002831,-1.1220613023082415e-05
-0.014092590269861104,-0.0012463450600536372,-1.1841998276795895e-05
-0.013676483366508107,-0.0012532873284627295,-1.2466906373924987e-05
-0.013255789778694882,-0.0012600203967490303,-1.3095233305227928e-05
-0.012830755235250688,-0.0012665420330025166,-1.3726873912665814e-05
-0.012401589200786156,-0.0012728501191115258,-1.4361721950694324e-05
-0.011968463233574533,-0.001278942632220116,-1.4999670138527235e-05
-0.011531509971264505,-0.0012848176255213259,-1.5640610202962597e-05
-0.011090822747403618,-0.001290473208700993,-1.6284432911518176e-05
