frame_number,force
0,572.9179700000527
1,573.223566405637
2,573.5132452430602
3,573.7729367645198
4,573.9919286276245
5,574.1638005236783
6,574.2867009751892
7,574.3630285096343
8,574.3986767595658
9,574.4020389921683
10,574.3829452206545
11,574.3516477111212
12,574.3179179894331
13,574.2902957694914
14,574.2755262933449
15,574.2782104374191
16,574.3006652849855
17,574.3429692146748
18,574.4031589768167
19,574.4775517258166
20,574.5611708660507
21,574.6482562043012
22,574.7328349690806
23,574.8093168640916
24,574.8730527622522
25,574.9207748783925
26,574.9508379773224
27,574.9632174556986
28,574.9592768021022
29,574.9413673852326
30,574.9123503001041
31,574.875131883911
32,574.8322908870203
33,574.7858534739437
34,574.7372404349835
35,574.6873679623566
36,574.636839372101
37,574.5861401667182
38,574.5357598806246
39,574.4862086317568
40,574.4379493259189
41,574.391300223766
42,574.3463653032524
43,574.3030288644908
44,574.261024408606
45,574.2200687065662
46,574.1800351721058
47,574.1411169296823
48,574.1039108742198
49,574.0693659565136
50,574.0385873447192
51,574.012544717368
52,573.9917652476673
53,573.9760913521513
54,573.9645620278139
55,573.9554502115946
56,573.9464655005689
57,573.9351093458093
58,573.9191401998766
59,573.8970689240259
60,573.8685761767647
61,573.834744503369
62,573.7980356416072
63,573.7620062834811
64,573.7308214008694
65,573.7086727312656
66,573.6992259663392
67,573.7051960004953
68,573.7280948746552
69,573.7681409958069
70,573.824286315056
71,573.8943106756038
72,573.9749394379259
73,574.0619637316356
74,574.1503857714483
75,574.2346557693693
76,574.3090733355399
77,574.3683719058853
78,574.4084150066857
79,574.4268633705498
80,574.4236564726598
81,574.4011891088929
82,574.3641380185867
83,574.3189844127531
84,574.2733488841578
85,574.2352669774947
86,574.2124839772962
87,574.2117832052496
88,574.2383417722763
89,574.2951441662068
90,574.3825354627254
91,574.4980154726048
92,574.636350408497
93,574.7900242084136
94,574.9499906352211
95,575.106640533839
96,575.2508715462517
97,575.3751307545729
98,575.4742902812944
99,575.5462224799986
100,575.591976811804
101,575.6155258893491
102,575.623131251588
103,575.6224530161727
104,575.6215625428304
105,575.628010052468
106,575.6480693871841
107,575.6862401135797
108,575.7450315324706
109,575.8249964557606
110,575.9249470973333
111,576.0422756923391
112,576.1733061942518
113,576.313615164801
114,576.4582854507719
115,576.6020919494721
116,576.7396465698283
117,576.8655407597676
118,576.9745274564385
119,577.0617798839589
120,577.1232383761693
121,577.1560099843458
122,577.1587422419284
123,577.1318736066546
124,577.0776777245726
125,577.0000645021255
126,576.9041637000538
127,576.7957748542148
128,576.6808002894446
129,576.5647716105228
130,576.4525350791339
131,576.348098762828
132,576.2545948397669
133,576.1742943284735
134,576.1086274083253
135,576.0581935277426
136,576.0227740956722
137,576.0013742352086
138,575.9923122473402
139,575.9933528302461
140,576.0018622908128
141,576.0149644120075
142,576.0296889102724
143,576.0431145299987
144,576.0525043854403
145,576.0554195095733
146,576.0498004094634
147,576.0340295988448
148,576.0070008322009
149,575.9682036657927
150,575.9178074366338
151,575.8567238207113
152,575.7866362508403
153,575.7099894803231
154,575.6299303677039
155,575.5501870691061
156,575.4748729758667
157,575.4082125608363
158,575.3542123027701
159,575.3163233816189
160,575.2971418492695
161,575.298171225924
162,575.3196582967157
163,575.3605199493558
164,575.418391649835
165,575.4898169074736
166,575.5705547343975
167,575.6559373509065
168,575.7411974266557
169,575.8217105595076
170,575.8931463171665
171,575.9515651213028
172,575.9935203123209
173,576.0162149659576
174,576.0177219819133
175,575.9972239544525
176,575.9552001694857
177,575.8934989977332
178,575.8152678807998
179,575.7247387921586
180,575.6268755988168
181,575.5269035931277
182,575.429778875535
183,575.3396943551736
184,575.2597184345738
185,575.1916163780037
186,575.1358524688685
187,575.0917462404191
188,575.0577507855531
189,575.0318139859963
190,575.0117713335351
191,574.9957122246042
192,574.9822666885453
193,574.9707737750973
194,574.961311651442
195,574.9545942662177
196,574.9517680136182
197,574.9541582716259
198,574.9630104457543
199,574.9792565797649
200,575.0033306272643
201,575.0350496565266
202,575.0735688838173
203,575.1174067895716
204,575.164524566594
205,575.2124381327061
206,575.2583509097011
207,575.2993173174294
208,575.3324607426573
209,575.3552601969275
210,575.3658848884011
211,575.3635087314497
212,575.348508574719
213,575.3224693867542
214,575.2879813682387
215,575.248279875103
216,575.2068135362332
217,575.1668231915656
218,575.1309923652701
219,575.1012084132653
220,575.0784596362143
221,575.0628813796852
222,575.0539430003546
223,575.050738095946
224,575.0523148656027
225,575.0579712210124
226,575.0674422349512
227,575.0809288528989
228,575.0989589663104
229,575.1221236373158
230,575.1507693918855
231,575.1847365743512
232,575.2232151107355
233,575.2647531060517
234,575.3074135333216
235,575.3490425295281
236,575.3875951830252
237,575.4214571700043
238,575.449697191865
239,575.472187993189
240,575.4895535818538
241,575.5029438871564
242,575.5136932753645
243,575.522957383359
244,575.5314234898674
245,575.5391612498847
246,575.5456445305103
247,575.5499405994603
248,575.5510300632144
249,575.5481929201886
250,575.5413747197921
251,575.5314337546304
252,575.5201786612648
253,575.5101504964247
254,575.5041773693711
255,575.5048049716744
256,575.5137512253925
257,575.5315262683682
258,575.5573022227512
259,575.58903866394
260,575.6238010243638
261,575.6581689039929
262,575.6886307084894
263,575.7119011126679
264,575.7251551625164
265,575.7262096724014
266,575.7136789342198
267,575.6871020815753
268,575.6470154661822
269,575.5949431957687
270,575.5332953482127
271,575.4651790582193
272,575.3941368281543
273,575.3238355156786
274,575.2577384620175
275,575.1987934476773
276,575.1491633463659
277,575.1100281436737
278,575.0814964836067
279,575.062664435851
280,575.0518350993508
281,575.0468699108316
282,575.0456016762422
283,575.0462242871836
284,575.0475918033892
285,575.0493916306724
286,575.052181914504
287,575.0572984051854
288,575.0666436408707
289,575.0823733111245
290,575.1065015435937
291,575.1404692424721
292,575.1847492190593
293,575.2385762661587
294,575.2998755314824
295,575.3654224532781
296,575.4312152106387
297,575.4929899526447
298,575.5467734326974
299,575.5893579507841
300,575.6186038155794
301,575.6335206124255
302,575.6341379955622
303,575.6212317053837
304,575.5960058374125
305,575.5598401683127
306,575.514187208
307,575.4606501547149
308,575.4012079668466
309,575.3385003027801
310,575.2760554063801
311,575.2183443823114
312,575.1705827572652
313,575.1382706551337
314,575.1265407929753
315,575.1394359998397
316,575.1792489587305
317,575.2460336125238
318,575.3373583251511
319,575.4483305666076
320,575.5718902329526
321,575.6993480189149
322,575.821131366602
323,575.9276763145757
324,576.0103615985614
325,576.0623470964798
326,576.0791907180599
327,576.0591817234778
328,576.0034064698174
329,575.9156072305899
330,575.8018853184269
331,575.6702580121686
332,575.530052426849
333,575.3911369521047
334,575.2630372619707
335,575.154029256922
336,575.0703319302721
337,575.0155311208019
338,574.9903352124716
339,574.9926938388644
340,575.0182283890769
341,575.0608673464008
342,575.1135697677727
343,575.1690468609039
344,575.2204264773727
345,575.261823381992
346,575.2887763588855
347,575.2985090893983
348,575.2899827991938
349,575.2637380306456
350,575.2215632334736
351,575.1660668799321
352,575.1002499702277
353,575.0271633187365
354,574.9496929409112
355,574.8704666288114
356,574.7918345566235
357,574.71585829344
358,574.6442549966254
359,574.5782896886185
360,574.5186682732342
361,574.4655150938582
362,574.4184913669006
363,574.3770366030012
364,574.340640678648
365,574.309030152472
366,574.2821979498656
367,574.2602887553477
368,574.2434156333461
369,574.2314942722327
370,574.2241508128678
371,574.2207174709242
372,574.2203007459099
373,574.2218975334614
374,574.2245376061537
375,574.2274372644628
376,574.2301558967007
377,574.2327507975153
378,574.2359169403696
379,574.2410773988714
380,574.2503730007959
381,574.2665045969629
382,574.2924105588226
383,574.3308046456951
384,574.3836430554919
385,574.4516236450274
386,574.5338313070974
387,574.6276206270574
388,574.7287745229819
389,574.8319146906103
390,574.9310890660215
391,575.0204388447792
392,575.0948529825714
393,575.1505361998567
394,575.1854321345006
395,575.199457214321
396,575.1945230292424
397,575.1743539705427
398,575.1441296519833
399,575.1099945619981
400,575.0784879121856
401,575.0559540650036
402,575.047989544134
403,575.0589663686245
404,575.0916545055845
405,575.1469602785293
406,575.2238046208181
407,575.3191739347184
408,575.428370120863
409,575.5454571209837
410,575.6638578986662
411,575.7770183267173
412,575.8790413243632
413,575.9652096611771
414,576.0323444522302
415,576.0789688512887
416,576.1052613122781
417,576.1128076034834
418,576.1042018285408
419,576.0825817384824
420,576.0511873942529
421,576.0130073131867
422,575.9705459336426
423,575.9257256886463
424,575.8799204488876
425,575.8340919671235
426,575.7889706418871
427,575.7452078947758
428,575.7034426929866
429,575.6642576601673
430,575.6280353788108
431,575.5947615868856
432,575.5638551075245
433,575.5341135708635
434,575.5038312242102
435,575.4710800090365
436,575.4340815550433
437,575.3915686656865
438,575.3430468803055
439,575.2888998257575
440,575.230318390723
441,575.169074608157
442,575.1072059869945
443,575.0467034577349
444,574.9892840668679
445,574.9362834603493
446,574.8886504856398
447,574.8469924090774
448,574.8116175786485
449,574.7825518324465
450,574.7595425601472
451,574.7420756948704
452,574.7294085678583
453,574.7205980322433
454,574.7145094581543
455,574.7098181929786
456,574.705026455386
457,574.6985023626353
458,574.6885285853709
459,574.673354552324
460,574.6512721486604
461,574.6207490657825
462,574.5806357069977
463,574.5304164167218
464,574.4704301503746
465,574.4019721174593
466,574.3272202793562
467,574.2489888976619
468,574.1703611919573
469,574.0942780142917
470,574.0231636399093
471,573.9586579202336
472,573.901496553178
473,573.8515483341926
474,573.807996804665
475,573.7696454175598
476,573.7353152249954
477,573.7042826620701
478,573.6766797332659
479,573.6537667125693
480,573.6380010172757
481,573.6328611258641
482,573.6424234962573
483,573.670723802722
484,573.7209698750564
485,573.7947185409888
486,573.8911656537363
487,574.006700790688
488,574.134836438778
489,574.2665537324534
490,574.3910391632688
491,574.4967346252155
492,574.5725886736539
493,574.6093722130475
494,574.6008956693389
495,574.5449408643301
496,574.4437305097993
497,574.3038295828939
498,574.1354881407332
499,573.9515438967734
500,573.7660709944328
501,573.5929843535108
502,573.4447917624868
503,573.3316347733954
504,573.2606856596185
505,573.2358904278842
506,573.2579944253224
507,573.32477468533
508,573.4314160901098
509,573.5709756889579
510,573.7348753304839
511,573.9133682779761
512,574.0959553395852
513,574.2717704680991
514,574.4299918927841
515,574.5603451069621
516,574.653743380636
517,574.7030620139911
518,574.7039696615273
519,574.6556619465213
520,574.5612983275507
521,574.4279713309134
522,574.266136606921
523,574.0885565311003
524,573.908911072484
525,573.7402920841472
526,573.5938242457662
527,573.477641482413
528,573.3963789245989
529,573.3512222550905
530,573.340425313745
531,573.3601164795857
532,573.40519598406
533,573.4701635019303
534,573.549767408287
535,573.6394132865416
536,573.7353133752572
537,573.8344037560116
538,573.9340974906547
539,574.0319730624054
540,574.1255104818443
541,574.2119749381542
542,574.2885073395139
543,574.3524185598526
544,574.4016189180111
545,574.4350732801901
546,574.4531701052344
547,574.4579203588846
548,574.4529384541358
549,574.443189789647
550,574.4345176724304
551,574.4329905480591
552,574.4441419189653
553,574.4722063800808
554,574.519472593266
555,574.5858671963264
556,574.66885528003
557,574.763701137366
558,574.8640807426939
559,574.9629767730594
560,575.0537255283291
561,575.1310381845573
562,575.1918055248976
563,575.2355269150452
564,575.2642751581512
565,575.2822016398925
566,575.2946821854886
567,575.3072834374776
568,575.3247679401405
569,575.3503333788569
570,575.385199551584
571,575.4285495758642
572,575.4777523957741
573,575.5287764687663
574,575.5767365995742
575,575.6165504766918
576,575.6436786648969
577,575.6548783378141
578,575.6488524336074
579,575.6266640098629
580,575.5918196307869
581,575.5499868344955
582,575.5083805654109
583,575.4749158521969
584,575.4572586149299
585,575.4619030145
586,575.4933752874155
587,575.5536349704099
588,575.6417263831125
589,575.7537169994553
590,575.8829333520366
591,576.020474885982
592,576.1559652532153
593,576.2784885467155
594,576.3776426401739
595,576.4446187508466
596,576.4731938144321
597,576.4605108032936
598,576.4075286666414
599,576.3190501959483
600,576.2032803025437
601,576.070927140089
602,575.9339347066555
603,575.8040191577008
604,575.6912454649929
605,575.6028953617922
606,575.5428256880153
607,575.5114038926231
608,575.5059656649114
609,575.5216209744766
610,575.5521858057949
611,575.5910494828164
612,575.6318721304111
613,575.6690878245452
614,575.6982252280122
615,575.7160588229896
616,575.7206091699466
617,575.7110333118134
618,575.6874642110686
619,575.6508499342561
620,575.6028145181704
621,575.5455339395821
622,575.481606975439
623,575.4139056071604
624,575.3454115057928
625,575.2790709619624
626,575.2177032219398
627,575.1639632241764
628,575.1203115231475
629,575.0889170441676
630,575.0714320565688
631,575.0686349026314
632,575.0800142044606
633,575.1034262062655
634,575.1349630013975
635,575.1691307327142
636,575.1993741437899
637,575.218900789057
638,575.2216666313255
639,575.2033300021733
640,575.1619982902442
641,575.0986585361347
642,575.017247083975
643,574.9243505923944
644,574.828556286079
645,574.739509246618
646,574.6667929217546
647,574.6187964006236
648,574.6017373631244
649,574.6189788384655
650,574.6707335503086
651,574.7541924883811
652,574.8640384016462
653,574.9932267862686
654,575.1338656104638
655,575.2780200614902
656,575.4183143442862
657,575.5482840003043
658,575.6625164070643
659,575.7566728747593
660,575.8274996561697
661,575.8729055845212
662,575.8921178102082
663,575.8858524121454
664,575.8563982142233
665,575.8075343941241
666,575.7442648954158
667,575.6724112762281
668,575.5981323283233
669,575.5274342719946
670,575.4657153955304
671,575.4173696432467
672,575.3854636333956
673,575.3715004103624
674,575.3752864781507
675,575.3949235946487
676,575.4269487114061
677,575.4666359527757
678,575.5084496295751
679,575.5466006688869
680,575.5756201347226
681,575.5908431596218
682,575.5887205950668
683,575.566943582423
684,575.5244343119352
685,575.4612787959572
686,575.3786552859212
687,575.2787764486579
688,575.1648322706682
689,575.0408957845136
690,574.9117448985863
691,574.7825737953348
692,574.658608517198
693,574.544677035323
694,574.4447973698074
695,574.3618427291747
696,574.2973321824011
697,574.2513828673847
698,574.2228392910185
699,574.2095646409001
700,574.2088475945217
701,574.2178530028726
702,574.2340255208209
703,574.2553532537403
704,574.2804342493118
705,574.3083550850657
706,574.338446833085
707,574.3699978862727
708,574.4019866221289
709,574.4328817862585
710,574.460554521303
711,574.4823352053314
712,574.4952197572727
713,574.4961972848569
714,574.4826485968422
715,574.4527505459481
716,574.4058108050726
717,574.3424623028037
718,574.2646753912582
719,574.1755888350715
720,574.0791981380963
721,573.9799614016359
722,573.8823920767699
723,573.7907089063063
724,573.7085997733902
725,573.6391187619919
726,573.5846836833895
727,573.5471060917247
728,573.5275925500014
729,573.5266948338073
730,573.5442219893849
731,573.5791362473357
732,573.6294539175428
733,573.6921907320825
734,573.763422330631
735,573.8385326480311
736,573.9126711076938
737,573.9813583418456
738,574.041117511853
739,574.0899926423722
740,574.127843400442
741,574.1563580755732
742,574.1787832106726
743,574.1994152042798
744,574.222931289384
745,574.2536575076695
746,574.2948822207107
747,574.3483202767408
748,574.4138074744997
749,574.4892615564464
750,574.5709013260421
751,574.653681671775
752,574.7318792024327
753,574.7997488824225
754,574.8521680705
755,574.885189714715
756,574.8964377739867
757,574.8852976972411
758,574.8528883993232
759,574.8018453925515
760,574.7359817266472
761,574.6599084724409
762,574.5786854785708
763,574.4975422519852
764,574.4216665487635
765,574.3560165138871
766,574.3050916070655
767,574.2726178987773
768,574.261163518817
769,574.2717698142931
770,574.3037214603725
771,574.3545626864533
772,574.4204052543267
773,574.4964890209852
774,574.5778744825753
775,574.660101984674
776,574.7396712548315
777,574.8142702305275
778,574.8827679255501
779,574.9450356580727
780,575.0016658439959
781,575.0536432382195
782,575.1020152276735
783,575.1476080038452
784,575.1908331316148
785,575.2316185527503
786,575.2694779185904
787,575.3036983612025
788,575.3335850802637
789,575.3586754461094
790,575.3788483571599
791,575.3943037003767
792,575.4054453589272
793,575.4127358065235
794,575.4165809446237
795,575.4172646544312
796,575.4149217595501
797,575.4095331106629
798,575.4009306481723
799,575.3888008519705
800,575.3726819019928
801,575.3519687398147
802,575.325954237198
803,575.2939251833594
804,575.2553040614491
805,575.2098051004873
806,575.1575689994451
807,575.0992475435213
808,575.0360192125961
809,574.9695333516734
810,574.9018021648296
811,574.835071646965
812,574.7716935898299
813,574.7139984098645
814,574.6641508267173
815,574.6239710245057
816,574.594723025509
817,574.5768978528394
818,574.5700391714452
819,574.5726669816422
820,574.5823473035986
821,574.5959321140554
822,574.6099567196724
823,574.6211360371733
824,574.6268604856967
825,574.625578744112
826,574.6169815028741
827,574.6019602640002
828,574.582384174635
829,574.5607817804946
830,574.5400115934431
831,574.5229695099232
832,574.5123449654969
833,574.5104153047946
834,574.5188545557783
835,574.5385311224333
836,574.5692931200249
837,574.6097920422236
838,574.6574426506979
839,574.7086112287166
840,574.7590529213754
841,574.8045234558618
842,574.8414279003638
843,574.867364916992
844,574.8814647835962
845,574.8844712117213
846,574.8785601072371
847,574.8669260908571
848,574.8532102872169
849,574.8408841903929
850,574.8327208038531
851,574.8304575758849
852,574.8346926318917
853,574.8449878220601
854,574.8601120704138
855,574.878353582742
856,574.8978435142826
857,574.9168514008804
858,574.9340263140009
859,574.9485637753838
860,574.9602828132631
861,574.9696097062654
862,574.9774834334416
863,574.9852125066234
864,574.9943153192363
865,575.0063631400857
866,575.022824492382
867,575.0449014397271
868,575.0733619022949
869,575.1083918801462
870,575.1494932456748
871,575.1954309483715
872,575.2442085663264
873,575.2930507574004
874,575.338398858507
875,575.3759564166122
876,575.4008318543825
877,575.4078147304155
878,575.3917975952187
879,575.3483222475717
880,575.2741961295962
881,575.1681042698572
882,575.0311386194523
883,574.8671697011947
884,574.6829824763279
885,574.488093587203
886,574.294186151412
887,574.1141620605971
888,573.9609075975388
889,573.8459545754224
890,573.7782555222443
891,573.7632590928393
892,573.80238437154
893,573.8928963009729
894,574.028129443492
895,574.1980059947475
896,574.3898166474706
897,574.5892411887772
898,574.7815588281799
899,574.9529417568261
900,575.0916730199609
901,575.1891229702632
902,575.240369116378
903,575.2444220337654
904,575.2040806961336
905,575.1254623030945
906,575.0172518152692
907,574.8897323493369
908,574.7537023327747
909,574.6194244922535
910,574.4957398168643
911,574.3894196206692
912,574.3047733920706
913,574.2435164696732
914,574.2049119284499
915,574.1861952218346
916,574.1832492958703
917,574.191433320572
