frame_number,force
0,723.7675780063411
1,723.7894887451913
2,723.8112816993529
3,723.8328398463229
4,723.8540476784169
5,723.8747919377053
6,723.8949623271084
7,723.9144521928087
8,723.9331591733156
9,723.950985810061
10,723.9678401141027
11,723.9836360837988
12,723.9982941689755
13,724.0117416777848
14,724.0239131229454
15,724.0347505045855
16,724.044203527759
17,724.0522297539472
18,724.0587946873106
19,724.0638717977623
20,724.0674424838278
21,724.0694959787961
22,724.0700292043459
23,724.0690465771346
24,724.0665597754239
25,724.0625874735471
26,724.057155051209
27,724.0502942828389
28,724.0420430106798
29,724.0324448044005
30,724.0215486092844
31,724.0094083840733
32,723.9960827285039
33,723.9816344997164
34,723.9661304159989
35,723.9496406459484
36,723.932238381434
37,723.9139993939671
38,723.8950015759426
39,723.875324470308
40,723.855048793965
41,723.8342559609949
42,723.8130276113657
43,723.7914451495933
44,723.7695892967764
45,723.7475396591383
46,723.7253743165284
47,723.7031694345969
48,723.6809989041083
49,723.658934010053
50,723.6370431319202
51,723.6153914750312
52,723.5940408318397
53,723.5730493720125
54,723.5524714606476
55,723.532357504333
56,723.5127538242034
57,723.493702553852
58,723.4752415588341
59,723.4574043743451
60,723.4402201583557
61,723.4237136582768
62,723.4079051897679
63,723.3928106268354
64,723.378441403057
65,723.3648045242714
66,723.3519025928196
67,723.3397338423517
68,723.3282921808807
69,723.3175672388891
70,723.3075444193479
71,723.298204947568
72,723.2895259206227
73,723.2814803579419
74,723.2740372559509
75,723.2671616501123
76,723.2608146875873
77,723.2549537133165
78,723.2495323720793
79,723.2445007293625
80,723.2398054145357
81,723.2353897907121
82,723.2311941565454
83,723.2271559858756
84,723.2232102114596
85,723.219289558984
86,723.2153249370112
87,723.2112458871525
88,723.2069810965767
89,723.20245897234
90,723.1976082743082
91,723.1923588008164
92,723.1866421188546
93,723.1803923288778
94,723.1735468534695
95,723.1660472387371
96,723.157839956972
97,723.1488771983362
98,723.1391176380652
99,723.1285271644703
100,723.1170795527472
101,723.1047570704695
102,723.0915510020421
103,723.0774620806872
104,723.062500817661
105,723.0466877196155
106,723.030053386396
107,723.0126384830306
108,722.9944935811951
109,722.9756788672502
110,722.9562637164555
111,722.9363261363173
112,722.9159520856715
113,722.8952346792346
114,722.8742732898958
115,722.8531725636058
116,722.832041364436
117,722.8109916695686
118,722.7901374351691
119,722.7695934542711
120,722.749474227039
121,722.729892862352
122,722.7109600279489
123,722.6927829643691
124,722.6754645754277
125,722.6591026051087
126,722.6437889080487
127,722.6296088184351
128,722.6166406199942
129,722.6049551174782
130,722.5946153077476
131,722.5856761465221
132,722.5781844054978
133,722.5721786138332
134,722.5676890777548
135,722.5647379720147
136,722.5633394969734
137,722.5635000946692
138,722.5652187158147
139,722.5684871277039
140,722.5732902518575
141,722.579606520847
142,722.5874082458432
143,722.5966619890365
144,722.6073289371536
145,722.6193652732271
146,722.6327225434278
147,722.6473480144036
148,722.6631850150019
149,722.6801732557727
150,722.6982491212025
151,722.7173459327399
152,722.737394183978
153,722.7583217521008
154,722.7800540920729
155,722.8025144219669
156,722.8256239084367
157,722.8493018600053
158,722.8734659330188
159,722.8980323521146
160,722.9229161449737
161,722.9480313901483
162,722.9732914763374
163,722.9986093710596
164,723.0238978963188
165,723.0490700090644
166,723.0740390852643
167,723.0987192076582
168,723.1230254577433
169,723.1468742118659
170,723.1701834401795
171,723.1928730067775
172,723.2148649697971
173,723.2360838811757
174,723.2564570864837
175,723.2759150257036
176,723.2943915358019
177,723.3118241552867
178,723.3281544301208
179,723.3433282200705
180,723.3572960048293
181,723.3700131895356
182,723.3814404092179
183,723.391543831172
184,723.4002954534797
185,723.4076733972911
186,723.4136621902983
187,723.4182530385294
188,723.4214440827062
189,723.4232406342571
190,723.423655385328
191,723.4227085866986
192,723.420428186848
193,723.4168499245756
194,723.4120173672699
195,723.4059818874463
196,723.3988025712881
197,723.3905460543801
198,723.3812862818182
199,723.371104192587
200,723.3600873310119
201,723.3483293902104
202,723.3359296932501
203,723.3229926176642
204,723.3096269690993
205,723.2959453104883
206,723.2820632535459
207,723.268098718746
208,723.254171168466
209,723.2404008166894
210,723.2269078182958
211,723.2138114415304
212,723.2012292283034
213,723.1892761479465
214,723.1780637505842
215,723.1676993263175
216,723.1582850761858
217,723.1499173006893
218,723.1426856118228
219,723.1366721752022
220,723.1319509896642
221,723.1285872124754
222,723.1266365390906
223,723.1261446474692
224,723.127146718088
225,723.1296670413587
226,723.1337187234874
227,723.1393034995918
228,723.146411659593
229,723.1550220889841
230,723.1651024237825
231,723.1766093168302
232,723.1894888109008
233,723.203676812833
234,723.2190996622812
235,723.2356747883534
236,723.2533114465816
237,723.2719115268186
238,723.2913704201912
239,723.3115779311987
240,723.3324192201056
241,723.3537757608652
242,723.3755263006011
243,723.3975478079675
244,723.4197163992201
245,723.4419082322248
246,723.4640003597482
247,723.4858715343382
248,723.50740295817
249,723.5284789724391
250,723.5489876821289
251,723.5688215131968
252,723.5878777006805
253,723.6060587082953
254,723.6232725826321
255,723.6394332471157
256,723.6544607416087
257,723.6682814130212
258,723.6808280614032
259,723.6920400456255
260,723.7018633531696
261,723.7102506391907
262,723.7171612399961
263,723.7225611649476
264,723.7264230688668
265,723.7287262051586
266,723.7294563588234
267,723.7286057583516
268,723.7261729655077
269,723.7221627416537
270,723.7165858885743
271,723.7094590610643
272,723.7008045480904
273,723.6906500193448
274,723.6790282345866
275,723.6659767140832
276,723.651537369457
277,723.635756095329
278,723.6186823236308
279,723.6003685442939
280,723.5808697978642
281,723.5602431471798
282,723.5385471368992
283,723.5158412515764
284,723.4921853845997
285,723.467639330633
286,723.4422623128693
287,723.4161125539899
288,723.3892468968448
289,723.3617204779457
290,723.3335864544553
291,723.30489578405
292,723.2756970569651
293,723.2460363802659
294,723.2159573152463
295,723.1855008690807
296,723.1547055409696
297,723.1236074211304
298,723.0922403388469
299,723.0606360543633
300,723.0288244890445
301,722.9968339885557
302,722.9646916139075
303,722.9324234543732
304,722.9000549548199
305,722.8676112489815
306,722.8351174902441
307,722.8025991720298
308,722.7700824302073
309,722.7375943204582
310,722.7051630649449
311,722.6728182648051
312,722.6405910768049
313,722.6085143530826
314,722.5766227424733
315,722.5449527513167
316,722.5135427616215
317,722.4824330048498
318,722.4516654897836
319,722.4212838829327
320,722.3913333402828
321,722.3618602901415
322,722.3329121682461
323,722.3045371080849
324,722.2767835915841
325,722.2497000675903
326,722.2233345472875
327,722.1977341863627
328,722.172944863277
329,722.1490107616708
330,722.1259739630938
331,722.1038740543873
332,722.0827477527154
333,722.0626285509179
334,722.0435463863074
335,722.0255273364844
336,722.0085933457274
337,721.9927619851177
338,721.9780462490667
339,721.9644543903332
340,721.9519897947266
341,721.9406508954933
342,721.9304311264515
343,721.9213189130459
344,721.9132977017067
345,721.9063460292543
346,721.9004376345707
347,721.8955416142585
348,721.8916226229934
349,721.8886411180068
350,721.8865536458062
351,721.8853131683512
352,721.8848694258082
353,721.8851693332148
354,721.8861574081343
355,721.8877762256985
356,721.8899668970946
357,721.8926695677865
358,721.895823931828
359,721.8993697579111
360,721.9032474215923
361,721.9073984371524
362,721.911765982215
363,721.9162954084976
364,721.9209347326098
365,721.9256351014327
366,721.9303512273747
367,721.9350417896271
368,721.9396697982178
369,721.94420291807
370,721.9486137502884
371,721.9528800672368
372,721.9569849967838
373,721.9609171502354
374,721.9646706889265
375,721.968245326395
376,721.9716462658821
377,721.9748840754575
378,721.9779745045189
379,721.9809382457781
380,721.9838006470177
381,721.9865913777688
382,721.9893440577993
383,721.9920958562756
384,721.9948870717
385,721.9977607024622
386,722.0007620160308
387,722.0039381222649
388,722.007337554157
389,722.0110098580434
390,722.0150051947602
391,722.019373952955
392,722.0241663754846
393,722.0294321992429
394,722.035220307885
395,722.0415783960428
396,722.0485526431115
397,722.0561873945952
398,722.0645248493229
399,722.0736047514486
400,722.0834640868678
401,722.0941367843711
402,722.1056534226176
403,722.1180409449101
404,722.1313223844552
405,722.1455166029035
406,722.1606380446705
407,722.176696509536
408,722.1936969467172
409,722.211639274485
410,722.2305182295877
411,722.2503232499361
412,722.2710383926907
413,722.2926422888689
414,722.31510813539
415,722.3384037259308
416,722.3624915225768
417,722.3873287707258
418,722.4128676600055
419,722.4390555339089
420,722.4658351502031
421,722.4931449930848
422,722.5209196369034
423,722.5490901600133
424,722.5775846057488
425,722.6063284860355
426,722.6352453224728
427,722.6642572199538
428,722.6932854684195
429,722.7222511686477
430,722.7510758779804
431,722.7796822715752
432,722.8079948140858
433,722.8359404357423
434,722.8634492059049
435,722.8904549965613
436,722.9168961280549
437,722.9427159894054
438,722.9678636256726
439,722.9922942847546
440,723.0159699157335
441,723.0388596102266
442,723.0609399772279
443,723.0821954413207
444,723.1026184548324
445,723.1222096167753
446,723.1409776945587
447,723.1589395474504
448,723.1761199529434
449,723.1925513385021
450,723.208273422045
451,723.2233327655567
452,723.2377822476816
453,723.2516804628254
454,723.2650910556154
455,723.278082000075
456,723.2907248328019
457,723.3030938495085
458,723.3152652749798
459,723.3273164174879
460,723.3393248193181
461,723.3513674148735
462,723.3635197068724
463,723.3758549698267
464,723.3884434888199
465,723.4013518410337
466,723.4146422275414
467,723.4283718631679
468,723.4425924322247
469,723.4573496174677
470,723.4726827087612
471,723.4886242968297
472,723.5052000561859
473,723.5224286197735
474,723.5403215460246
475,723.5588833769739
476,723.5781117836425
477,723.5979977921425
478,723.6185260816334
479,723.639675344333
480,723.6614186980313
481,723.6837241420096
482,723.7065550473918
483,723.7298706728678
484,723.7536266965371
485,723.7777757543012
486,723.8022679749258
487,723.8270515018794
488,723.8520729925352
489,723.8772780863704
490,723.9026118352011
491,723.9280190899563
492,723.9534448398098
493,723.978834500833
494,724.0041341531391
495,724.0292907278927
496,724.0542521480357
497,724.0789674283702
498,724.1033867414839
499,724.1274614563683
500,724.1511441572459
501,724.1743886512785
502,724.197149974669
503,724.2193844061433
504,724.2410494949596
505,724.262104108399
506,724.2825085019637
507,724.3022244142961
508,724.3212151877761
509,724.3394459145055
510,724.3568836057647
511,724.3734973812517
512,724.3892586730511
513,724.4041414387326
514,724.4181223780098
515,724.431181147585
516,724.4433005691484
517,724.4544668260575
518,724.46466964481
519,724.4739024578485
520,724.4821625444816
521,724.4894511467855
522,724.4957735573513
523,724.5011391759172
524,724.5055615322351
525,724.5090582726438
526,724.5116511077987
527,724.5133657194831
528,724.5142316256774
529,724.5142820046751
530,724.5135534806209
531,724.5120858744417
532,724.5099219255088
533,724.5071069900448
534,724.5036887221826
535,724.4997167430231
536,724.495242302155
537,724.490317934767
538,724.4849971158764
539,724.4793339117151
540,724.4733826271957
541,724.4671974477559
542,724.4608320739158
543,724.4543393476624
544,724.4477708710097
545,724.4411766183327
546,724.4346045450493
547,724.428100195825
548,724.4217063159211
549,724.4154624697702
550,724.4094046712925
551,724.403565030414
552,724.3979714195792
553,724.3926471633425
554,724.3876107540714
555,724.3828755976095
556,724.378449794419
557,724.3743359641735
558,724.3705311243673
559,724.3670266347749
560,724.3638082183535
561,724.360856065456
562,724.3581450231669
563,724.3556448665785
564,724.3533206449736
565,724.3511330936432
566,724.3490391013999
567,724.3469922244009
568,724.3449432380258
569,724.3428407195613
570,724.3406316550612
571,724.3382620641219
572,724.3356776363566
573,724.3328243728495
574,724.3296492251027
575,724.32610072362
576,724.3221295883711
577,724.3176893133447
578,724.3127367168206
579,724.3072324484391
580,724.3011414445697
581,724.2944333251371
582,724.2870827271448
583,724.2790695718255
584,724.2703792635256
585,724.2610028196347
586,724.2509369325138
587,724.2401839662442
588,724.2287518925272
589,724.2166541710681
590,724.2039095806095
591,724.1905420073806
592,724.1765801974811
593,724.1620574784014
594,724.1470114533316
595,724.1314836711759
596,724.1155192752983
597,724.0991666342169
598,724.0824769571757
599,724.0655038970726
600,724.0483031434059
601,724.030932008895
602,724.0134490143674
603,723.995913476261
604,723.9783850996597
605,723.9609235781812
606,723.9435882012291
607,723.9264374693546
608,723.9095287194832
609,723.892917763155
610,723.8766585421921
611,723.8608028067451
612,723.84539981996
613,723.8304960916415
614,723.8161351411007
615,723.8023572876879
616,723.7891994664761
617,723.7766950660069
618,723.76487378502
619,723.7537615059529
620,723.7433801846665
621,723.7337477578102
622,723.7248780705312
623,723.716780827103
624,723.7094615657988
625,723.7029216582177
626,723.6971583330355
627,723.6921647242334
628,723.6879299432583
629,723.6844391732858
630,723.6816737826554
631,723.6796114541955
632,723.6782263273439
633,723.6774891504094
634,723.6773674410384
635,723.6778256539936
636,723.6788253567701
637,723.6803254151937
638,723.6822821924386
639,723.684649765124
640,723.6873801591387
641,723.6904236063572
642,723.6937288225304
643,723.6972433066945
644,723.7009136627883
645,723.7046859437256
646,723.7085060165247
647,723.7123199447831
648,723.7160743828059
649,723.7197169745943
650,723.7231967508103
651,723.726464517568
652,723.7294732320495
653,723.7321783609813
654,723.7345382188028
655,723.7365142830649
656,723.7380714853078
657,723.73917847617
658,723.7398078637292
659,723.7399364242649
660,723.7395452847798
661,723.7386200763782
662,723.7371510570357
663,723.7351332021411
664,723.7325662617787
665,723.729454784479
666,723.7258081074917
667,723.7216403135611
668,723.7169701540225
669,723.7118209380949
670,723.7062203886502
671,723.7002004652617
672,723.6937971554102
673,723.687050234197
674,723.6800029922346
675,723.6727019310028
676,723.6651964247284
677,723.6575383474698
678,723.6497816639157
679,723.6419819831652
680,723.6341960767732
681,723.626481365128
682,723.6188953790587
683,723.6114952060135
684,723.6043369320789
685,723.5974750923383
686,723.5909621423244
687,723.5848479625859
688,723.5791794070617
689,723.5739999043897
690,723.5693491195141
691,723.5652626808485
692,723.561771975387
693,723.5589040102451
694,723.5566813347959
695,723.5551220142913
696,723.5542396444271
697,723.5540433961936
698,723.5545380807821
699,723.5557242254449
700,723.5575981535121
701,723.5601520649404
702,723.5633741169408
703,723.5672485068766
704,723.5717555617063
705,723.5768718396337
706,723.5825702500604
707,723.5888201975681
708,723.595587754926
709,723.6028358693072
710,723.6105246050255
711,723.6186114250381
712,723.627051512018
713,723.6357981279227
714,723.6448030088886
715,723.654016790229
716,723.6633894545339
717,723.6728707946726
718,723.6824108832299
719,723.6919605406421
720,723.7014717955263
721,723.7108983315018
722,723.720195914777
723,723.7293227965042
724,723.738240084273
725,723.7469120786776
726,723.7553065735381
727,723.76339512135
728,723.7711532678356
729,723.7785607604466
730,723.7856017355763
731,723.7922648885981
732,723.7985436296854
733,723.80443622651
734,723.8099459326107
735,723.8150810982426
736,723.819855259465
737,723.8242872011587
738,723.8284009902864
739,723.8322259765575
740,723.8357967580575
741,723.8391531090083
742,723.842339866052
743,723.8454067692023
744,723.8484082543524
745,723.8514031956325
746,723.8544545973793
747,723.8576292367336
748,723.8609972587634
749,723.8646317263635
750,723.8686081271209
751,723.8730038393339
752,723.8778975597692
753,723.8833686962648
754,723.8894967286386
755,723.8963605417589
756,723.9040377355822
757,723.9126039183355
758,723.9221319902526
759,723.9326914259614
760,723.9443475639173
761,723.9571609116033
762,723.9711864758058
763,723.9864731280014
764,724.0030630154598
765,724.0209910288685
766,724.040284337044
767,724.0609619988589
768,724.0830346621285
769,724.106504358443
770,724.1313644008271
771,724.1575993874432
772,724.1851853104895
773,724.2140897665001
774,724.2442722628891
775,724.2756846153691
776,724.308271431064
777,724.3419706719021
778,724.3767142914957
779,724.4124289363327
780,724.4490366996948
781,724.4864559151167
782,724.5246019753802
783,724.5633881625877
784,724.6027264749167
785,724.6425284368581
786,724.6827058823751
787,724.7231717037926
788,724.763840562242
789,724.8046295574484
790,724.8454588554957
791,724.8862522732659
792,724.9269378182663
793,724.9674481833415
794,725.0077211975566
795,725.0477002366968
796,725.0873345980817
797,725.126579843882
798,725.1653981150818
799,725.2037584157123
800,725.2416368648619
801,725.2790169125698
802,725.3158895149376
803,725.3522532633153
804,725.388114461971
805,725.4234871481635
806,725.4583930481315
807,725.4928614623497
808,725.5269290737016
809,725.5606396731824
810,725.594043799587
811,725.6271982921403
812,725.6601657577223
813,725.6930139568211
814,725.7258151144293
815,725.7586451637195
816,725.7915829317952
817,725.8247092784443
818,725.8581062002639
819,725.8918559129436
820,725.9260399236405
821,725.9607381039476
822,725.9960277728604
823,726.0319827987595
824,726.0686727295222
825,726.1061619601328
826,726.1445089473092
827,726.1837654802862
828,726.2239760155629
829,726.2651770813335
830,726.3073967553012
831,726.3506542184712
832,726.3949593874104
833,726.4403126275461
834,726.486704549722
835,726.5341158919716
836,726.582517489029
837,726.6318703331015
838,726.6821257296649
839,726.7332255507223
840,726.7851025851712
841,726.8376809825061
842,726.8908767831338
843,726.9445985266359
844,726.9987479281128
845,727.0532206119412
846,727.1079068919146
847,727.1626925868261
848,727.2174598608095
849,727.2720880779921
850,727.3264546614434
851,727.3804359472005
852,727.4339080251266
853,727.4867475592936
854,727.538832581612
855,727.5900432537574
856,727.6402625936059
857,727.689377162603
858,727.7372777095114
859,727.7838597647084
860,727.8290241788062
861,727.8726776002695
862,727.9147328881944
863,727.9551094576711
864,727.9937335560526
865,728.0305384691699
866,728.065464657019
867,728.0984598186548
868,728.1294788864059
869,728.1584839507362
870,728.1854441194639
871,728.2103353181
872,728.2331400405237
873,728.2538470599815
874,728.2724511094905
875,728.2889525392383
876,728.3033569576413
877,728.315674862621
878,728.3259212697014
879,728.3341153430415
880,728.3402800346736
881,728.3444417366806
882,728.3466299506869
883,728.3468769779028
884,728.3452176306776
885,728.3416889640305
886,728.3363300241837
887,728.3291816112284
888,728.3202860543136
889,728.3096869993597
890,728.297429210489
891,728.2835583866694
892,728.2681209944723
893,728.2511641167102
894,728.2327353155833
895,728.2128825083108
896,728.1916538532084
897,728.1690976446266
898,728.1452622157725
899,728.1201958489559
900,728.0939466931696
901,728.06656268896
902,728.0380915000628
903,728.0085804505833
904,727.9780764662794
905,727.9466260191326
906,727.9142750755329
907,727.8810690496724
908,727.8470527649419
909,727.8122704270781
910,727.7767656131269
911,727.7405812795078
912,727.7037597906268
913,727.6663429673198
914,727.6283721527584
915,727.589888292405
916,727.5509320236528
917,727.5115437697277
