acceleration,velocity,displacement
0.020010813485982618,0.0,0.0
0.0202875776293613,1.007459777883598e-05,2.518649444708995e-09
0.02055838932050779,2.0286089516303253e-05,1.0108821268493803e-08
0.02082330074955994,3.063151203382018e-05,2.2838221656024662e-08
0.021082382853512296,4.110793293458824e-05,4.0773082898126766e-08
0.021335720537686193,5.171245878238786e-05,6.39781808273708e-08
0.02158340773486964,6.244224085052682e-05,9.251685573559946e-08
0.02182554238263831,7.32944783799038e-05,1.2645103554320712e-07
0.02206222139612794,8.426641932459536e-05,1.6584125996933193e-07
0.02229353570112398,9.535535859890834e-05,2.1074670445020784e-07
0.022519565380786994,0.00010655863386938608,2.6122520256728145e-07
0.02274037498387262,0.00011787361896055097,3.173332657747657e-07
0.02295600903574864,0.00012929771496545628,3.791260992562675e-07
0.023166487779502257,0.00014082833916926902,4.4665761278994883e-07
0.023371803160881867,0.00015246291190436505,5.199804255583574e-07
0.023571915072022092,0.00016419884146259104,5.991458639000964e-07
0.0237667478880416,0.00017603350720260695,6.842039510663959e-07
0.023956187354211372,0.0001879642410131702,7.752033881203402e-07
0.024140077892418458,0.00019998830732482765,8.721915252048396e-07
0.024318220390636216,0.0002121028818955913,9.752143225099444e-07
0.02449037052951825,0.00022430502962562994,1.0843163003902497e-06
0.02465623769667315,0.0002365916816821778,1.1995404782172017e-06
0.02481548453824108,0.00024895961224090634,1.3209283016979727e-06
0.02496772718880508,0.0002614054151726679,1.4485195585513663e-06
0.025112536203261905,0.0002739254810206846,1.5823522825997044e-06
0.02524943819719766,0.0002865159746207995,1.7224626465100755e-06
0.025377918191278364,0.00029917281371791846,1.868884843594755e-06
0.02549742264634113,0.00031189164892732335,2.0216509592560654e-06
0.025607363162838157,0.00032466784537961814,2.180790832832801e-06
0.025707120796932093,0.0003374964663695607,2.3463319107700955e-06
0.025796050914854547,0.00035037225929750735,2.5182990921868624e-06
0.02587348847189975,0.0003632896441441959,2.6967145680472884e-06
0.02593875357572118,0.00037624270465610115,2.8815976552473626e-06
0.02599115718817327,0.00038922518234707476,3.0729646269981566e-06
0.026030006838430465,0.0004022304733537257,3.270828540923357e-06
0.026054612253706137,0.00041525162812675986,3.4751990662934783e-06
0.02606429085037333,0.0004282813539027797,3.6860823118008634e-06
0.026058373056145216,0.00044131201987940934,3.903480655246411e-06
0.026036207445258135,0.0004543356650047602,4.127392576467454e-06
0.02599716566422275,0.0004673440082821304,4.357812494789176e-06
0.025940647116236937,0.00048032846147724533,4.59473061222902e-06
0.025866083369904064,0.0004932801440987806,4.8381327636230265e-06
0.02577294226784381,0.0005061899005082176,5.088000274774776e-06
0.025660731730415803,0.0005190483190077825,5.344309829653776e-06
0.025529003271630817,0.0005318457527582941,5.607033347595295e-06
0.02537735526087829,0.0005445723423914214,5.8761378713827244e-06
0.025205435973000054,0.000557218040199891,6.151585467030553e-06
0.025012946473623853,0.0005697726358115469,6.433333136033413e-06
0.024799643387778847,0.0005822257832768976,6.721332740805524e-06
0.024565341591854487,0.000594567029521806,7.0155309440052e-06
0.024309916845923665,0.0006067858441312505,7.315869162418464e-06
0.024033308347138082,0.0006188716504295159,7.622283536058656e-06
0.02373552114245844,0.000630813857801915,7.934704913116513e-06
0.02341662829736043,0.0006426018951618698,8.25305885135746e-06
0.023076772684162528,0.0006542252454072505,8.57726563649974e-06
0.0227161682383784,0.0006656734806378858,8.907240318011023e-06
0.022335100538746818,0.0006769362978321671,9.242892762628537e-06
0.02193392659390341,0.0006880035546153296,9.584127725740412e-06
0.02151307375939067,0.0006988653047036532,9.930844940570157e-06
0.02107303775471742,0.0007095118325821802,1.0282939224891616e-05
0.020614379793512008,0.0007199336869692375,1.064030060477947e-05
0.020137722874349,0.0007301217126362028,1.100281445468083e-05
0.019643747303002005,0.0007400670801805406,1.1370361652885017e-05
0.019133185529768743,0.0007497613133887332,1.1742818751277336e-05
0.01860681639299399,0.0007591963138694239,1.2120058158091875e-05
0.018065458868376575,0.0007683643826847666,1.2501948332230423e-05
0.01750996543731066,0.0007772582387611884,1.2888353987591912e-05
0.016941215207620996,0.0007858710339224213,1.3279136305762814e-05
0.01636010694370136,0.000794196364460252,1.3674153155358482e-05
0.015767552182819937,0.0008022282792418823,1.4073259316284016e-05
0.01516446862037364,0.0008099612844426807,1.4476306707205157e-05
0.014551773933747006,0.0008173903450812109,1.4883144614586129e-05
0.013930380182187502,0.0008245108836101945,1.529361992175898e-05
0.013301188871681224,0.0008313187758736617,1.5707577336629944e-05
0.012665086718107628,0.0008378103447711089,1.6124859616791137e-05
0.012022942091962299,0.0008439823519736264,1.654530779097732e-05
0.01137560209033464,0.0008498319880192006,1.696876137597553e-05
0.01072389015409651,0.0008553568610803084,1.7395058588250406e-05
0.010068604127741403,0.000860554984650768,1.7824036549683176e-05
0.009410514647872972,0.0008654247643446716,1.8255531486932034e-05
0.008750363746380208,0.0008699649839432349,1.868937892400401e-05
0.008088863564841519,0.0008741747907710404,1.912541386768258e-05
0.0074266950952288436,0.0008780536804360579,1.9563470985484356e-05
0.006764506885817453,0.0008816014809313195,2.00033847758262e-05
0.006102913678779215,0.0008848183360724687,2.0444989730077147e-05
0.00544249497656827,0.0008877046882363055,2.088812048615434e-05
0.004783793565451403,0.0008902612603718104,2.133261197330637e-05
0.004127314049338247,0.0008924890372755079,2.1778299547718197e-05
0.0034735214585473566,0.0008943892461524793,2.2225019118575194e-05
0.0028228399982521525,0.0008959633365166792,2.2672607264242485e-05
0.0021756519977503847,0.0008972129595156798,2.3120901338250573e-05
0.0015322971187619549,0.0008981399467948079,2.3569739564828196e-05
0.0008930718781521304,0.0008987462890440364,2.4018961123787907e-05
0.00025822954062675876,0.0008990341143987311,2.44684062246486e-05
-0.00037201955896019385,0.0008990056668941478,2.491791616997182e-05
-0.000997507204098879,0.000898663285203383,2.53673334079962e-05
-0.0016181059503126238,0.0008980093819147801,2.5816501574775743e-05
-0.00223372722406708,0.0008970464236211852,2.6265265526159735e-05
-0.0028443188745796134,0.0008957769120965236,2.671347136008916e-05
-0.0034498622102394644,0.0008942033668253188,2.7160966429819622e-05
-0.004050368571592669,0.0008923283091298608,2.7607599348808415e-05
-0.004645875508779646,0.0008901542481097677,2.8053219988118322e-05
-0.005236442642587644,0.0008876836685719259,2.8497679467288747e-05
-0.005822147296782236,0.0008849190210870834,2.89408301397035e-05
-0.006403079995945876,0.0008818627142639014,2.9382525573541245e-05
-0.006979339926044335,0.0008785171092834038,2.982262052942807e-05
-0.007551030452937378,0.0008748845166886584,3.0260970935921085e-05
-0.008118254787439971,0.0008709671953785641,3.069743386393789e-05
-0.008681111875743117,0.0008667673537127683,3.113186750121072e-05
-0.00923969258194585,0.0008622871525983461,3.15641311277885e-05
-0.009794076214125052,0.0008575287103993283,3.199408509353792e-05
-0.01034432742688251,0.0008524941094890764,3.242159079851002e-05
-0.010890493517787958,0.0008471854042529088,3.284651067694552e-05
-0.011432602130156485,0.0008416046303409227,3.3268708185593976e-05
-0.011970659375786083,0.000835753814964437,3.368804779692032e-05
-0.012504648385602148,0.0008296349880240899,3.410439499766745e-05
-0.013034528278006306,0.0008232501938581878,3.451761629313802e-05
-0.013560233513363957,0.0008166015034103452,3.4927579217455153e-05
-0.014081673589985095,0.0008096910266345079,3.533415234996637e-05
-0.014598733035295443,0.0008025209249781878,3.573720533786954e-05
-0.015111271652472637,0.0007950934238062458,3.6136608925065645e-05
-0.015619124995271403,0.0007874108246443098,3.6532234987178284e-05
-0.016122105060239873,0.000779475517130432,3.692395657262197e-05
-0.016620001202086013,0.0007712899905648505,3.7311647949545786e-05
-0.01711258128653682,0.0007628568449426948,3.769518465842267e-05
-0.017599593088088263,0.0007541788013490385,3.80744435699956e-05
-0.018080765918813694,0.000745258711597313,3.844930294823219e-05
-0.018555812450465205,0.0007360995670049933,3.8819642517882766e-05
-0.019024430678165217,0.0007267045062228358,3.918534353618972e-05
-0.019486305971637388,0.0007170768220603851,3.9546288868260526e-05
-0.01994111315996129,0.0007072199672774855,3.9902363065594995e-05
-0.0203885185924571,0.0006971375593393808,4.025345244724921e-05
-0.020828182117489248,0.0006868333841618942,4.059944518312453e-05
-0.021259758932463665,0.000676311398899406,4.0940231378889855e-05
-0.021682901281535574,0.0006655757338459062,4.127570316207618e-05
-0.02209726000226286,0.0006546306935249566,4.160575476891889e-05
-0.022502485940757832,0.0006434807570392014,4.1930282631559934e-05
-0.02289823126835993,0.000632130577736922,4.224918546525396e-05
-0.023284150746306635,0.0006205849822332553,4.2562364355246505e-05
-0.023659902997911885,0.0006088489687972007,4.286972284300412e-05
-0.024025151856135175,0.0005969277050836889,4.317116701147434e-05
-0.02437956785607298,0.000584826525155637,4.3466605569034174e-05
-0.024722829936632287,0.0005725509257074607,4.375594993174995e-05
-0.025054627400267246,0.0005601065613732358,4.403911430352012e-05
-0.025374662151093363,0.0005474992389853956,4.431601575360978e-05
-0.02568265119430126,0.000534734910649047,4.4586574291018396e-05
-0.025978329344877434,0.0005218196655142523,4.485071293505922e-05
-0.026261452068249164,0.0005087597201609707,4.5108357781478024e-05
-0.026531798359786616,0.0004955614075539618,4.5359438063406754e-05
-0.026789173564956022,0.0004822311645727761,4.560388620643844e-05
-0.027033412048965862,0.0004687755181692956,4.5841637877123955e-05
-0.027264379636814735,0.00045520107024785047,4.607263202422824e-05
-0.02748197575035623,0.00044151448140105774,4.629681091214047e-05
-0.027686135167579024,0.00042772245367157395,4.6514120145908625e-05
-0.02787682933222236,0.0004138317125466236,4.672450868746317e-05
-0.028054067157343092,0.0003998489884242323,4.692792886270589e-05
-0.02821789529064265,0.00038578099781223584,4.7124336359265003e-05
-0.028368397835216785,0.00037163442453077097,4.7313690214850754e-05
-0.028505695545032593,0.0003574159011857086,4.7495952796279874e-05
-0.028629944538856134,0.00034313199116473643,4.767108976936749e-05
-0.028741334592516186,0.00032878917138189334,4.7839070060004145e-05
-0.028840087070652436,0.00031439381596610116,4.7999865806841144e-05
-0.028926452548084156,0.00029995218106141703,4.815345230609802e-05
-0.029000708158247346,0.0002854703908848342,4.829980794908459e-05
-0.029063154700498656,0.0002709544251701477,4.843891415309833e-05
-0.029114113541243932,0.00025641010810971204,4.85707552864183e-05
-0.029153923352591534,0.00024184309888625318,4.869531858816729e-05
-0.029182936741220022,0.0002272588838628003,4.881259408385455e-05
-0.029201516826142925,0.00021266277047095957,4.8922574497437995e-05
-0.029210033826398675,0.00019805988280782418,4.902525516075769e-05
-0.02920886171890273,0.00018345515892149883,4.912063392119002e-05
-0.029198375021737114,0.00016885334973633888,4.920871104835448e-05
-0.029178945745828258,0.00015425901954444754,4.9289489140674676e-05
-0.029150940537677437,0.00013967654797357112,4.936297303255418e-05
-0.029114718016209035,0.0001251101333350995,4.942916970288135e-05
-0.0290706263011062,0.00011056379725577068,4.948808818552907e-05
-0.029019000740628572,9.604139049533699e-05,4.9539739482466846e-05
-0.02896016186205742,8.15465998446655e-05,4.958413648005185e-05
-0.028894413576540393,6.708295598501605e-05,4.962129386900927e-05
-0.028822041670707812,5.2653842173203996e-05,4.9651228068548824e-05
-0.028743312613523905,3.826250360214606e-05,4.9673957154992665e-05
-0.028658472699940863,2.3912057273779873e-05,4.968950079521165e-05
-0.02856774754277498,9.605502213100913e-06,4.969788018508337e-05
-0.028471341911303114,-4.654270150418611e-06,4.969911799309904e-05
-0.028369439901388703,-1.8864465603591565e-05,4.969323830916054e-05
-0.028262205410576786,-3.3022376931582934e-05,4.968026659852675e-05
-0.028149782885769043,-4.712537400566939e-05,4.9660229660792434e-05
-0.02803229831055486,-6.117089430475037e-05,4.963315559371483e-05
-0.02790986040176925,-7.51564339828314e-05,4.9599073761642936e-05
-0.027782561989353798,-8.907953958061216e-05,4.9558014768252074e-05
-0.027650481558433703,-0.00010293780046755904,4.951001043324003e-05
-0.027513684932579625,-0.00011672884209031237,4.9455093772600565e-05
-0.027372227070725307,-0.0001304503200911386,4.9393298982055205e-05
-0.02722615394409393,-0.0001440999153448434,4.9324661423196206e-05
-0.027075504460270853,-0.00015767532994593458,4.924921761187351e-05
-0.02692031240638959,-0.00017117428416259969,4.9167005208346374e-05
-0.026760608387431602,-0.000184594514361055,4.907806300871546e-05
-0.02659642173942404,-0.0001979337718927689,4.8982430937152004e-05
-0.026427782400557813,-0.00021118982292776437,4.888015003844687e-05
-0.02625472272176329,-0.00022436044920834465,4.877126247041284e-05
-0.02607727919080445,-0.00023744344968648658,4.8655811495689135e-05
-0.025895494036841087,-0.000250436642993398,4.8533841472519164e-05
-0.02570941668242245,-0.00026333787067321385,4.840539784410251e-05
-0.025519105017398715,-0.00027614500109816913,4.827052712615967e-05
-0.025324626478198085,-0.00028885593397206833,4.8129276892392105e-05
-0.025126058920105093,-0.00030146860532164415,4.798169575756868e-05
-0.02492349127063668,-0.0003139809928693296,4.782783335802093e-05
-0.02471702395555884,-0.0003263911216758785,4.766774032938463e-05
-0.024506769098481276,-0.00033869706993938854,4.750146828148082e-05
-0.024292850504445494,-0.0003508969748401202,4.732906977028594e-05
-0.024075403441277034,-0.00036298903832655084,4.715059826699427e-05
-0.02385457423012411,-0.00037497153274440115,4.696610812422653e-05
-0.02363051965494439,-0.00038684280621566826,4.677565453948651e-05
-0.02340340620511449,-0.000398601287680683,4.657929351601243e-05
-0.02317340917285664,-0.00041024549152517576,4.6377081821210966e-05
-0.02294071162788611,-0.00042177402172536145,4.616907694289833e-05
-0.022705503281242986,-0.0004331855754526437,4.595533704360383e-05
-0.022467979237195027,-0.0004444789460822532,4.573592091322011e-05
-0.022228338624265567,-0.00045565302554761837,4.551088792031264e-05
-0.021986783093293386,-0.0004667068059770081,4.528029796243148e-05
-0.021743515166525937,-0.00047763938054196293,4.504421141580174e-05
-0.021498736414898148,-0.000488449943437319,4.480268908480692e-05
-0.021252645433183285,-0.0004991377888993394,4.455579215172275e-05
-0.02100543558144099,-0.0005097023091529954,4.430358212720967e-05
-0.020757292473104965,-0.0005201429911666319,4.4046120802129765e-05
-0.020508391214189486,-0.0005304594120884554,4.378347020131599e-05
-0.02025889342573541,-0.0005406512332484367,4.351569253998177e-05
-0.020008944105893392,-0.0005507181926313439,4.3242850183511825e-05
-0.01975866840867256,-0.0005606600957599854,4.2965005611413995e-05
-0.01950816843102773,-0.0005704768049699105,4.268222138623152e-05
-0.019257520100075427,-0.0005801682271026863,4.239456012821337e-05
-0.019006770234019338,-0.00058973429968621,4.2102084496516146e-05
-0.018755933825683063,-0.0005991749757011356,4.180485717766931e-05
-0.01850499158649443,-0.00060849020705418,4.150294088198048e-05
-0.01825388779934285,-0.0006176799269006392,4.1196398348491776e-05
-0.018002528549717872,-0.0006267440309879045,4.088529235901964e-05
-0.01775078041780986,-0.0006356823582297864,4.056968576171522e-05
-0.01749846971128684,-0.0006444946707620606,4.024964150446726e-05
-0.017245382305665673,-0.0006531806337662987,3.9925222678335164e-05
-0.01699126415086933,-0.0006617397953804325,3.959649257104848e-05
-0.016735822505662898,-0.0006701715670445655,3.9263514730442236e-05
-0.016478727965074595,-0.0006784752046622498,3.8926353037515535e-05
-0.016219617331016577,-0.0006866497909862726,3.858507178860341e-05
-0.0159580973356375,-0.0006946942196529361,3.8239735785943605e-05
-0.01569374917181928,-0.0007026071812798003,3.789041043571042e-05
-0.015426133736839844,-0.000710387152006965,3.753716185238873e-05
-0.015154797466391846,-0.000718032384807773,3.7180056968185045e-05
-0.014879278622578642,-0.0007255409038300156,3.68191636460256e-05
-0.0145991138889346,-0.0007329105019578939,3.645455079457862e-05
-0.014313845114248623,-0.0007401387417086897,3.6086288483661973e-05
-0.014023026039894082,-0.0007472229594972253,3.571444805836049e-05
-0.013726228845704444,-0.000754160273218625,3.533910225018153e-05
-0.013423050357288286,-0.0007609475930193732,3.496032528362203e-05
-0.013113117775051438,-0.0007675816350524581,3.457819297660407e-05
-0.012796093813575502,-0.0007740589379496149,3.4192782833353555e-05
-0.012471681172838185,-0.0007803758816962183,3.38041741284421e-05
-0.012139626288673837,-0.0007865287085615963,3.3412447980877645e-05
-0.01179972232691047,-0.0007925135457154924,3.301768741730837e-05
-0.011451811402803954,-0.000798326429147921,3.261997742359252e-05
-0.011095786032259188,-0.0008039633285066868,3.221940498417887e-05
-0.010731589848517763,-0.000809420172476881,3.1816059108932973e-05
-0.010359217635453544,-0.0008146928743478738,3.1410030847226783e-05
-0.009978714733445266,-0.0008197773574400985,3.100141328927979e-05
-0.009590175873929328,-0.0008246695800919421,3.059030155489678e-05
-0.009193743498823974,-0.0008293655599351305,3.017679276989001e-05
-0.00878960561533249,-0.0008338613972136696,2.9760986030602813e-05
-0.008377993222435447,-0.0008381532969231115,2.9342982357068617e-05
-0.007959177333312039,-0.0008422375895620484,2.8922884635447326e-05
-0.007533465622170767,-0.0008461107503009191,2.8500797550481585e-05
-0.007101198746285513,-0.0008497694163930332,2.8076827508808096e-05
-0.006662746421933562,-0.000853210402685088,2.7651082554038567e-05
-0.0062185033517262065,-0.000856430715128503,2.722367227458517e-05
-0.005768885104358168,-0.0008594275622425241,2.6794707705242412e-05
-0.005314324040564376,-0.0008621983645287547,2.6364301223549593e-05
-0.004855265369681053,-0.0008647407618813161,2.5932566441947074e-05
-0.004392163416016458,-0.0008670526190777405,2.5499618096707308e-05
-0.003925478173343919,-0.0008691320294750806,2.5065571934569103e-05
-0.0034556722250202693,-0.0008709773170746716,2.4630544597931665e-05
-0.0029832081002048928,-0.0008725870371559779,2.4194653509374002e-05
-0.002508546117889745,-0.0008739599757105015,2.3758016756157383e-05
-0.002032142738467301,-0.0008750951479245908,2.332075297524861e-05
-0.001554449403766334,-0.0008759917959601491,2.2882981239277425e-05
-0.0010759118119578626,-0.0008766493862640801,2.244482094372137e-05
-0.0005969695507794902,-0.0008770676066047645,2.200639169550416e-05
-0.00011805600502968372,-0.0008772463629937168,2.1567813203104538e-05
0.0003604015332610654,-0.0008771857766116589,2.1129205168203194e-05
0.000837981594243878,-0.0008768861808297827,2.0690687178842834e-05
0.0013142681154305182,-0.0008763481184023641,2.0252378604034796e-05
0.0017888498990497018,-0.0008755723388987441,1.981439848970952e-05
0.0022613199861073975,-0.0008745597964274548,1.937686545587797e-05
0.0027312750258615434,-0.0008733116476744626,1.893989759485249e-05
0.0031983147380877357,-0.0008718292502334752,1.8503612370375503e-05
0.003662041563133303,-0.0008701141611581699,1.806812651752759e-05
0.0041220605770670715,-0.0008681681356231198,1.763355594333227e-05
0.00457797972164925,-0.0008659931255484408,1.7200015628039378e-05
0.0050294103677829315,-0.0008635912780260828,1.6767619527145748e-05
0.005475968203035521,-0.0008609649333833782,1.6336480474293382e-05
0.0059172744137198285,-0.0008581166227291893,1.590671008526524e-05
0.006352957124716053,-0.0008550490648445803,1.5478418663371796e-05
0.00678265306780192,-0.0008517651622964508,1.5051715106586538e-05
0.007206009465388022,-0.0008482679966631533,1.4626706816846638e-05
