acceleration,velocity,displacement
0.020020125056586964,0.0,0.0
0.020295160648120748,1.007882142617693e-05,2.5197053565442323e-09
0.02056416089143125,2.029365181106493e-05,1.0112823665854698e-08
0.020827196087888453,3.0641491055894854e-05,2.2846609382594645e-08
0.021084356027549548,4.1119379084754354e-05,4.0786826917756947e-08
0.021335745014632982,5.172440434529999e-05,6.399777277527052e-08
0.021581476723645087,6.24537097798695e-05,9.254230130656289e-08
0.021821668969951864,7.330449620326874e-05,1.2648185280234746e-07
0.02205643847521008,8.427402306455923e-05,1.6587648261930446e-07
0.02228589569505375,9.535960660712519e-05,2.1078489003722555e-07
0.02251013976438522,0.00010655861547198493,2.6126444555700307e-07
0.02272925360989974,0.00011786846381555617,3.173712153788883e-07
0.022943299272618567,0.00012928660203618574,3.791599818418238e-07
0.023152313468599472,0.00014081050522149024,4.466842586562428e-07
0.023356303401801868,0.00015243765943909058,5.19996299821388e-07
0.023555242844365082,0.00016416554600063232,5.991471011813187e-07
0.023749068519680016,0.0001759916238416436,6.841863936418877e-07
0.02393767684831548,0.00018791331018364247,7.751626271482092e-07
0.024120921128489334,0.00019992795967784367,8.721229446135808e-07
0.024298609217536918,0.00021203284226435024,9.751131450991292e-07
0.02447050177086541,0.00022422512001145083,1.0841776356680795e-06
0.024636311091148378,0.00023650182322695426,1.1993593714776806e-06
0.024795700639645167,0.00024885982615965266,1.3206997838243323e-06
0.024948285252580565,0.0002612958226327091,1.4482386960224228e-06
0.02509363208733365,0.00027380630196768764,1.582014227172522e-06
0.025231262305340414,0.00028638752556585617,1.7220626840559081e-06
0.025360653487160035,0.0002990355045139813,1.8684184415758675e-06
0.02548124276596656,0.00031174597857726294,2.0211138123486787e-06
0.025592430652082,0.0003245143969317751,2.1801789062259382e-06
0.025693585498940533,0.0003373359009695307,2.3456414807012647e-06
0.02578404852871583,0.0003502053094764448,2.5175267833127588e-06
0.025863139299107885,0.00036311710643340076,2.69585738729022e-06
0.025930161464749735,0.0003760654316243652,2.8806530218046618e-06
0.02598440868116963,0.000389044074160845,3.071930398250964e-06
0.026025170518545755,0.00040204646896077384,3.269703034031369e-06
0.02605173828772122,0.0004150656961623406,3.4739810753121475e-06
0.02606341071912115,0.0004280944834140512,3.6847711202062454e-06
0.026059499464392438,0.0004411252109599296,3.9020760437997405e-06
0.026039334402419227,0.00045414991942663253,4.125894826396381e-06
0.026002268726775406,0.0004671603202089312,4.356222386305272e-06
0.025947683781808832,0.00048014780833607727,4.593049418441524e-06
0.025874993611940126,0.0004931034776845145,4.836362239946672e-06
0.02578364919915412,0.0005060181383872881,5.086142643964622e-06
0.025673142384240375,0.0005188823362831367,5.342367762632228e-06
0.025543009490186633,0.0005316863742517434,5.605009940265949e-06
0.025392834683395413,0.0005444203352951389,5.8740366176526695e-06
0.02522225311770833,0.0005570741072454148,6.149410228287808e-06
0.025030953910808423,0.000569637409002544,6.431088107349797e-06
0.02481868300363925,0.0005820998182311559,6.719022414158222e-06
0.024585245945160986,0.0005944508004683559,7.0131600688331e-06
0.024330510620585492,0.0006066797396097925,7.313442703852637e-06
0.024054409903167477,0.0006187759697407308,7.619806631190268e-06
0.02375694416519179,0.0006307288082578206,7.932182825689905e-06
0.02343818354017666,0.0006425275901841627,8.2504969253004e-06
0.02309826979370966,0.0006541617035176342,8.57466924872585e-06
0.022737417644332906,0.0006656206253771448,8.904614830949544e-06
0.022355915383457093,0.0006768939586340924,9.240243476952355e-06
0.02195412467178259,0.0006879714686479023,9.581459833772854e-06
0.0215324794322837,0.0006988431196739189,9.92816348085331e-06
0.021091483807956085,0.0007094991104839788,1.0280249038392784e-05
0.020631709197780446,0.0007199299087354129,1.0637606293197632e-05
0.020153790420497225,0.0007301262836399823,1.100012034129148e-05
0.019658421079958042,0.0007400793365150961,1.1367671746330249e-05
0.019146348219263146,0.0007497805288399014,1.1740136712668998e-05
0.018618366358711586,0.0007592217074843951,1.2117387271750072e-05
0.018075311021387323,0.0007683951268294199,1.2499291480328525e-05
0.01751805186448237,0.0007772934675508873,1.2885713628923601e-05
0.01694748555544942,0.0007859098519058703,1.327651445878779e-05
0.016364528556825148,0.0007942378554339389,1.3671551385622743e-05
0.0157701100042038,0.0008022715150741961,1.4070678728249777e-05
0.015165164868115994,0.0008100053337922761,1.4473747940466396e-05
0.01455062757681714,0.0008174342819035093,1.4880607844390342e-05
0.01392742624324411,0.0008245537953585247,1.529110486370585e-05
0.013296477588698289,0.0008313597713165103,1.570508325537461e-05
0.012658682597525037,0.0008378485613630661,1.6122385338544502e-05
0.012014922884720213,0.0008440169627336275,1.6542851719568675e-05
0.01136605771904522,0.0008498622078845688,1.6966321512223223e-05
0.01071292161527702,0.0008553819527181494,1.7392632552373903e-05
0.010056322387666893,0.0008605742637188854,1.7821621606483162e-05
0.00939703954483852,0.0008654376042020117,1.8253124573463388e-05
0.008735822906312807,0.0008699708198147996,1.868697667946759e-05
0.008073391331991609,0.0008741731233743757,1.9123012665264884e-05
0.007410431475235441,0.0008780440790761825,1.9561066965877523e-05
0.006747596495219894,0.0008815835860687963,2.0000973882163767e-05
0.00608550469313034,0.0008847918613658838,2.0442567744022438e-05
0.005424738068884521,0.0008876694220563875,2.0885683064878007e-05
0.004765840827765287,0.00089021706678055,2.133015468708724e-05
0.0041093178923543505,0.0008924358564605799,2.177581791789752e-05
0.003455633487271023,0.0008943270943054863,2.222250865558904e-05
0.0028052098643232253,0.0008958923051433849,2.2670063505451255e-05
0.0021584262319821208,0.0008971332141674612,2.3118319885278965e-05
0.001515617950041881,0.0008980517252129671,2.3567116120124072e-05
0.0008770760474720484,0.0008986498987123456,2.40162915261054e-05
0.00024304712161644194,0.0008989299295046177,2.4465686483159638e-05
-0.0003862663187254005,0.0008988941247053405,2.4915142496712127e-05
-0.0010107050038337057,0.0008985448818747007,2.5364502248357138e-05
-0.0016301514993205038,0.0008978846677489121,2.581360963576304e-05
-0.002244528227000534,0.0008969159978173319,2.62623098021546e-05
-0.002853794918116681,0.0008956414170310526,2.6710449155866695e-05
-0.003457945531837765,0.0008940634819185639,2.71578753806041e-05
-0.004057004693108953,0.0008921847443623273,2.760443743717432e-05
-0.004651023720538144,0.0008900077372589155,2.8049985557579634e-05
-0.00524007632678479,0.0008875349622470848,2.8494371232456134e-05
-0.005824254082862156,0.000884768879644673,2.8937447192929074e-05
-0.006403661744495868,0.0008817119006878335,2.93790673880122e-05
-0.006978412541899583,0.0008783663821162347,2.9819086958713217e-05
-0.007548623532176068,0.0008747346230977158,3.0257362210016705e-05
-0.00811441110665054,0.0008708188644380092,3.0693750581900634e-05
-0.008675886735184869,0.0008666212899775504,3.112811062050452e-05
-0.009233153016856186,0.0008621440300395401,3.1560301950508795e-05
-0.009786300090407901,0.000857389166762724,3.199018524970936e-05
-0.01033540243850574,0.0008523587411304956,3.2417622226682666e-05
-0.010880516103647712,0.0008470547614949572,3.284247560233903e-05
-0.011421676328291367,0.0008414792133869725,3.326460909605951e-05
-0.011958895633124645,0.0008356340703966185,3.368388741700541e-05
-0.01249216234140261,0.0008295213059029867,3.410017626108031e-05
-0.013021439538350174,0.0008231429054330485,3.451334231391432e-05
-0.013546664432264323,0.0008165008794403949,3.4923253260132684e-05
-0.014067748070326729,0.0008095972763147471,3.532977779907147e-05
-0.014584575360415328,0.0008024341954570617,3.573278566701442e-05
-0.015097005357106527,0.0007950138002776812,3.6132147665948106e-05
-0.015604871783116366,0.0007873383309926254,3.652773569876568e-05
-0.01610798377474757,0.0007794101171031594,3.6919422810789625e-05
-0.016606126857264834,0.0007712315894451564,3.7307083237426704e-05
-0.01709906416510694,0.0007628052916895634,3.769059245771039e-05
-0.017586537914620427,0.0007541338911696316,3.806982725342518e-05
-0.018068271114847316,0.0007452201889122647,3.844466577344566e-05
-0.0185439694768266,0.0007360671287643463,3.881498760286481e-05
-0.019013323467372438,0.0007266778055282965,3.918067383643797e-05
-0.019476010450837227,0.0007170554720487441,3.954160715583223e-05
-0.019931696862457243,0.0007072035452204206,3.989767191014952e-05
-0.020380040353332098,0.0006971256109164733,4.024875419918375e-05
-0.020820691846304543,0.0006868254278665641,4.0594741958879506e-05
-0.02125329745400908,0.0006763069305414857,4.093552504848152e-05
-0.02167750023473225,0.0006655742311193003,4.1270995338896715e-05
-0.022092941787647955,0.0006546316206137052,4.1601046801829966e-05
-0.022499263708127805,0.0006434835692397613,4.1925575599293336e-05
-0.02289610893795925,0.0006321347260782395,4.224448017312284e-05
-0.023283123059384948,0.0006205899180789035,4.255766133416212e-05
-0.02365995559556102,0.000608854148415167,4.286502235078564e-05
-0.024026261388769767,0.0005969325941690844,4.31664690364317e-05
-0.024381702129489393,0.0005848306032895196,4.346190983579635e-05
-0.024725948103844816,0.0005725536907311861,4.375125590930153e-05
-0.025058680210938624,0.0005601075336524902,4.403442121539745e-05
-0.025379592271604006,0.0005474979655318545,4.4311322590193534e-05
-0.025688393611017473,0.0005347309690611992,4.45818798238418e-05
-0.02598481186103869,0.0005218126676931852,4.4846015733030395e-05
-0.026268595901561005,0.0005087493157525353,4.510365622889182e-05
-0.02653951884372432,0.0004955472870662139,4.535473037959651e-05
-0.026797380952466872,0.0004822130621171661,4.559917046689235e-05
-0.027042012413245844,0.0004687532137757379,4.583691203586558e-05
-0.027273275860344746,0.00045517439170734026,4.6067893937236346e-05
-0.02749106859016785,0.00044148330559471213,4.629205836156186e-05
-0.027695324381374165,0.0004276867073518266,4.650935086479849e-05
-0.027886014846800936,0.00041379137254478283,4.6719720384772645e-05
-0.02806315025826713,0.0003998040812685158,4.692311924822597e-05
-0.028226779810679264,0.0003857315987512792,4.711950316823092e-05
-0.028376991318875673,0.00037158065596889047,4.730883123191096e-05
-0.028513910367474308,0.000357357930547303,4.749106587854001e-05
-0.02863769895948276,0.00034307002821556374,4.766617286823073e-05
-0.02874855372640076,0.00032872346504409286,4.783412124154564e-05
-0.028846703763752746,0.0003143246506715545,4.799488327047455e-05
-0.0289324081444964,0.0002998798726944922,4.814843440131606e-05
-0.02900595314947263,0.00028539528237099993,4.8294753190082435e-05
-0.0290676492480323,0.0002708768817716237,4.843382123111809e-05
-0.029117827865402544,0.000256330512493265,4.856562307968431e-05
-0.02915683798236629,0.00024176184603132278,4.869014616931546e-05
-0.029185042622298988,0.00022717637588015645,4.880738072479333e-05
-0.029202815286818746,0.000212579411402877,4.891731967161409e-05
-0.029210536403780827,0.0001979760734802271,4.901995854283487e-05
-0.0292085898505334,0.00018337129191664856,4.9115295384184086e-05
-0.029197359610064182,0.00016876980455149916,4.9203330658301124e-05
-0.02917722660487618,0.00015417615799776408,4.928406714893844e-05
-0.029148565732107935,0.00013959470991351805,4.935750986591626e-05
-0.029111743102949606,0.00012502963270475366,4.942366595157083e-05
-0.029067113483446944,0.00011048491855815453,4.948254458938656e-05
-0.029015017944846636,9.596438570108113e-05,4.9534156915451367e-05
-0.02895578174758434,8.147168577797338e-05,4.957851593332113e-05
-0.02888971249200745,6.701031221807543e-05,4.961563643282014e-05
-0.028817098569558348,5.258360945268398e-05,4.964553491323783e-05
-0.028738207944081075,3.819478282427412e-05,4.9668229511307074e-05
-0.028653287285681263,2.3846909016833535e-05,4.968373993426735e-05
-0.028562561468959493,9.542946828173346e-06,4.9692087398228606e-05
-0.028466233433989796,-4.714251897563978e-06,4.969329457196126e-05
-0.028364484393998458,-1.892193135456104e-05,4.9687385526148224e-05
-0.028257474361885707,-3.307742104353208e-05,4.96743856880487e-05
-0.02814534296160709,-4.7178125374405276e-05,4.965432180144421e-05
-0.02802821048992392,-6.122151373728802e-05,4.962722189166629e-05
-0.027906179196587232,-7.520511115891581e-05,4.959311523544224e-05
-0.027779334755827147,-8.912648964701941e-05,4.9552032335240757e-05
-0.027647747907021587,-0.00010298326031273159,4.950400489775082e-05
-0.027511476242521447,-0.00011677306635011735,4.9449065816085106e-05
-0.02737056611381436,-0.0001304935769392013,4.9387249155262773e-05
-0.027225054620804042,-0.0001441424821228559,4.931859014049726e-05
-0.02707497164982266,-0.00015771748869051257,4.924312514779392e-05
-0.026920341931050955,-0.00017121631708573099,4.916089169634986e-05
-0.026761187090207163,-0.0001846366993410455,4.907192844224316e-05
-0.026597527673391633,-0.0001979763780319452,4.8976275172899915e-05
-0.026429385127327606,-0.000211233106232125,4.88739728018339e-05
-0.02625678371567833,-0.00022440464844287648,4.876506336316515e-05
-0.026079752344286222,-0.00023748878245786762,4.8649590005439966e-05
-0.02589832626078033,-0.0002504833021091343,4.8527596984298216e-05
-0.025712548593958235,-0.00026338602082281895,4.839912965356523e-05
-0.025522471706233778,-0.00027619477589786696,4.8264234454385055e-05
-0.025328158341832083,-0.0002889074334098834,4.812295890205812e-05
-0.025129682557758392,-0.00030152189363478104,4.797535157029695e-05
-0.024927130425036036,-0.00031403609688047967,4.7821462072668134e-05
-0.02472060049135839,-0.00032644802960957826,4.766134104104562e-05
-0.02451020400605997,-0.00033875573073393283,4.749504010095974e-05
-0.024296064918273866,-0.00035095729796501626,4.7322611843785006e-05
-0.02407831966260279,-0.0003630508941102354,4.7144109795766196e-05
-0.023857116744180902,-0.00037503475321193136,4.695958838393565e-05
-0.023632616133262833,-0.0003869071864312923,4.6769102899024844e-05
-0.02340498848405718,-0.0003986665875856223,4.657270945552062e-05
-0.023174414200448794,-0.00041031143825674877,4.6370464949060025e-05
-0.02294108237188456,-0.0004218403123998321,4.616242701139588e-05
-0.022705189591907485,-0.00043325188039078014,4.5948653963198225e-05
-0.02246693865794978,-0.0004445449124532445,4.5729204764987215e-05
-0.022226537142976288,-0.000455718281403476,4.550413896652303e-05
-0.021984195826162196,-0.00046677096464576066,4.5273516655010724e-05
-0.02174012696574736,-0.00047770204534373803,4.503739840251335e-05
-0.02149454239001392,-0.0004885107126826783,4.479584521300674e-05
-0.02124765137452701,-0.0004991962611238136,4.454891846955512e-05
-0.02099965827249411,-0.0005097580885355689,4.4296679882140276e-05
-0.02075075987756171,-0.0005201956930730829,4.4039191436738115e-05
-0.020501142523622444,-0.0005305086686733789,4.37765153463015e-05
-0.02025097895516582,-0.0005406966990430759,4.350871400437238e-05
-0.020000425027120506,-0.0005507595500386475,4.323584994210195e-05
-0.019749616314765846,-0.0005606970603741191,4.295798578949876e-05
-0.019498664729601257,-0.0005705091306352108,4.2675184241746426e-05
-0.01924765523722401,-0.0005801957106269172,4.2387508031430894e-05
-0.018996642754208162,-0.0005897567851247752,4.2095019907492974e-05
-0.018745649275215527,-0.0005991923581321311,4.1797782621678746e-05
-0.018494661269926677,-0.0006085024357684166,4.149585892320361e-05
-0.01824362740059577,-0.0006176870079360472,4.118931156227749e-05
-0.017992456632953985,-0.0006267460289444347,4.087820330305737e-05
-0.01774101682706494,-0.0006356793973094395,4.05625969464939e-05
-0.0174891338917627,-0.0006444869349891463,4.024255536341925e-05
-0.01723659157284382,-0.000653168366355298,3.991814153808314e-05
-0.016983131936516335,-0.000661723297232638,3.9589418622186154e-05
-0.016728456612892864,-0.0006701511943699904,3.92564499992855e-05
-0.016472228867916848,-0.0006784513657401929,3.8919299359257955e-05
-0.016214076556519328,-0.0006866229420963019,3.857803078229883e-05
-0.015953595967250603,-0.0006946648602272444,3.823270883171795e-05
-0.01569035651099056,-0.0007025758483468047,3.7883398654574436e-05
-0.015423906155656515,-0.0007103544140134665,3.753016608898437e-05
-0.015153777478728083,-0.0007179988349220627,3.7173077776750485e-05
-0.014879494195164678,-0.0007255071528405358,3.6812201279809835e-05
-0.01460057800723891,-0.0007328771708911367,3.644760519887692e-05
-0.014316555611066161,-0.000740106454295713,3.607935929258021e-05
-0.01402696568714322,-0.0007471923346202653,3.570753459535122e-05
-0.013731365702603556,-0.0007541319174677021,3.533220353232923e-05
-0.013429338361099741,-0.0007609220934836279,3.495344002959139e-05
-0.013120497554386913,-0.0007675595524624996,3.457131961810486e-05
-0.012804493699399648,-0.0007740408002759462,3.418591952992025e-05
-0.01248101837893548,-0.00078036217829553,3.379731878527738e-05
-0.012149808231203377,-0.0007865198849480647,3.340559826946648e-05
-0.011810648051259505,-0.0007925099990186803,3.301084079847479e-05
-0.01146337308537585,-0.0007983285043028391,3.2613131172644416e-05
-0.011107870525320281,-0.0008039713152055132,3.221255621776733e-05
-0.010744080238005382,-0.0008094343028963446,3.180920481324187e-05
-0.010371994784211622,-0.0008147133216518988,3.14031679071048e-05
-0.009991658785080036,-0.0008198042350442218,3.099453851793077e-05
-0.009603167695214486,-0.0008247029416642954,3.0583411723753644e-05
-0.009206666041258258,-0.0008294054000984137,3.0169884638312967e-05
-0.008802345178848814,-0.0008339076529034405,2.9754056375062503e-05
-0.008390440605998379,-0.0008382058493496522,2.933602799949923e-05
-0.007971228858202799,-0.0008422962667157024,2.891590247048289e-05
-0.007545024015021714,-0.0008461753299340086,2.849378457132046e-05
-0.007112173871226627,-0.0008498396294055707,2.8069780831485565e-05
-0.006673055854765903,-0.0008532859368370688,2.7643999439924903e-05
-0.0062280727933778,-0.0008565112189991048,2.721655015096586e-05
-0.005777648635447888,-0.0008595126493563112,2.6787544183877003e-05
-0.005322224223000876,-0.0008622876175709234,2.6357094117145194e-05
-0.004862253204978276,-0.0008648337369279182,2.5925313778520484e-05
-0.004398198173380914,-0.000867148849772508,2.5492318131845377e-05
-0.003930527103970298,-0.0008692310310918458,2.505822316162929e-05
-0.00345971018232545,-0.0008710785904134197,2.462314575625297e-05
-0.0029862170887108453,-0.0008726900722311788,2.418720359059182e-05
-0.0025105147954826673,-0.0008740642552022272,2.375051500873347e-05
-0.0020330658973446753,-0.000875200150375434,2.3313198907339054e-05
-0.0015543274541254192,-0.0008760969987133015,2.287537462006687e-05
-0.0010747502895942526,-0.0008767542681492314,2.2437161803351237e-05
-0.0005947786658263823,-0.0008771716503880866,2.199868032371691e-05
-0.0001148502447373243,-0.0008773490576157275,2.1560050146715956e-05
0.0003646037385284189,-0.0008772866192422798,2.1121391227501455e-05
0.0008431581349706043,-0.000876984678773905,2.068282340299741e-05
0.0013203933911745992,-0.0008764437908923686,2.024446628558084e-05
0.001795894926390677,-0.0008756647188129773,1.9806439158154503e-05
0.0022692524242110797,-0.0008746484319753268,1.9368860870457427e-05
0.0027400591215950287,-0.0008733961040888753,1.8931849736441376e-05
0.003207911197464401,-0.0008719091115091105,1.849552343254188e-05
0.003672407360668942,-0.0008701890318695771,1.8059998896697207e-05
0.004133148718493835,-0.0008682376428497864,1.7625392228017367e-05
0.004589738978047574,-0.0008660569209256511,1.7191818587073507e-05
0.005041785000329538,-0.0008636490399310568,1.675939209685933e-05
0.005488897697348182,-0.0008610163692566373,1.6328225744562407e-05
0.005930693241632417,-0.0008581614715218922,1.5898431284367773e-05
0.0063667945497585315,-0.0008550870995740445,1.547011914159379e-05
0.006796833009463436,-0.0008517961926842389,1.5043398318529218e-05
0.007220450436738607,-0.0008482918718226884,1.4618376302402487e-05
