frame_number,force
0,724.7848430477846
1,724.8057671558887
2,724.8262765159541
3,724.8463695789831
4,724.8660459621092
5,724.8853061542735
6,724.9041512119652
7,724.9225824500119
8,724.9406011322066
9,724.958208165807
10,724.9754038032438
11,724.9921873540369
12,725.0085569095262
13,725.0245090821625
14,725.0400387602809
15,725.0551388793481
16,725.0698002118182
17,725.084011179163
18,725.0977576902899
19,725.1110230102533
20,725.1237876625743
21,725.1360293682513
22,725.1477230244823
23,725.1588407255825
24,725.1693518275212
25,725.1792230564478
26,725.1884186609057
27,725.1969006068795
28,725.2046288140249
29,725.2115614301247
30,725.2176551389484
31,725.2228654945492
32,725.2271472734026
33,725.2304548354634
34,725.2327424863204
35,725.2339648346582
36,725.2340771414434
37,725.2330356589287
38,725.2307979582511
39,725.227323244133
40,725.2225726546236
41,725.2165095436653
42,725.2090997448785
43,725.2003118161452
44,725.1901172659044
45,725.1784907630725
46,725.1654103330543
47,725.1508575425772
48,725.1348176761604
49,725.1172799065557
50,725.0982374601128
51,725.077687775834
52,725.0556326543236
53,725.032078390333
54,725.0070358806122
55,724.980520697873
56,724.9525531221166
57,724.9231581222465
58,724.8923652833672
59,724.8602086779662
60,724.8267266818103
61,724.7919617374947
62,724.7559600699924
63,724.7187713593466
64,724.6804483761117
65,724.6410465856668
66,724.6006237283676
67,724.5592393837201
68,724.5169545282048
69,724.4738310975782
70,724.4299315648468
71,724.3853185443211
72,724.340054430207
73,724.2942010752577
74,724.2478195116421
75,724.2009697131568
76,724.1537103956296
77,724.1060988506822
78,724.0581908067736
79,724.0100403107463
80,723.9616996230965
81,723.9132191208178
82,723.864647202781
83,723.8160301940482
84,723.7674122471788
85,723.7188352404331
86,723.6703386746555
87,723.6219595721117
88,723.573732381244
89,723.5256888912949
90,723.4778581605314
91,723.4302664616013
92,723.3829372473806
93,723.335891140666
94,723.2891459513044
95,723.2427167243349
96,723.1966158218663
97,723.150853039848
98,723.1054357592121
99,723.060369129401
100,723.0156562810582
101,722.971298563693
102,722.9272958034375
103,722.883646575494
104,722.8403484854742
105,722.7973984536385
106,722.7547929961703
107,722.7125284980132
108,722.6706014723918
109,722.6290088028694
110,722.5877479647213
111,722.5468172235269
112,722.5062158098211
113,722.4659440689559
114,722.4260035852485
115,722.3863972798495
116,722.3471294828613
117,722.3082059815413
118,722.2696340472182
119,722.2314224436632
120,722.1935814192605
121,722.1561226845826
122,722.1190593759785
123,722.082406004797
124,722.0461783913489
125,722.0103935831453
126,721.9750697582398
127,721.9402261159643
128,721.9058827581935
129,721.8720605644264
130,721.8387810639789
131,721.8060663087911
132,721.7739387504112
133,721.7424211240294
134,721.7115363410313
135,721.6813073900486
136,721.6517572453843
137,721.6229087808765
138,721.5947846864532
139,721.5674073838429
140,721.540798937405
141,721.514980955943
142,721.4899744816836
143,721.4657998635365
144,721.4424766134777
145,721.4200232471633
146,721.3984571119911
147,721.3777942073627
148,721.3580490028481
149,721.3392342602561
150,721.3213608651907
151,721.3044376729341
152,721.2884713731494
153,721.2734663779771
154,721.2594247379154
155,721.2463460889315
156,721.2342276327837
157,721.2230641509583
158,721.2128480510726
159,721.2035694431091
160,721.1952162418614
161,721.1877742918904
162,721.1812275119527
163,721.1755580566252
164,721.1707464931859
165,721.166771991617
166,721.1636125250628
167,721.1612450775272
168,721.1596458552273
169,721.1587904978795
170,721.1586542862335
171,721.1592123424738
172,721.1604398208508
173,721.1623120871297
174,721.1648048866323
175,721.1678945009902
176,721.1715578930887
177,721.175772838758
178,721.1805180432532
179,721.1857732405238
180,721.1915192735166
181,721.1977381541725
182,721.2044131023949
183,721.2115285640496
184,721.2190702088895
185,721.2270249099896
186,721.2353807066271
187,721.2441267525828
188,721.253253251688
189,721.2627513821691
190,721.2726132110547
191,721.282831599906
192,721.2934001035283
193,721.3043128636916
194,721.3155644998434
195,721.3271499985042
196,721.3390646027949
197,721.3513037033132
198,721.3638627313821
199,721.3767370557867
200,721.389921884561
201,721.4034121738214
202,721.4172025456404
203,721.431287216497
204,721.4456599372967
205,721.4603139456996
206,721.4752419314659
207,721.4904360153149
208,721.5058877412272
209,721.5215880815409
210,721.5375274539904
211,721.5536957499729
212,721.5700823734331
213,721.5866762894808
214,721.6034660814029
215,721.6204400146905
216,721.6375861073258
217,721.65489220637
218,721.6723460713666
219,721.6899354652631
220,721.707648253794
221,721.7254725146798
222,721.7433966584564
223,721.7614095628198
224,721.7795007216573
225,721.7976604084752
226,721.8158798522643
227,721.8341514223787
228,721.8524688177547
229,721.8708272549204
230,721.8892236492385
231,721.9076567849356
232,721.9261274709703
233,721.9446386804669
234,721.9631956708059
235,721.9818060801967
236,722.000479995766
237,722.0192299883714
238,722.03807111014
239,722.0570208512328
240,722.0760990521613
241,722.095327767773
242,722.114731079935
243,722.1343348584093
244,722.1541664727514
245,722.1742544610047
246,722.1946281627005
247,722.2153173245059
248,722.2363516874992
249,722.2577605657337
250,722.2795724261836
251,722.3018144801405
252,722.3245122956548
253,722.347689439559
254,722.3713671558913
255,722.3955640855474
256,722.4202960304101
257,722.4455757641755
258,722.4714128910454
259,722.497813751945
260,722.5247813762732
261,722.5523154761235
262,722.5804124796219
263,722.6090656000046
264,722.6382649370504
265,722.667997607818
266,722.6982479044841
267,722.728997477807
268,722.7602255444742
269,722.7919091152313
270,722.8240232389926
271,722.856541256992
272,722.8894350608076
273,722.922675348527
274,722.9562318738812
275,722.990073683482
276,723.0241693373499
277,723.0584871079607
278,723.0929951534592
279,723.1276616618247
280,723.1624549647007
281,723.1973436219522
282,723.2322964800996
283,723.2672827091659
284,723.3022718229288
285,723.3372336868167
286,723.3721385159073
287,723.4069568639167
288,723.4416596040774
289,723.4762179045117
290,723.5106032027779
291,723.5447871854001
292,723.5787417780556
293,723.6124391510244
294,723.6458517428434
295,723.6789523032331
296,723.7117139546704
297,723.7441102707714
298,723.776115369214
299,723.8077040173957
300,723.838851750007
301,723.8695349983387
302,723.8997312307825
303,723.9294191027329
304,723.9585786126922
305,723.9871912606835
306,724.0152402052926
307,724.0427104160821
308,724.069588817982
309,724.0958644235997
310,724.1215284486385
311,724.1465744049551
312,724.1709981654797
313,724.1947979958629
314,724.217974549336
315,724.2405308230148
316,724.2624720748099
317,724.2838057001907
318,724.3045410679015
319,724.3246893139486
320,724.3442630940857
321,724.3632762967302
322,724.3817437204744
323,724.3996807224682
324,724.417102845184
325,724.4340254291287
326,724.4504632182594
327,724.4664299639171
328,724.4819380326843
329,724.4969980240323
330,724.5116184049416
331,724.5258051704787
332,724.5395615408288
333,724.5528877055275
334,724.5657806239961
335,724.5782338883182
336,724.5902376508172
337,724.6017786165384
338,724.6128400993682
339,724.623402139644
340,724.6334416802173
341,724.6429327969564
342,724.6518469786993
343,724.6601534507415
344,724.6678195350005
345,724.6748110389979
346,724.6810926649467
347,724.6866284299392
348,724.6913820888418
349,724.69531755293
350,724.698399298905
351,724.7005927640262
352,724.7018647233224
353,724.7021836444463
354,724.7015200153139
355,724.6998466398306
356,724.6971388979622
357,724.6933749678769
358,724.688536009403
359,724.6826063092141
360,724.6755733889308
361,724.6674280780488
362,724.6581645545754
363,724.6477803572163
364,724.6362763733874
365,724.6236568071787
366,724.6099291310915
367,724.5951040252098
368,724.5791953071717
369,724.5622198553436
370,724.5441975260721
371,724.5251510646337
372,724.5051060093134
373,724.4840905889611
374,724.4621356158152
375,724.4392743766995
376,724.4155425265888
377,724.3909779887601
378,724.3656208651252
379,724.3395133591893
380,724.3126997130216
381,724.2852261587678
382,724.2571408841422
383,724.2284940096854
384,724.1993375734942
385,724.1697255170329
386,724.139713664035
387,724.1093596837926
388,724.0787230302607
389,724.0478648491332
390,724.0168478464906
391,723.9857361150976
392,723.9545949177409
393,723.923490430258
394,723.8924894493954
395,723.8616590723282
396,723.8310663559254
397,723.8007779647795
398,723.7708598174419
399,723.7413767400752
400,723.7123921360096
401,723.6839676786706
402,723.6561630339013
403,723.6290356154803
404,723.6026403747986
405,723.5770296229199
406,723.5522528811986
407,723.5283567554465
408,723.5053848282772
409,723.4833775645023
410,723.4623722249935
411,723.4424027851244
412,723.4234998549691
413,723.4056906001654
414,723.3889986647163
415,723.3734440994308
416,723.3590433013261
417,723.3458089696518
418,723.3337500833547
419,723.3228719030627
420,723.3131759982573
421,723.3046602977115
422,723.2973191593522
423,723.2911434550567
424,723.2861206663351
425,723.2822349878044
426,723.2794674363936
427,723.2777959651498
428,723.2771955812525
429,723.2776384682769
430,723.279094112801
431,723.2815294352289
432,723.2849089243851
433,723.2891947750046
434,723.2943470267813
435,723.3003237035587
436,723.3070809518264
437,723.3145731786317
438,723.3227531898198
439,723.3315723300063
440,723.3409806258787
441,723.3509269344466
442,723.3613590978015
443,723.3722241057794
444,723.3834682676405
445,723.3950373934695
446,723.4068769853984
447,723.4189324379633
448,723.4311492462025
449,723.4434732197248
450,723.4558507009497
451,723.4682287858778
452,723.4805555460028
453,723.4927802503872
454,723.5048535875198
455,723.5167278869915
456,723.5283573408494
457,723.5396982237105
458,723.5507091097667
459,723.5613510839823
460,723.5715879440637
461,723.581386389115
462,723.5907161905149
463,723.5995503407898
464,723.607865177134
465,723.6156404772353
466,723.6228595257538
467,723.6295091500809
468,723.6355797241175
469,723.6410651389969
470,723.6459627400427
471,723.6502732297811
472,723.6540005374826
473,723.6571516565061
474,723.6597364515468
475,723.6617674385751
476,723.6632595408371
477,723.664229825181
478,723.6646972245071
479,723.6646822538888
480,723.664206728968
481,723.6632934948818
482,723.6619661722634
483,723.6602489243614
484,723.6581662467365
485,723.6557427787537
486,723.6530031344001
487,723.6499717489795
488,723.6466727381298
489,723.6431297662056
490,723.6393659218917
491,723.6354035996893
492,723.6312643866751
493,723.626968954687
494,723.6225369585727
495,723.6179869412637
496,723.6133362464539
497,723.6086009399538
498,723.6037957414534
499,723.5989339691293
500,723.5940274999588
501,723.5890867488273
502,723.5841206697144
503,723.579136782257
504,723.5741412265554
505,723.5691388480916
506,723.564133313288
507,723.5591272548663
508,723.5541224449269
509,723.5491199924836
510,723.5441205611444
511,723.5391246019004
512,723.534132595615
513,723.5291452997054
514,723.5241639937694
515,723.5191907194843
516,723.5142285106467
517,723.5092816094709
518,723.5043556653676
519,723.4994579126104
520,723.4945973233663
521,723.4897847323036
522,723.4850329286684
523,723.4803567117245
524,723.4757729057486
525,723.4713003310693
526,723.4669597280918
527,723.4627736321129
528,723.4587661980162
529,723.4549629756165
530,723.451390638673
531,723.4480766730924
532,723.4450490318162
533,723.4423357647293
534,723.4399646316875
535,723.4379627059898
536,723.4363559748057
537,723.4351689423567
538,723.4344242409296
539,723.4341422542277
540,723.4343407572621
541,723.4350345767384
542,723.4362352754507
543,723.4379508638059
544,723.4401855416305
545,723.4429394739046
546,723.4462086046955
547,723.4499845139095
548,723.4542543211354
549,723.459000639731
550,723.4642015826981
551,723.4698308202253
552,723.4758576874369
553,723.4822473399928
554,723.4889609546647
555,723.4959559717545
556,723.503186376181
557,723.5106030142709
558,723.518153943651
559,723.5257848137842
560,723.5334392743434
561,723.5410594080773
562,723.5485861846216
563,723.555959932075
564,723.5631208238825
565,723.57000937916
566,723.5765669745158
567,723.5827363645352
568,723.5884622066656
569,723.5936915847211
570,723.5983745239163
571,723.6024644893727
572,723.6059188594529
573,723.608699365143
574,723.6107724870452
575,723.6121098022412
576,723.6126882740783
577,723.6124904785386
578,723.611504761463
579,723.6097253221808
580,723.6071522213521
581,723.6037913134257
582,723.5996541059994
583,723.5947575491039
584,723.5891237574269
585,723.5827796685712
586,723.5757566411223
587,723.568089997499
588,723.5598185177709
589,723.5509838914512
590,723.5416301346884
591,723.5318029805596
592,723.5215492505005
593,723.5109162151508
594,723.4999509530445
595,723.4886997159183
596,723.4772073101695
597,723.4655165047363
598,723.4536674758359
599,723.4416972983722
600,723.429639492621
601,723.4175236332685
602,723.4053750261601
603,723.3932144562835
604,723.3810580086681
605,723.3689169622219
606,723.3567977551324
607,723.3447020191633
608,723.3326266789146
609,723.3205641111522
610,723.3085023587927
611,723.2964253937027
612,723.2843134217457
613,723.2721432229071
614,723.2598885196295
615,723.2475203678481
616,723.2350075669286
617,723.2223170860092
618,723.2094145049605
619,723.1962644684423
620,723.1828311511771
621,723.1690787313963
622,723.1549718679654
623,723.140476175977
624,723.1255586959857
625,723.1101883527374
626,723.0943363993032
627,723.0779768419571
628,723.0610868408234
629,723.043647081879
630,723.0256421171472
631,723.0070606709979
632,722.9878959105321
633,722.9681456769829
634,722.9478126739001
635,722.9269046075995
636,722.9054342761108
637,722.883419604258
638,722.8608836243168
639,722.8378544036974
640,722.8143649228703
641,722.7904529079284
642,722.7661606227123
643,722.7415346251602
644,722.7166254913534
645,722.6914875090739
646,722.6661783416417
647,722.6407586629783
648,722.615291765999
649,722.5898431478839
650,722.5644800770051
651,722.5392711470266
652,722.5142858238842
653,722.4895939911262
654,722.4652654986504
655,722.441369719257
656,722.4179751165979
657,722.3951488271936
658,722.3729562586933
659,722.3514607066014
660,722.3307229916998
661,722.3108011198891
662,722.2917499653521
663,722.2736209773516
664,722.2564619110727
665,722.240316583839
666,722.2252246593087
667,722.2112214631153
668,722.198337833459
669,722.1866000094809
670,722.1760295590498
671,722.1666433463174
672,722.1584535385292
673,722.151467651028
674,722.1456886287574
675,722.1411149620252
676,722.1377408344072
677,722.1355563013341
678,722.1345474982644
679,722.1346968767506
680,722.1359834652886
681,722.1383831501741
682,722.1418689702689
683,722.1464114189312
684,722.1519787464742
685,722.1585372574765
686,722.166051598871
687,722.1744850362716
688,722.1837997168706
689,722.1939569178115
690,722.2049172799119
691,722.2166410280676
692,722.2290881810146
693,722.2422187537543
694,722.2559929556501
695,722.2703713860648
696,722.2853152277366
697,722.300786436451
698,722.3167479245021
699,722.3331637352943
700,722.3499992071623
701,722.3672211256587
702,722.3847978644286
703,722.4026995148847
704,722.420898004388
705,722.4393672020803
706,722.4580830111988
707,722.4770234465492
708,722.4961686957848
709,722.5155011633259
710,722.5350054960583
711,722.5546685901434
712,722.5744795782515
713,722.594429796291
714,722.6145127282186
715,722.6347239270186
716,722.655060909938
717,722.67552302679
718,722.6961113012034
719,722.7168282455468
720,722.7376776508384
721,722.758664353754
722,722.7797939843476
723,722.8010727000503
724,722.8225069130093
725,722.8441030179711
726,722.8658671266908
727,722.8878048129625
728,722.9099208706823
729,722.9322190863895
730,722.954702027574
731,722.9773708484684
732,723.0002251156423
733,723.0232626559188
734,723.0464794286628
735,723.069869423605
736,723.0934245845083
737,723.1171347582065
738,723.140987667545
739,723.1649689053961
740,723.1890619455642
741,723.2132481657051
742,723.2375068776611
743,723.261815361342
744,723.2861488986312
745,723.3104808035301
746,723.334782444562
747,723.359023256267
748,723.3831707385909
749,723.4071904453536
750,723.4310459649822
751,723.454698898136
752,723.4781088379234
753,723.5012333590631
754,723.5240280222548
755,723.5464463991691
756,723.5684401223801
757,723.5899589639458
758,723.6109509462844
759,723.6313624889212
760,723.6511385940505
761,723.6702230727607
762,723.6885588125434
763,723.7060880855341
764,723.7227528958912
765,723.7384953638712
766,723.7532581433495
767,723.7669848687231
768,723.7796206265028
769,723.7911124465336
770,723.8014098073177
771,723.8104651490354
772,723.8182343866877
773,723.8246774148441
774,723.8297585949629
775,723.833447216063
776,723.8357179198222
777,723.8365510823883
778,723.8359331474096
779,723.8338569073672
780,723.8303217322778
781,723.8253337457099
782,723.8189059479607
783,723.8110582856689
784,723.8018176666301
785,723.7912179186204
786,723.779299692003
787,723.7661103076289
788,723.7517035532812
789,723.7361394329854
790,723.7194838738594
791,723.7018083950528
792,723.6831897429607
793,723.6637094966209
794,723.6434536472292
795,723.6225121557051
796,723.6009784916123
797,723.5789491556025
798,723.556523186729
799,723.5338016561568
800,723.5108871497486
801,723.4878832430109
802,723.4648939724141
803,723.442023307239
804,723.4193746261438
805,723.3970502025538
806,723.3751507023425
807,723.3537746960419
808,723.3330181865977
809,723.3129741531671
810,723.293732111551
811,723.2753776919681
812,723.2579922347517
813,723.2416524043168
814,723.2264298216463
815,723.2123907156592
816,723.1995955941047
817,723.1880989349261
818,723.1779488994247
819,723.1691870691188
820,723.161848208636
821,723.1559600567746
822,723.1515431469585
823,723.1486106574852
824,723.1471682922044
825,723.1472141936488
826,723.1487388921416
827,723.1517252949707
828,723.1561487191534
829,723.1619769701986
830,723.1691704683302
831,723.1776824233644
832,723.1874590597463
833,723.1984398937204
834,723.2105580649151
835,723.2237407245533
836,723.2379094817019
837,723.2529809070196
838,723.268867090526
839,723.2854762467719
840,723.3027133585306
841,723.3204808494495
842,723.3386792768729
843,723.3572080373891
844,723.375966078422
845,723.3948526087429
846,723.4137677994639
847,723.43261346606
848,723.4512937222923
849,723.4697155985743
850,723.4877896192993
851,723.5054303349197
852,723.5225568050229
853,723.539093028948
854,723.5549683211552
855,723.5701176295474
856,723.5844817957501
857,723.598007756589
858,723.6106486858342
859,723.6223640754092
860,723.6331197560999
861,723.642887859069
862,723.6516467207194
863,723.6593807345722
864,723.6660801549692
865,723.671740858552
866,723.6763640704694
867,723.6799560630255
868,723.6825278349565
869,723.6840947796937
870,723.6846763507384
871,723.684295731413
872,723.6829795146182
873,723.6807573959939
874,723.6776618815464
875,723.6737280088428
876,723.6689930794971
877,723.66349639998
878,723.6572790278145
879,723.650383520787
880,723.642853687229
881,723.6347343351978
882,723.6260710177543
883,723.6169097712287
884,723.607296843635
885,723.5972784109013
886,723.5869002790823
887,723.5762075715194
888,723.5652444015252
889,723.5540535335791
890,723.5426760385038
891,723.5311509499826
892,723.5195149310146
893,723.5078019598129
894,723.4960430451563
895,723.4842659809727
896,723.4724951488582
897,723.4607513754609
898,723.4490518493848
899,723.4374100996419
900,723.4258360350159
901,723.4143360414164
902,723.4029131326859
903,723.3915671493147
904,723.3802949988836
905,723.3690909317565
906,723.3579468457012
907,723.346852613502
908,723.3357964277653
909,723.3247651568084
910,723.313744704903
911,723.3027203693485
912,723.2916771860083
913,723.2806002544213
914,723.2694750338918
915,723.2582876032562
916,723.2470248792263
917,723.235674791051
