acceleration,velocity,displacement
0.01997435989245007,0.0,0.0
0.02025814541671316,1.0058126327290806e-05,2.5145315818227016e-09
0.02053630587488958,2.025673915019149e-05,1.0093247951193276e-08
0.020808820258514653,3.059302068354255e-05,2.2805687909626785e-08
0.02107568337490746,4.1064146591898077e-05,4.071997972848694e-08
0.021336901855374183,5.1667292899468485e-05,6.390283960132858e-08
0.021592490028657953,6.239964087047652e-05,9.241957304381483e-08
0.021842465727251743,7.325837980945394e-05,1.2633407821379746e-07
0.02208684609148934,8.424070776413921e-05,1.6570885010719576e-07
0.02232564342615625,9.53438301435506e-05,2.106049845841182e-07
0.022558861154864086,0.00010656495628880569,2.6108218119220726e-07
0.022786489912906813,0.00011790129405574841,3.171987437783458e-07
0.0230085038138741,0.00012935004248744363,3.790115779141438e-07
0.023224856913754633,0.00014090838266935082,4.4657618420334243e-07
0.02343547988503562,0.0001525734668690484,5.199466465879422e-07
0.02364027691420369,0.00016434240606885822,5.991756148224189e-07
0.023839122851662505,0.00017621225601032476,6.843142803422146e-07
0.02403186066235439,0.00018818000188882897,7.754123448170031e-07
0.024218299234290225,0.00020024254186299013,8.725179807549578e-07
0.02439821159793444,0.0002123966695710463,9.75677783613467e-07
0.02457133360139904,0.00022463905587087965,1.0849367149739485e-06
0.024737363083276495,0.00023696623004204853,1.2003380364521806e-06
0.024895959584045706,0.0002493745607088791,1.3219232341399125e-06
0.025046744629784425,0.0002618602367623366,1.4497319335077164e-06
0.025189302607447936,0.0002744192485716447,1.5838018048412117e-06
0.025323182236776036,0.0002870473697827007,1.724168459429798e-06
0.025447898634700598,0.00029974014000056984,1.8708653368756156e-06
0.025562935960698883,0.0003124928486494197,2.023923584038113e-06
0.025667750620685804,0.00032530052029476587,2.1833719262741593e-06
0.02576177498936061,0.00033815790169727745,2.34923653177217e-06
0.02584442158557327,0.00035105945084101093,2.5215408699067422e-06
0.025915087606265184,0.0003639993281389705,2.7003055646517377e-06
0.025973159702407978,0.00037697138996613884,2.8855482441780152e-06
0.026018018875863542,0.0003899691846107067,3.0772833878222265e-06
0.026049045391140245,0.0004029859506774577,3.2755221716442675e-06
0.02606562362352153,0.00041601461793112313,3.4802723137964128e-06
0.026067146794934073,0.00042904781053573705,3.691537920913128e-06
0.026053021571733538,0.00044207785262740393,3.909319336703913e-06
0.026022672507789356,0.0004550967761472847,4.133612993897585e-06
0.02597554631265443,0.0004680963308523956,4.3644112706475055e-06
0.02591111591684054,0.0004810679964097693,4.601702352463047e-06
0.025828884304165044,0.0004940029964650207,4.845470100681745e-06
0.025728388089348,0.000506892314563399,5.09569392843885e-06
0.0256092008352133,0.0005197267117945393,5.352348685028334e-06
0.02547093612183052,0.0005324967460338003,5.615404549485419e-06
0.02531325039359836,0.0005451927926626575,5.884826934159534e-06
0.025135845617654643,0.0005578050666654708,6.1605763989915665e-06
0.024938471790721627,0.0005703236460175648,6.4426085771623254e-06
0.024720929332480525,0.0005827384962983653,6.730874112741308e-06
0.02448307139719804,0.000595039496480785,7.025318610936096e-06
0.024224806116507566,0.0006072164658592114,7.325882601521095e-06
0.02394609875659692,0.0006192591920774875,7.63250151600527e-06
0.023646973738360604,0.0006311574602012269,7.945105679074948e-06
0.02332751643505422,0.0006429010827445806,8.2636203148114e-06
0.022987874635051846,0.0006544799305121071,8.587965568125573e-06
0.022628259544972086,0.000665883964057113,8.918056541767879e-06
0.022248946214562908,0.0006771032654969968,9.253803349156406e-06
0.02185027328733172,0.0006881280703724704,9.595111183123772e-06
0.02143264201452659,0.000698948799197935,9.941880400516374e-06
0.020996514508018833,0.0007095560883285713,1.0294006622398e-05
0.02054241124338133,0.0007199408197664214,1.0651380849421748e-05
0.020070907852988023,0.0007300941495405137,1.1013889591748482e-05
0.019582631268125837,0.0007400075343207921,1.1381415012713809e-05
0.019078255279854017,0.0007496727559577871,1.1753835085283453e-05
0.018558495594626145,0.0007590819436764071,1.2131023760192001e-05
0.018024104467761072,0.0007682275936920039,1.2512851144534103e-05
0.017475865009191273,0.000777102586061242,1.2899183689472415e-05
0.01691458527252933,0.0007857001986316722,1.3289884385645643e-05
0.016341092258005986,0.000794014118014306,1.3684812964807138e-05
0.015756225976134006,0.000802038447572841,1.4083826106203925e-05
0.015160833723938557,0.0008097677124978592,1.44867776462216e-05
0.014555764714904947,0.0008171968621075701,1.4893518789872958e-05
0.013941865177315604,0.0008243212695806252,1.5303898322795005e-05
0.013319973995938407,0.0008311367293739387,1.5717762822533647e-05
0.012690918926283634,0.0008376394526044943,1.6134956868028255e-05
0.012055513369567759,0.0008438260606784572,1.6555323246348992e-05
0.011414553665669127,0.0008496935774372664,1.6978703155877924e-05
0.010768816838520483,0.0008552394200633138,1.740493640525307e-05
0.010119058711484248,0.000860461388950815,1.78338616075066e-05
0.009466012300815419,0.0008653576567038899,1.8265316368920277e-05
0.008810386395255271,0.0008699267563779076,1.8699137472190727e-05
0.00815286423833503,0.0008741675690363052,1.913516105354428e-05
0.007494102245083718,0.0008780793106571599,1.9573222773467646e-05
0.006834728704266909,0.0008816615183944975,2.001315798073056e-05
0.006175342439848658,0.0008849140361805264,2.0454801869374318e-05
0.005516511430356735,0.0008878369996480778,2.0897989628331468e-05
0.0048587714103495985,0.0008904308203582543,2.1342556583333052e-05
0.004202624498391553,0.0008926961693354396,2.1788338330756476e-05
0.003548537905278659,0.0008946339599363571,2.2235170863074425e-05
0.002896942776123855,0.0008962453301067078,2.268289068558519e-05
0.0022482332168799056,0.0008975316241049587,2.3131334924138105e-05
0.001602765553228304,0.0008984943737974858,2.3580341423613717e-05
0.0009608578673877193,0.0008991352796526398,2.402974883697625e-05
0.00032278985831851845,0.0008994561915840664,2.4479396704785426e-05
-0.0003111969259683377,0.000899459089817154,2.492912552513573e-05
-0.0009408984354747288,0.0008991460659767932,2.537877681408422e-05
-0.001566147007747542,0.0008985193046159877,2.5828193156732414e-05
-0.0021868097841569157,0.0008975810654180116,2.6277218249240914e-05
-0.002802786660005545,0.0008963336663069709,2.672569693217216e-05
-0.0034140077954228332,0.0008947794676931138,2.717347521567218e-05
-0.0040204307307194756,0.0008929208580615782,2.7620400297110854e-05
-0.004622037163035001,0.0008907602410881396,2.8066320571898283e-05
-0.0052188294504824295,0.0008883000244347602,2.851108563827901e-05
-0.005810826917037521,0.0008855426103428802,2.895454629697342e-05
-0.006398062036858385,0.0008824903881044062,2.939655454658524e-05
-0.00698057657924833,0.0008791457284503796,2.983696357572394e-05
-0.007558417793849725,0.0008755109798571051,3.027562775280081e-05
-0.008131634710261525,0.0008715884667310773,3.071240261444786e-05
-0.008700274618261504,0.0008673804893989465,3.1147144853480365e-05
-0.009264379784868984,0.0008628893257981639,3.1579712307279645e-05
-0.009823984451937549,0.0008581172347389622,3.2009963947413926e-05
-0.010379112142737951,0.0008530664605902934,3.243775987124624e-05
-0.010929773293230706,0.0008477392392313012,3.286296129620164e-05
-0.011475963219561767,0.0008421378051031031,3.328543055728524e-05
-0.01201766043427362,0.0008362643991896442,3.370503110835843e-05
-0.012554825318961339,0.0008301212777513355,3.412162752759368e-05
-0.013087399146154446,0.0008237107216350565,3.4535085527440274e-05
-0.01361530342555389,0.0008170350459921294,3.494527196934707e-05
-0.01413843953897565,0.000810096610250997,3.535205488340785e-05
-0.014656688626816728,0.0008028978282095489,3.575530349302299e-05
-0.01516991169424051,0.0007954411781292846,3.6154888244607695e-05
-0.01567794991532695,0.0007877292127268927,3.655068084232174e-05
-0.01618062512689069,0.0007797645689663383,3.694255428774504e-05
-0.01667774051716172,0.0007715499775553252,3.733038292437546e-05
-0.017169081521421648,0.0007630882720456794,3.771404248677571e-05
-0.01765441693090959,0.0007543823974325965,3.809341015414528e-05
-0.018133500203744993,0.0007454354181489329,3.8468364608040664e-05
-0.018606070946846087,0.0007362505253612851,3.883878609391822e-05
-0.019071856526298583,0.000726831043492999,3.920455648613179e-05
-0.01953057376156776,0.0007171804359210323,3.95655593559853e-05
-0.019981930658914616,0.0007073023098159118,3.992168004241954e-05
-0.02042562813645502,0.0006972004201170694,4.027280572490278e-05
-0.020861361692571318,0.0006868786726598129,4.0618825498097e-05
-0.02128882297872368,0.0006763411264919891,4.095963044788495e-05
-0.021707701256712186,0.0006655919954331301,4.129511372836623e-05
-0.022117684740677976,0.0006546356489337826,4.162517063945796e-05
-0.022518461839098964,0.0006434766122888384,4.194969870476362e-05
-0.022909722323019948,0.0006321195662483087,4.22685977493979e-05
-0.02329115845779238,0.0006205693460531056,4.258176997747326e-05
-0.023662466146247216,0.0006088309399020957,4.288912004896206e-05
-0.02402334613806577,0.0005969094868310174,4.3190555155645336e-05
-0.02437350536145946,0.000584810273956136,4.3485985095842126e-05
-0.024712658428895036,0.0005725387330085475,4.37753223475833e-05
-0.02504052935603241,0.0005601004360623156,4.405848213985102e-05
-0.025356853509532977,0.0005475010903459243,4.433538252145308e-05
-0.0256613797687512,0.0005347465320263532,4.460594442704615e-05
-0.025953872857675607,0.0005218427188697465,4.4870091739770175e-05
-0.026234115782640347,0.0005087957217096675,4.512775134991503e-05
-0.02650191229849388,0.000495611714689384,4.537885320901479e-05
-0.02675708932178522,0.00048229696428431424,4.562333037875821e-05
-0.026999499215301054,0.00046885781715004266,4.58611190741168e-05
-0.027229021878287636,0.00045530068687664547,4.609215870012347e-05
-0.027445566581439,0.0004416320397617138,4.631639188178306e-05
-0.027649073484599596,0.0004278583797452041,4.653376448665979e-05
-0.02783951477765208,0.0004139862326796412,4.6744225639766005e-05
-0.02801689539781853,0.00040002213013577356,4.694772773046986e-05
-0.02818125329655551,0.00038597259296218006,4.714422641124435e-05
-0.028332659250521385,0.0003718441148254108,4.733368058819125e-05
-0.02847121623223531,0.00035764314595472166,4.751605240338628e-05
-0.028597058376142674,0.00034337607730262714,4.769130720920062e-05
-0.028710349589189995,0.00032904922531129397,4.7859413534854096e-05
-0.028811281856088635,0.0003146688174499743,4.8020343045544415e-05
-0.028900073280480415,0.00030024097866583203,4.8174070494573364e-05
-0.02897696589289852,0.0002857717188724873,4.8320573668957944e-05
-0.029042223251794393,0.0002712669215863141,4.845983332907264e-05
-0.02909612786660119,0.0002567323338067152,4.85918331429209e-05
-0.0291389784789942,0.00024217355722031634,4.8716559615677656e-05
-0.02917108724597453,0.00022759604078907415,4.883400201518e-05
-0.029192776873354736,0.00021300507475924184,4.894415229406708e-05
-0.02920437775018045,0.00019840578610335805,4.904700500928273e-05
-0.02920622513402355,0.00018380313538230705,4.9142557239654144e-05
-0.029198656433007373,0.00016920191499054932,4.923080850224736e-05
-0.029182008620358933,0.00015460674872720773,4.93117606681768e-05
-0.02915661580061531,0.00014002209262196417,4.938541787851409e-05
-0.029122806930534047,0.00012545223693917682,4.9451786460904374e-05
-0.02908090369311017,0.00011090130928326576,4.9510874847459983e-05
-0.029031218531766313,9.637327872704665e-05,4.9562693494462564e-05
-0.02897405286426711,8.187196087803829e-05,4.9607254804363835e-05
-0.028909695502958563,6.740102378623187e-05,4.96445730505299e-05
-0.02883842130839716,5.296399458339294e-05,4.967466430512231e-05
-0.02876049010023568,3.856426673123473e-05,4.9697546370450966e-05
-0.028676145843516812,2.42051077452966e-05,4.97132387140701e-05
-0.028585616120156344,9.889667254378312e-06,4.9721762407820016e-05
-0.028489111884829558,-4.379014746868165e-06,4.972314007094689e-05
-0.028386827493099925,-1.8597999591350534e-05,4.971739581736234e-05
-0.02827894098035168,-3.2764441709713436e-05,4.9704555207037074e-05
-0.028165614565215477,-4.6875580596105224e-05,4.968464520146062e-05
-0.028046995350742954,-6.092873307509483e-05,4.965769412304282e-05
-0.027923216198561408,-7.492128596242092e-05,4.962373161828344e-05
-0.027794396754953966,-8.885068920079976e-05,4.9582788624492634e-05
-0.0276606446117241,-0.00010271444954246928,4.953489733980682e-05
-0.0275220565847372,-0.00011651012484158461,4.948009119621081e-05
-0.027378720087656936,-0.00013023531900968315,4.9418404835247994e-05
-0.027230714573370583,-0.00014388767767494002,4.934987408607684e-05
-0.027078113016211214,-0.00015746488457233547,4.927453594551502e-05
-0.026920983412033465,-0.00017096465867939665,4.919242855970209e-05
-0.026759390276526893,-0.00018438475210153676,4.9103591207006854e-05
-0.0265933961252117,-0.00019772294870197142,4.9008064281805975e-05
-0.026423062921262903,-0.00021097706346359007,4.8905889278764586e-05
-0.026248453476041652,-0.00022414494256291621,4.879710877725796e-05
-0.026069632781117267,-0.00023722446412720595,4.868176642558543e-05
-0.025886669244718313,-0.00025021353963366485,4.855990692464521e-05
-0.02569963580558178,-0.00026311011589623986,4.843157601076274e-05
-0.025508610903354084,-0.00027591217757347384,4.829682043739531e-05
-0.025313679292066155,-0.0002886177501223289,4.815568795547136e-05
-0.025114932686694267,-0.000301224903117019,4.8008227292161524e-05
-0.024912470233172942,-0.0003137317538469858,4.785448812792052e-05
-0.02470639879511867,-0.0003261364711040587,4.7694521071682765e-05
-0.024496833058226683,-0.00033843727906739503,4.7528377634139904e-05
-0.024283895461154184,-0.00035063246119724026,4.735611019907375e-05
-0.024067715964438793,-0.0003627203640536385,4.717777199276103e-05
-0.02384843166711061,-0.00037469940096152585,4.6993417051507236e-05
-0.023626186279334906,-0.00038656805544813724,4.680310018740482e-05
-0.023401129463022755,-0.00039832488438372666,4.660687695244685e-05
-0.02317341605859309,-0.00040996852076413063,4.6404803601159884e-05
-0.022943205216603244,-0.0004214976760829297,4.619693705194812e-05
-0.022710659444487618,-0.00043291114224820244,4.5983334847365334e-05
-0.022475943567809336,-0.0004442077930012767,4.576405511355296e-05
-0.022239223599104855,-0.00045538658479300526,4.553915651910439e-05
-0.022000665504738743,-0.0004664465570689662,4.53086982336389e-05
-0.021760433857024808,-0.0004773868319094071,4.5072739886394304e-05
-0.021518690353188076,-0.0004882066129619603,4.4831341525176464e-05
-0.02127559217661143,-0.0004989051835944102,4.458456357603737e-05
-0.021031290174768458,-0.0005094819041822552,4.4332466804093205e-05
-0.020785926837971817,-0.0005199362084354403,4.4075112275938784e-05
-0.02053963408286126,-0.0005302675986656486,4.3812561324163515e-05
-0.020292530867208856,-0.0005404756399031662,4.354487551452131e-05
-0.020044720682487773,-0.0005505599527905903,4.3272116616347873e-05
-0.019796288987559356,-0.000560520205208102,4.29943465768482e-05
-0.01954730065878443,-0.000570356102619688,4.271162749989125e-05
-0.019297797531894024,-0.0005800673771673575,4.242402162994449e-05
-0.01904779609594444,-0.0005896537755743171,4.2131591341759075e-05
-0.018797285379340983,-0.0005991150459431385,4.183439913637971e-05
-0.018546225058752704,-0.0006084509235526619,4.153250764400576e-05
-0.018294543830378245,-0.0006176611157749447,4.1225979634173856e-05
-0.018042138100156316,-0.0006267452862575784,4.091487803366573e-05
-0.017788871060322974,-0.0006357030385476982,4.0599265952464406e-05
-0.017534572217233934,-0.0006445338993670874,4.027920671798571e-05
-0.017279037424760387,-0.000653237301777586,3.995476391769954e-05
-0.017022029470665234,-0.0006618125685014423,3.962600145012979e-05
-0.01676327926582605,-0.0006702588956855652,3.929298358408303e-05
-0.016502487688947992,-0.0006785753374242587,3.895577502580558e-05
-0.01623932812706237,-0.0006867607913782613,3.861444099360495e-05
-0.015973449718690864,-0.0006948139858396997,3.826904729930046e-05
-0.015704481261234478,-0.000702733468584681,3.791966043569436e-05
-0.015432035704351699,-0.0007105175978260775,3.756634766909167e-05
-0.015155715127427012,-0.0007181645355340222,3.7209177135751646e-05
-0.01487511608802283,-0.0007256722433378846,3.684821794103367e-05
-0.014589835219499348,-0.0007330384811647651,3.648354025990801e-05
-0.014299474946787915,-0.000740260808706337,3.6115215437440235e-05
-0.014003649183421176,-0.0007473365897388893,3.574331608782893e-05
-0.013701988873256327,-0.0007542629992530587,3.5367916190580944e-05
-0.01339414724679602,-0.0007610370332830717,3.498909118244691e-05
-0.013079804676275486,-0.0007676555212638396,3.460691804381018e-05
-0.012758673037078044,-0.000774115140692178,3.4221475378321177e-05
-0.012430499509997963,-0.000780412433828947,3.38328434846909e-05
-0.012095069780254179,-0.0007865438261515101,3.3441104419695784e-05
-0.011752210603183372,-0.0007925056462473694,3.304634205159607e-05
-0.011401791720737112,-0.0007982941468283496,3.2648642103327136e-05
-0.011043727133416439,-0.0008039055265418879,3.2248092184984574e-05
-0.010677975754673222,-0.0008093359522639103,3.184478181528312e-05
-0.010304541489275197,-0.0008145815815748974,3.143880243182342e-05
-0.009923472781165135,-0.0008196385851425075,3.103024739014407e-05
-0.009534861676583654,-0.0008245031687569447,3.061921195166921e-05
-0.009138842448366954,-0.0008291715947881823,3.0205793260782927e-05
-0.008735589822826975,-0.0008336402028559808,2.9790090311371887e-05
-0.008325316839051071,-0.0008379054295214503,2.937220390327753e-05
-0.00790827236065037,-0.0008419638268213757,2.895223658919182e-05
-0.007484738263589366,-0.0008458120794774356,2.853029261261712e-05
-0.00705502634216414,-0.000849447020628874,2.8106477837590542e-05
-0.006619474998221638,-0.0008528656459639704,2.768089967094233e-05
-0.006178445794208462,-0.000856065126162078,2.725366697791082e-05
-0.005732319953687448,-0.000859042817599052,2.6824889991970538e-05
-0.005281494887059536,-0.0008617962713092387,2.6394680219743466e-05
-0.004826380812668506,-0.0008643232402341707,2.5963150341857614e-05
-0.00436739753922907,-0.0008666216848221451,2.5530414110593535e-05
-0.003904971474909748,-0.0008686897770756798,2.5096586245119078e-05
-0.0034395329277389607,-0.000870525903176342,2.4661782325056072e-05
-0.0029715137563686655,-0.0008721286648473689,2.4226118683050144e-05
-0.0025013454148264335,-0.0008734968796401676,2.378971229692826e-05
-0.0020294574086746828,-0.000874629580346043,2.3352680681931707e-05
-0.001556276148195868,-0.0008755260137352606,2.291514178341138e-05
-0.0010822241558809224,-0.0008761856388112798,2.2477213870274746e-05
-0.0006077195666825767,-0.0008766081247419208,2.2039015429386447e-05
-0.00013317585334148355,-0.0008767933485969268,2.1600665061051735e-05
0.00034099828069497797,-0.0008767413929900884,2.1162281375654982e-05
0.0008143988741431432,-0.0008764525437013788,2.0723982891482117e-05
0.0012866265585309445,-0.0008759272873432103,2.028588793372097e-05
0.0017572862988596758,-0.0008751663091288626,1.984811453460295e-05
0.002225987059599723,-0.0008741704907892477,1.941078033462342e-05
0.0026923414594736657,-0.0008729409086594794,1.897400248476124e-05
0.0031559654938250574,-0.0008714788319211547,1.853789754961608e-05
0.003616478401540958,-0.0008697857209473131,1.8102581411398962e-05
0.004073502738960904,-0.0008678632256621877,1.7668169174746587e-05
0.004526664700696476,-0.0008657131838022734,1.723477507238047e-05
0.004975594701825936,-0.0008633376189516428,1.6802512371691993e-05
0.005419928212968123,-0.0008607387382229443,1.6371493282398347e-05
0.005859306823366457,-0.0008579189294638606,1.5941828865476646e-05
0.006293379501154496,-0.0008548807578827303,1.551362894364e-05
0.006721804026362541,-0.0008516269620008511,1.5087002013669104e-05
0.007144248585522059,-0.00084816044884788,1.466205516095692e-05
