acceleration,velocity,displacement
-0.008715442789598188,0.0,0.0
-0.00858136357633787,-4.3242015914840145e-06,-1.0810503978710036e-09
-0.008442293930711607,-8.580115968246385e-06,-4.307129787803603e-09
-0.008298535353662642,-1.2765323289339947e-05,-9.643489602200188e-09
-0.008150406495913467,-1.6877558751733976e-05,-1.7054210112468667e-08
-0.007998237786550755,-2.091471982235003e-05,-2.6502279755989668e-08
-0.007842366049682657,-2.4874870781408384e-05,-3.794967740692927e-08
-0.007683129185592162,-2.8756244590227087e-05,-5.135745624983814e-08
-0.007520861012256387,-3.255724213968923e-05,-6.668582793231721e-08
-0.007355886381469377,-3.6276428988120664e-05,-8.389424571426969e-08
-0.00718851669591766,-3.9912529757467426e-05,-1.0294148540066671e-07
-0.007019045947058013,-4.346442041821134e-05,-1.237857229445864e-07
-0.006847747363135188,-4.693111874575964e-05,-1.4638460773557916e-07
-0.006674870714241273,-5.0311773265103756e-05,-1.70695330738295e-07
-0.006500640282692433,-5.3605651014337185e-05,-1.9667468680815523e-07
-0.006325253476441832,-5.681212445412075e-05,-2.2427913067526971e-07
-0.006148880039337454,-5.993065783306557e-05,-2.534648262470663e-07
-0.005971661797161085,-6.29607932921902e-05,-2.8418768902838025e-07
-0.00579371287752099,-6.590213696086072e-05,-3.1640342159164295e-07
-0.005615120353713112,-6.875434526866925e-05,-3.5006754214902543e-07
-0.005435945278400086,-7.151711167669754e-05,-3.851354063853671e-07
-0.005256224084103658,-7.419015401732348e-05,-4.2156222280887235e-07
-0.0050759703334004366,-7.677320262169951e-05,-4.593030619686281e-07
-0.004895176805309579,-7.926598940637701e-05,-4.983128599756472e-07
-0.004713817905539541,-8.166823808408929e-05,-5.385464168482637e-07
-0.004531852381919439,-8.397965565595403e-05,-5.799583902832746e-07
-0.004349226308353857,-8.619992532852235e-05,-6.225032855293937e-07
-0.004165876276135672,-8.832870097464473e-05,-6.661354421051855e-07
-0.003981732710633009,-9.03656032213369e-05,-7.108090181541809e-07
-0.0037967232171704636,-9.231021720328777e-05,-7.564779732603371e-07
-0.0036107758488737964,-9.416209196979884e-05,-8.030960505536087e-07
-0.0034238221840357853,-9.592074147802624e-05,-8.50616758915565e-07
-0.003235800108341022,-9.758564705112044e-05,-8.989933560478517e-07
-0.0030466562170500537,-9.915626113246821e-05,-9.481788330937488e-07
-0.0028563477731036848,-0.00010063201213000664,-9.981259014093675e-07
-0.0026648441724795515,-0.00010201231011640245,-1.0487869819709697e-06
-0.0024721278825049894,-0.00010329655313014859,-1.1001141977826074e-06
-0.0022781948381294767,-0.0001044841338103072,-1.1520593695177214e-06
-0.0020830543023513345,-0.0001055744460954274,-1.204574014494155e-06
-0.0018867282129506942,-0.0001065668917242529,-1.257609348949075e-06
-0.0016892500495195703,-0.00010746088628987048,-1.3111162934526059e-06
-0.0014906632706903808,-0.00010825586461992297,-1.3650454811800542e-06
-0.0012910193934871177,-0.00010895128528596734,-1.4193472686565268e-06
-0.0010903758075967078,-0.0001095466340862383,-1.4739717484995783e-06
-0.0008887934317639428,-0.00011004142639607845,-1.5288687636201575e-06
-0.00068633433198667,-0.0001104352083370161,-1.5839879223034311e-06
-0.00048305943851432325,-0.00011072755677964135,-1.6392786135825956e-06
-0.0002790265167590397,-0.00011091807826845969,-1.6946900223446207e-06
-7.428855159249633e-05,-0.00011100640703554757,-1.7501711436706225e-06
0.0001311073141777039,-0.00011099220234490128,-1.8056707960157348e-06
0.00033712018066877047,-0.00011087514547118966,-1.8611376329697574e-06
0.0005437150603797936,-0.00011065493666092752,-1.916520153502787e-06
0.0007508617764874487,-0.00011033129245171071,-1.9717667107809462e-06
0.0009585330790972639,-0.00010990394373781453,-2.0268255198283276e-06
0.001166701998174955,-0.00010937263496849648,-2.0816446645049053e-06
0.001375338482476357,-0.00010873712484833366,-2.1361721044591126e-06
0.0015844054045144173,-0.00010799718887658596,-2.1903556828903424e-06
0.001793854039418873,-0.00010715262401560264,-2.2441431361133894e-06
0.002003619145944542,-0.00010620325571926178,-2.2974821060471053e-06
0.002213613786946126,-0.00010514894748603911,-2.3503201568484306e-06
0.0024237240251392075,-0.00010398961303301778,-2.402604796978195e-06
0.0026338036242939014,-0.0001027252311206595,-2.454283508016614e-06
0.002843668882920787,-0.00010135586299385583,-2.5053037815452428e-06
0.003053093727492589,-9.988167234125248e-05,-2.5556131653790197e-06
0.003261805191378118,-9.830294761153481e-05,-2.6051593203672166e-06
0.0034694794028299896,-9.662012646298278e-05,-2.653890088885846e-06
0.003675738201060259,-9.483382206201021e-05,-2.7017535760170942e-06
0.0038801464876251027,-9.294485088983888e-05,-2.7486982442550565e-06
0.004082210392117312,-9.095426166990327e-05,-2.794673022394992e-06
0.0042813762907747835,-8.886336499918025e-05,-2.839627429062263e-06
0.004477030682567489,-8.667376325584468e-05,-2.8835117111260193e-06
0.004668500911510117,-8.438738035732527e-05,-2.9262769970293117e-06
0.004855056720145562,-8.200649094941135e-05,-2.9678754648559958e-06
0.005035912616827667,-7.953374861516804e-05,-3.0082605247471407e-06
0.005210231037960853,-7.69722127014709e-05,-3.0473870150763006e-06
0.00537712628940399,-7.432537336962969e-05,-3.0852114115940756e-06
0.005535669254955892,-7.159717448353972e-05,-3.121692048557368e-06
0.005684892855412969,-6.87920339559475e-05,-3.1567893506672397e-06
0.005823798225120353,-6.591486118581417e-05,-3.19046607445268e-06
0.005951361548154271,-6.297107124249551e-05,-3.2226875575597572e-06
0.006066541472710351,-5.9966595487279355e-05,-3.253421974242201e-06
0.006168287010123777,-5.690788836657082e-05,-3.2826405952056635e-06
0.006255545828854172,-5.3801930156826334e-05,-3.310318049836513e-06
0.00632727286928144,-5.065622548229243e-05,-3.3364325887462923e-06
0.006382439222008947,-4.747879745946983e-05,-3.360966344481733e-06
0.0064200412197177705,-4.427817734903815e-05,-3.38390558818386e-06
0.006439109684309412,-4.106338962303136e-05,-3.405240979926878e-06
0.0064387192499362035,-3.784393238946996e-05,-3.424967810430003e-06
0.006417997660620104,-3.462975316183088e-05,-3.4430862318178284e-06
0.006376134930542309,-3.1431220014040275e-05,-3.4596014751117963e-06
0.006312392257272033,-2.825908821708669e-05,-3.474524052169578e-06
0.00622611058654154,-2.51244625061333e-05,-3.487869939850383e-06
0.006116718737576466,-2.2038755175103797e-05,-3.4996607442706923e-06
0.00598374101088675,-1.9013640237987994e-05,-3.5099238431239652e-06
0.0058268042137282925,-1.6061003931834233e-05,-3.5186925041664206e-06
0.005645644045550693,-1.3192891867014486e-05,-3.526005978116133e-06
0.0054401107832972445,-1.0421453159802501e-05,-3.531909564372837e-06
0.0052101741997008216,-7.758881914052985e-06,-3.536454648141301e-06
0.004955927646750539,-5.217356452440145e-06,-3.5396987077329243e-06
0.00467759124924061,-2.8089767284423574e-06,-3.541705291028145e-06
0.00437551417951708,-5.457003712529349e-07,-3.5425439603030686e-06
0.0040501760134934815,1.5607221769997057e-06,-3.542290204851632e-06
0.0037021871854555238,3.498812976736957e-06,-3.541025321063198e-06
0.0033322885646899407,5.257431914273323e-06,-3.5388362598404454e-06
0.002941350188286738,6.825841602517493e-06,-3.5358154414612477e-06
0.002530369214920892,8.1937714533194e-06,-3.5320605381972886e-06
0.0021004672005769777,9.351480557193869e-06,-3.52767422519466e-06
0.0016528868093370996,1.0289819059672388e-05,-3.5227639002904437e-06
0.001188988046014197,1.1000287773510213e-05,-3.517441373582148e-06
0.0007102440472983375,1.1475095796838347e-05,-3.5118225276895607e-06
0.00021823642137244585,1.1707215914006043e-05,-3.5060269497618496e-06
-0.0002853499015581056,1.1690437543959628e-05,-3.500177536397358e-06
-0.0007987323573762764,1.1419416979226032e-05,-3.4944000727665616e-06
-0.0013200370335821562,1.0889724631486424e-05,-3.4888227873638834e-06
-0.001847305622919227,1.0097888967361078e-05,-3.4835758839641715e-06
-0.0023785031200768414,9.04143678161206e-06,-3.4787910525269284e-06
-0.0029115263182898387,7.71892942202039e-06,-3.4746009609760202e-06
-0.0034442131229518013,6.129994561709981e-06,-3.4711387299800877e-06
-0.003974352658249468,4.275353116409664e-06,-3.4685373930605577e-06
-0.004499696119590493,2.1568409219496734e-06,-3.4669293445509678e-06
-0.005017968318863817,-2.225751876639041e-07,-3.4664457781173964e-06
-0.005526879866231576,-2.8587872339377525e-06,-3.4672161187227968e-06
-0.006024139920064027,-5.746542180511654e-06,-3.469367451076409e-06
-0.006507469417397508,-8.879444514877038e-06,-3.4730239477502562e-06
-0.006974614677770194,-1.2249965538668963e-05,-3.4783063002636426e-06
-0.007423361257418616,-1.5849459522466167e-05,-3.485331156528926e-06
-0.007851547919371427,-1.9668186816663676e-05,-3.494210568113709e-06
-0.008257080578183234,-2.369534394105234e-05,-3.505051450803138e-06
-0.008637946075434265,-2.7919100604456716e-05,-3.5179550619395154e-06
-0.0089922256432647,-3.2326643534131456e-05,-3.5330164979741623e-06
-0.009318107916969324,-3.690422692418996e-05,-3.5503242155887425e-06
-0.009613901362445679,-4.163722924404371e-05,-3.569959579630801e-06
-0.009878045987973063,-4.65102160816484e-05,-3.591996440962224e-06
-0.010109124211919548,-5.150700863162155e-05,-3.6165007471405413e-06
-0.01030587075996155,-5.661075737459182e-05,-3.6435301886420948e-06
-0.010467181469307498,-6.180402043190909e-05,-3.67313388309372e-06
-0.010592120885652518,-6.706884602064909e-05,-3.7053520997068597e-06
-0.010679928553274537,-7.238685838038085e-05,-3.740216025807117e-06
-0.010730023920874602,-7.773934649891814e-05,-3.777747577026942e-06
-0.010742009813565195,-8.310735493252809e-05,-3.817959252384803e-06
-0.010715674450540037,-8.84717759985544e-05,-3.860854035117574e-06
-0.010650992014242298,-9.381344261474998e-05,-3.9064253397709e-06
-0.010548121796862524,-9.911322106752618e-05,-3.954657005691469e-06
-0.010407405961941488,-0.00010435210300722718,-4.0055233367101575e-06
-0.010229365966521714,-0.00010951129598934298,-4.0589891864593e-06
-0.010014697701483954,-0.0001145723119063444,-4.115010088433222e-06
-0.009764265427412518,-0.00011951705268856852,-4.17353242958195e-06
-0.009479094604345612,-0.00012432789269650805,-4.2344936659282194e-06
-0.009160363730486152,-0.000128987757280216,-4.2978225784224e-06
-0.008809395317455768,-0.0001334801970422015,-4.363439567003005e-06
-0.00842764613641668,-0.0001377894574056696,-4.431256980614973e-06
-0.008016696865671273,-0.0001419005431561916,-4.501179480755438e-06
-0.007578241257149335,-0.00014579927768689676,-4.57310443596621e-06
-0.007114074925697725,-0.0001494723567326085,-4.646922344571087e-06
-0.006626083861349662,-0.00015290739642937035,-4.7225172828615815e-06
-0.006116232773123514,-0.00015609297558798863,-4.799767375865921e-06
-0.005586553385650279,-0.00015901867212768207,-4.878545287794838e-06
-0.005039132814112079,-0.00016167509367762267,-4.958718729246165e-06
-0.004476102130901,-0.00016405390241387593,-5.040150978269039e-06
-0.0038996252129485844,-0.00016614783424983833,-5.122701412434968e-06
-0.003311887932551065,-0.00016795071253621324,-5.206226049131481e-06
-0.002715087733869732,-0.00016945745645281844,-5.290578091378739e-06
-0.0021114236203937085,-0.0001706640842913843,-5.375608476564789e-06
-0.0015030865619702159,-0.00017156771183697526,-5.4611664255968795e-06
-0.0008922503166138393,-0.00017216654605662127,-5.547099990070278e-06
-0.00028106265963436834,-0.00017245987430068333,-5.633256595159605e-06
0.0003283629803252403,-0.00017244804922051063,-5.7194835760399035e-06
0.0009339554731244593,-0.0001721324696071482,-5.805628705746818e-06
0.001533693526708419,-0.00017151555735718998,-5.8915407124879025e-06
0.0021256128281439196,-0.0001706007307684769,-5.977069784519319e-06
0.0027078128145695385,-0.00016939237435779854,-6.062068060800888e-06
0.003278463112895678,-0.00016789580537593222,-6.146390105734321e-06
0.003835809691213708,-0.00016611723717490487,-6.2298933663720306e-06
0.0043781807601607735,-0.00016406373956206124,-6.312438610556272e-06
0.004903992446282479,-0.00016174319626045044,-6.3938903445119e-06
0.005411754234007941,-0.00015916425959037784,-6.474117208474607e-06
0.005900074144850474,-0.00015633630249566323,-6.552992348996117e-06
0.006367663596367217,-0.00015326936806035881,-6.630393766635123e-06
0.0068133418602887,-0.00014997411669619485,-6.706204637824261e-06
0.007236040020559725,-0.00014646177122598273,-6.780313609804806e-06
0.007634804320148909,-0.00014274406014080557,-6.852615067646503e-06
0.00800879878310775,-0.0001388331593649914,-6.923009372522952e-06
0.008357307009133359,-0.00013474163291693112,-6.991403070593433e-06
0.008679733063948003,-0.00013048237289866078,-7.057709072047331e-06
0.00897560142598158,-0.0001260685392761784,-7.1218468000910405e-06
0.009244555986835176,-0.00012151349992297419,-7.183742309890828e-06
0.009486358128761087,-0.00011683077139407513,-7.24332837772009e-06
0.009700883915949574,-0.00011203396088289746,-7.300544560789334e-06
0.009888120446648347,-0.00010713670979224798,-7.35533722845812e-06
0.01004816142662638,-0.0001021526393239293,-7.407659565737164e-06
0.010181202038419927,-9.709529845766771e-05,-7.457471550182563e-06
0.01028753319046446,-9.197811465044661e-05,-7.5047399034595915e-06
0.010367535239379852,-8.681434754298553e-05,-7.5494380190079494e-06
0.010421671295342255,-8.1617045909305e-05,-7.591545867371022e-06
0.0104504802452419,-7.639900802415897e-05,-7.631049880854388e-06
0.010454569651177142,-7.117274555005422e-05,-7.66794281924794e-06
0.01043460869056605,-6.595045096461842e-05,-7.702223618376608e-06
0.01039132129102969,-6.0743968469219484e-05,-7.733897223235068e-06
0.010325479577048623,-5.5564768252199906e-05,-7.762974407415423e-06
0.010237897693941317,-5.042392393445242e-05,-7.789471580462086e-06
0.01012942602567878,-4.5332093004547395e-05,-7.813410584696836e-06
0.010000945794593263,-4.0299500049479385e-05,-7.834818482960342e-06
0.009853364030879011,-3.5335922593111316e-05,-7.85372733862099e-06
0.009687608923535056,-3.04506793545078e-05,-7.870173989107895e-06
0.009504625598552236,-2.5652620723985976e-05,-7.884199814127518e-06
0.009305372395618027,-2.095012122544341e-05,-7.895850499614876e-06
0.00909081771451589,-1.6351073697909933e-05,-7.905175798345714e-06
0.008861937470842822,-1.1862884901570255e-05,-7.912229287995584e-06
0.008619713145533368,-7.492472247476208e-06,-7.917068127282846e-06
0.008365130352171658,-3.2462613730499513e-06,-7.919752810687978e-06
0.008099177801714055,8.698156654214769e-07,-7.920346922114886e-06
0.007822846531568362,4.850321748742081e-06,-7.918916887761346e-06
0.007537129284695084,8.690315702807944e-06,-7.915531728398458e-06
0.007243019957160202,1.2385353013271766e-05,-7.91026281121944e-06
0.006941513058798965,1.5931486267261558e-05,-7.903183601399306e-06
0.006633603144620828,1.9325265318116505e-05,-7.89436941350296e-06
0.006320284180008614,2.2563737149273867e-05,-7.883897162886112e-06
0.006002548806016498,2.5644445395780144e-05,-7.871845117249849e-06
0.005681387472840878,2.8565429465494487e-05,-7.85829264853453e-06
0.005357787408291811,3.132522318577766e-05,-7.843319985371712e-06
0.005032731385270642,3.3922852884168276e-05,-7.827007966354225e-06
0.004707196255636869,3.6357834794395154e-05,-7.809437794434584e-06
0.004382151236495957,3.863017166742836e-05,-7.79069079281913e-06
0.004058555968133083,4.0740348468585624e-05,-7.770848162785126e-06
0.0037373583991786603,4.268932706041356e-05,-7.749990743902876e-06
0.003419492581648257,4.447853980562029e-05,-7.728198777186368e-06
0.0031058764692517885,4.61098820683453e-05,-7.705551671717877e-06
0.0027974098046610768,4.7585703636823516e-05,-7.682127775291584e-06
0.0024949721557355614,4.8908799126922675e-05,-7.658004149600648e-06
0.002199421120814267,5.008239744606013e-05,-7.633256350457402e-06
0.0019115906768745641,5.111015039548234e-05,-7.607958213497016e-06
0.00163228960188506,5.199612046517224e-05,-7.582181645781852e-06
0.0013622998740152005,5.2744767834147306e-05,-7.555996423707022e-06
0.001102374941570218,5.336093653804366e-05,-7.529469997613974e-06
0.000853237765920079,5.384983971491623e-05,-7.502667303550735e-06
0.0006155785571531021,5.4217043795684526e-05,-7.4756505826730845e-06
0.0003900521450569562,5.4468451471237044e-05,-7.4484792088563544e-06
0.00017727495655081086,5.461028324663899e-05,-7.421209525176886e-06
-2.2178399519192902e-05,5.4649057385896895e-05,-7.393894690018752e-06
-0.00020777891603008156,5.459156805700958e-05,-7.366584533658026e-06
-0.0003790473008516491,5.4444861502789146e-05,-7.339325426268076e-06
-0.0005355583702281009,5.421621008501921e-05,-7.312160158371124e-06
-0.000676945661521225,5.3913084077081875e-05,-7.285127834830599e-06
-0.0008029061939882476,5.3543121113204506e-05,-7.258263783533027e-06
-0.0009132053017857853,5.3114093239261e-05,-7.231599479944911e-06
-0.001007681466428112,5.263387154720752e-05,-7.205162488748294e-06
-0.0010862510799705585,5.2110388410607856e-05,-7.17897642375884e-06
-0.0011489130663561418,5.155159737402618e-05,-7.153060927312681e-06
-0.00119575327307458,5.09654307891685e-05,-7.127431670271882e-06
-0.001226948521618096,5.0359755340495334e-05,-7.102100373739466e-06
-0.0012427701812598247,4.974232566477585e-05,-7.077074853488148e-06
-0.0012435871172596345,4.9120736340145986e-05,-7.052359087986918e-06
-0.0012298678689321527,4.850237259359804e-05,-7.027953310753482e-06
-0.0012021819293355914,4.7894360144031106e-05,-7.003854127569075e-06
-0.0011612000117755092,4.730351465875333e-05,-6.980054658868379e-06
-0.0011076931944509706,4.673629135719671e-05,-6.956544707364392e-06
-0.001042530845416517,4.619873534722984e-05,-6.933310950688285e-06
-0.0009666772549299434,4.569643332214322e-05,-6.910337158520941e-06
-0.0008811869355008387,4.5234467274535526e-05,-6.8876044333717715e-06
-0.0007871985833547998,4.481737089482162e-05,-6.865091473829432e-06
-0.0006859277281117366,4.444908931695498e-05,-6.842774858776488e-06
-0.0005786581313900422,4.4132942852079536e-05,-6.820629350734229e-06
-0.00046673202616388256,4.387159531269106e-05,-6.7986282161930366e-06
-0.0003515393137040071,4.366702747772408e-05,-6.7767435604954324e-06
-0.00023450585577677332,4.352051618535389e-05,-6.754946674579663e-06
-0.00011708102083186653,4.343261946620173e-05,-6.733208390666774e-06
-7.24664197465995e-07,4.34031680449444e-05,-6.711499443788987e-06
0.00011310626125834507,4.343126344420962e-05,-6.689790835916699e-06
0.00022297126010008178,4.351528282454923e-05,-6.668054199349509e-06
0.00032745981190969437,4.365289059255167e-05,-6.6462621559952335e-06
0.0004252046552332076,4.38410567093374e-05,-6.624388669169761e-06
0.0005148946523796327,4.4076081536240605e-05,-6.602409384608367e-06
0.0005952870620375551,4.43536269648449e-05,-6.580301957483096e-06
0.0006652190597567706,4.466875349529348e-05,-6.558046362368061e-06
0.0007236183638915226,4.5015962851205554e-05,-6.535625183281436e-06
0.0007695128501248932,4.5389245654709657e-05,-6.513023881154958e-06
0.0008020390644745609,4.578213363335952e-05,-6.49023103633294e-06
0.000820449561491515,4.618775578985104e-05,-6.467238563977138e-06
0.0008241190027197547,4.659889793090386e-05,-6.444041900546949e-06
0.0008125489622980126,4.700806492215831e-05,-6.420640159833683e-06
0.0007853714055463707,4.74075450141194e-05,-6.397036257349614e-06
0.0007423508242672387,4.7789475571572804e-05,-6.373237002203191e-06
0.0006833850247649095,4.814590953383084e-05,-6.34925315592684e-06
0.0006085045763556998,4.846888193411099e-05,-6.325099458059855e-06
0.0005178709451554813,4.875047581448879e-05,-6.300794618622705e-06
0.00041177335953449803,4.898288689066128e-05,-6.276361277946418e-06
0.0002906244740668125,4.915848634906161e-05,-6.251825934636487e-06
0.00015495491237287604,4.926988119567153e-05,-6.227218842750304e-06
5.406776166836566e-06,4.930997161780646e-05,-6.202573879546935e-06
-0.00015727378670194104,4.927200486517268e-05,-6.177928385426189e-06
-0.0003322448554637285,4.9149625204631264e-05,-6.153322977908738e-06
-0.0005185777456497838,4.8936919554352883e-05,-6.128801341718992e-06
-0.0007152666486667039,4.862845845577376e-05,-6.10440999721646e-06
