frame_number,force
0,690.1855894282724
1,690.1950310009729
2,690.2048239893029
3,690.2149471622077
4,690.2253780809818
5,690.2360934775124
6,690.2470696333625
7,690.2582827543124
8,690.2697093336099
9,690.2813264958818
10,690.2931123128133
11,690.3050460821512
12,690.3171085637431
13,690.3292821693095
14,690.3415511053661
15,690.3539014708639
16,690.3663213128016
17,690.3788006441089
18,690.3913314281621
19,690.4039075334446
20,690.4165246607579
21,690.4291802446012
22,690.441873329927
23,690.4546044252221
24,690.4673753327825
25,690.4801889574991
26,690.4930490967337
27,690.5059602155928
28,690.5189272133742
29,690.5319551879569
30,690.545049205687
31,690.5582140846757
32,690.571454198881
33,690.5847733089512
34,690.5981744243392
35,690.611659700115
36,690.6252303708924
37,690.6388867229238
38,690.6526281039287
39,690.6664529690963
40,690.6803589608659
41,690.6943430189739
42,690.7084015157019
43,690.722530409791
44,690.7367254114732
45,690.7509821501934
46,690.7652963353734
47,690.7796638992965
48,690.7940811108815
49,690.8085446504329
50,690.8230516378684
51,690.837599609443
52,690.8521864401692
53,690.8668102111682
54,690.8814690232676
55,690.8961607603233
56,690.9108828078967
57,690.9256317348863
58,690.9404029471426
59,690.9551903227364
60,690.9699858384461
61,690.9847791966271
62,690.9995574614107
63,691.0143047131793
64,691.0290017302028
65,691.0436257061217
66,691.0581500116572
67,691.0725440081017
68,691.0867729181504
69,691.1007977567947
70,691.1145753225967
71,691.1280582485526
72,691.1411951114859
73,691.1539305987461
74,691.1662057308878
75,691.1779581392151
76,691.1891223973431
77,691.199630405613
78,691.209411826032
79,691.2183945636626
80,691.2265052887282
81,691.2336699928445
82,691.2398145730655
83,691.2448654385182
84,691.2487501355943
85,691.2513979881783
86,691.2527407488128
87,691.2527132552062
88,691.2512540849508
89,691.2483062005708
90,691.243817577173
91,691.2377418055597
92,691.2300386643976
93,691.2206746559418
94,691.2096235007544
95,691.1968665873542
96,691.1823933725627
97,691.166201727841
98,691.1482982268377
99,691.1286983702724
100,691.1074267461187
101,691.0845171250915
102,691.0600124926738
103,691.033965019304
104,691.0064359711416
105,690.9774955659772
106,690.9472227813951
107,690.9157051231548
108,690.8830383599
109,690.8493262267797
110,690.8146800972746
111,690.7792186205818
112,690.7430673210711
113,690.706358155671
114,690.6692290242097
115,690.6318232274294
116,690.5942888686733
117,690.5567781980407
118,690.5194469006993
119,690.4824533326807
120,690.4459577078875
121,690.410121240277
122,690.3751052460385
123,690.341070211933
124,690.3081748373401
125,690.2765750586744
126,690.2464230656418
127,690.217866319281
128,690.191046581922
129,690.166098969112
130,690.1431510332967
131,690.1223218887061
132,690.1037213866359
133,690.0874493501661
134,690.0735948772201
135,690.0622357205904
136,690.053437752977
137,690.0472545240523
138,690.0437269150021
139,690.0428828940362
140,690.0447373743078
141,690.0492921738339
142,690.0565360755968
143,690.0664449851683
144,690.078982182654
145,690.0940986648997
146,690.1117335725145
147,690.1318146947855
148,690.1542590443781
149,690.1789734928394
150,690.2058554574453
151,690.2347936301954
152,690.2656687406856
153,690.2983543455414
154,690.3327176373609
155,690.3686202655186
156,690.4059191602921
157,690.4444673514738
158,690.4841147734832
159,690.5247090507141
160,690.5660962586941
161,690.6081216580842
162,690.6506303997407
163,690.6934682002315
164,690.736481988145
165,690.7795205217169
166,690.8224349778021
167,690.865079511826
168,690.9073117887059
169,690.9489934857068
170,690.9899907692378
171,691.0301747483229
172,691.0694219077687
173,691.1076145237269
174,691.1446410632001
175,691.1803965672542
176,691.2147830157268
177,691.2477096693849
178,691.279093383857
179,691.3088588883501
180,691.3369390213243
181,691.3632749151335
182,691.387816122394
183,691.4105206786829
184,691.4313550987835
185,691.4502943063001
186,691.467321498279
187,691.4824279474249
188,691.4956127452242
189,691.5068824902381
190,691.5162509268055
191,691.5237385400789
192,691.529372113962
193,691.5331842596886
194,691.5352129245266
195,691.5355008917056
196,691.5340952832744
197,691.5310470766743
198,691.526410643267
199,691.5202433134319
200,691.5126049693976
201,691.5035576649643
202,691.4931652712677
203,691.4814931494013
204,691.4686078531261
205,691.4545768666832
206,691.4394683827245
207,691.4233511231492
208,691.4062942017564
209,691.3883670233574
210,691.3696392108747
211,691.3501805510538
212,691.3300609507413
213,691.309350397983
214,691.2881189240446
215,691.2664365633731
216,691.2443733088949
217,691.22199906028
218,691.1993835629228
219,691.1765963353034
220,691.1537065821973
221,691.1307830914321
222,691.107894113212
223,691.0851072233617
224,691.0624891744048
225,691.0401057402952
226,691.018021561378
227,690.9962999956161
228,690.975002980305
229,690.9541909056925
230,690.9339224986605
231,690.9142547116307
232,690.8952426098406
233,690.8769392495152
234,690.8593955400548
235,690.8426600845843
236,690.8267789948229
237,690.8117956782413
238,690.7977505975701
239,690.784681004364
240,690.7726206493539
241,690.7615994730753
242,690.7516432810474
243,690.7427734085295
244,690.735006380191
245,690.7283535698198
246,690.7228208649096
247,690.7184083412345
248,690.7151099535974
249,690.7129132506057
250,690.7117991230135
251,690.7117415961153
252,690.7127076763705
253,690.7146572612911
254,690.7175431206742
255,690.7213109568352
256,690.7258995507264
257,690.7312409990809
258,690.737261045373
259,690.7438795050385
260,690.7510107830698
261,690.7585644797066
262,690.7664460777609
263,690.774557703345
264,690.7827989503094
265,690.7910677572136
266,690.7992613241538
267,690.8072770556112
268,690.8150135149644
269,690.8223713763695
270,690.8292543601857
271,690.835570138888
272,690.8412312012784
273,690.8461556637346
274,690.8502680184653
275,690.8534998105447
276,690.8557902373808
277,690.8570866654563
278,690.8573450597685
279,690.8565303222292
280,690.8546165366198
281,690.8515871189538
282,690.8474348729678
283,690.8421619512873
284,690.8357797240118
285,690.828308557987
286,690.8197775114693
287,690.810223949844
288,690.7996930885467
289,690.7882374697198
290,690.7759163796303
291,690.7627952142606
292,690.7489448005098
293,690.734440680178
294,690.7193623636185
295,690.7037925599594
296,690.6878163914633
297,690.671520600936
298,690.6549927623777
299,690.6383205052375
300,690.6215907612561
301,690.6048890405839
302,690.5882987417906
303,690.5719004994205
304,690.555771572917
305,690.5399852812194
306,690.5246104873698
307,690.5097111372049
308,690.4953458561693
309,690.481567608403
310,690.4684234217673
311,690.455954180925
312,690.4441944884742
313,690.4331725922736
314,690.4229103759739
315,690.41342340943
316,690.4047210560091
317,690.3968066344361
318,690.3896776332343
319,690.3833259755861
320,690.3777383314649
321,690.37289647236
322,690.3687776624197
323,690.365355079022
324,690.3625982558764
325,690.360473542513
326,690.3589445750833
327,690.3579727545344
328,690.3575177289882
329,690.357537877023
330,690.3579907877411
331,690.3588337330069
332,690.3600241277774
333,690.3615199757143
334,690.3632802984669
335,690.3652655473109
336,690.3674379948361
337,690.36976210257
338,690.3722048589063
339,690.3747360811337
340,690.3773286756226
341,690.3799588511184
342,690.3826062816391
343,690.3852542177907
344,690.3878895483134
345,690.3905028167723
346,690.3930882004934
347,690.3956434591854
348,690.398169858992
349,690.400672074965
350,690.4031580727183
351,690.4056389691772
352,690.4081288722838
353,690.4106446993942
354,690.4132059740377
355,690.415834601218
356,690.4185546222872
357,690.4213919509847
358,690.424374092447
359,690.4275298472305
360,690.4308890026388
361,690.4344820136625
362,690.438339675685
363,690.4424927910522
364,690.4469718317864
365,690.4518066010991
366,690.4570258966656
367,690.4626571784403
368,690.468726243083
369,690.4752569063562
370,690.4822706946603
371,690.4897865473552
372,690.497820532474
373,690.5063855795685
374,690.5154912344857
375,690.5251434416734
376,690.5353443599417
377,690.5460922172406
378,690.557381208973
379,690.5692014430603
380,690.5815389338867
381,690.5943756464738
382,690.6076895915278
383,690.6214549711148
384,690.6356423736439
385,690.6502190158553
386,690.6651490289653
387,690.6803937860254
388,690.6959122675975
389,690.711661462718
390,690.7275968016268
391,690.743672615634
392,690.7598426177404
393,690.776060395558
394,690.792279906344
395,690.808455963037
396,690.8245447000867
397,690.8405040085188
398,690.8562939312515
399,690.8718770123428
400,690.8872185972642
401,690.9022870845546
402,690.9170541313349
403,690.9314948156089
404,690.9455877571529
405,690.9593151969474
406,690.9726630335019
407,690.9856208135375
408,690.9981816742055
409,691.0103422344243
410,691.022102434338
411,691.033465324238
412,691.0444368066618
413,691.0550253369802
414,691.0652415883017
415,691.075098086163
416,691.084608817948
417,691.0937888221164
418,691.1026537634575
419,691.1112195020225
420,691.1195016640593
421,691.1275152230014
422,691.1352740982059
423,691.1427907792836
424,691.1500759840973
425,691.1571383581507
426,691.1639842219694
427,691.1706173713542
428,691.1770389335578
429,691.183247281121
430,691.1892380043283
431,691.1950039420875
432,691.2005352688177
433,691.2058196321484
434,691.2108423340684
435,691.2155865472064
436,691.2200335577396
437,691.2241630265435
438,691.2279532609156
439,691.2313814910191
440,691.2344241478413
441,691.2370571421675
442,691.2392561461534
443,691.2409968799399
444,691.2422554048575
445,691.243008422185
446,691.243233573154
447,691.2429097332034
448,691.2420172920932
449,691.2405384114504
450,691.2384572524093
451,691.2357601680008
452,691.2324358573635
453,691.2284754809529
454,691.2238727371189
455,691.2186239008035
456,691.2127278254139
457,691.2061859100199
458,691.1990020361092
459,691.1911824804255
460,691.1827358118009
461,691.173672779895
462,691.1640062027171
463,691.1537508583759
464,691.1429233851043
465,691.1315421922012
466,691.1196273828306
467,691.1072006874599
468,691.0942854044349
469,691.0809063425202
470,691.0670897597845
471,691.0528632938214
472,691.0382558792307
473,691.0232976489946
474,691.0080198167784
475,690.9924545374353
476,690.9766347431448
477,690.9605939528178
478,690.9443660528552
479,690.9279850483572
480,690.9114847855101
481,690.8948986478631
482,690.8782592311251
483,690.8615980028588
484,690.8449449550444
485,690.8283282584648
486,690.8117739277492
487,690.7953055051121
488,690.7789437704265
489,690.7627064857095
490,690.7466081826924
491,690.7306600018749
492,690.7148695900751
493,690.6992410615295
494,690.6837750254557
495,690.6684686805572
496,690.6533159741531
497,690.6383078208119
498,690.623432373011
499,690.6086753346509
500,690.5940203072743
501,690.5794491587
502,690.5649424046442
503,690.550479595603
504,690.536039702987
505,690.5216014992935
506,690.5071439269485
507,690.492646450355
508,690.4780893864713
509,690.4634542105796
510,690.4487238348052
511,690.4338828568832
512,690.4189177759258
513,690.4038171712364
514,690.3885718400908
515,690.3731748910415
516,690.3576217904821
517,690.3419103615174
518,690.3260407354401
519,690.3100152575144
520,690.2938383504982
521,690.2775163411616
522,690.261057256417
523,690.2444705962042
524,690.2277670901317
525,690.2109584443864
526,690.1940570848168
527,690.1770759014353
528,690.160027998797
529,690.1429264556926
530,690.1257840965485
531,690.1086132763666
532,690.0914256812667
533,690.0742321473864
534,690.0570425013927
535,690.0398654260632
536,690.0227083546349
537,690.0055773978653
538,689.9884773073354
539,689.9714114772446
540,689.9543819854727
541,689.9373896737904
542,689.9204342666391
543,689.9035145271611
544,689.8866284477502
545,689.8697734705808
546,689.8529467319811
547,689.8361453235381
548,689.8193665625212
549,689.8026082645346
550,689.7858690120846
551,689.769148413638
552,689.7524473483642
553,689.7357681922215
554,689.7191150217332
555,689.7024937927408
556,689.6859124924772
557,689.6693812644452
558,689.652912506742
559,689.6365209455009
560,689.6202236862116
561,689.6040402468695
562,689.5879925775445
563,689.5721050702838
564,689.5564045614346
565,689.5409203264496
566,689.5256840657977
567,689.5107298796811
568,689.4960942284517
569,689.4818158749438
570,689.467935804851
571,689.4544971219647
572,689.4415449161953
573,689.4291261034773
574,689.4172892380459
575,689.4060842993349
576,689.3955624574577
577,689.3857758220562
578,689.376777178544
579,689.368619713653
580,689.3613567298993
581,689.3550413473164
582,689.3497261908819
583,689.3454630630773
584,689.3423026023103
585,689.3402939288004
586,689.3394842793464
587,689.3399186312839
588,689.3416393149772
589,689.3446856144285
590,689.3490933571709
591,689.3548944970288
592,689.3621166961565
593,689.3707829155196
594,689.380911024988
595,689.3925134448442
596,689.4055968297484
597,689.4201618044981
598,689.4362027590333
599,689.4537077085809
600,689.4726582235993
601,689.4930294330337
602,689.5147901032345
603,689.5379027936158
604,689.5623240882396
605,689.588004899912
606,689.6148908406798
607,689.64292265044
608,689.6720366737956
609,689.7021653744529
610,689.7332378766819
611,689.7651805244764
612,689.7979174503762
613,689.8313711470196
614,689.8654630353024
615,689.9001140233266
616,689.9352450500638
617,689.9707776073884
618,690.0066342344786
619,690.0427389796009
620,690.0790178257063
621,690.1153990777862
622,690.1518137111874
623,690.1881956806708
624,690.2244821899598
625,690.260613921583
626,690.2965352277427
627,690.3321942845056
628,690.3675432125947
629,690.4025381675664
630,690.4371394005872
631,690.4713112894689
632,690.5050223389023
633,690.5382451492565
634,690.570956354644
635,690.6031365323017
636,690.6347700857723
637,690.6658451038811
638,690.6963531969437
639,690.7262893117254
640,690.7556515272877
641,690.7844408342839
642,690.8126609002077
643,690.8403178230021
644,690.8674198757907
645,690.8939772460728
646,690.9200017729986
647,690.9455066860443
648,690.9705063476713
649,690.9950160015588
650,691.0190515274038
651,691.0426292039012
652,691.0657654833597
653,691.0884767833581
654,691.1107793016047
655,691.1326888590999
656,691.1542207741569
657,691.1753897667197
658,691.1962098898813
659,691.2166944841556
660,691.2368561495907
661,691.2567067303011
662,691.2762573049241
663,691.2955181754943
664,691.3144988475074
665,691.3332079960386
666,691.3516534156936
667,691.3698419543267
668,691.3877794312516
669,691.4054705407876
670,691.4229187421579
671,691.4401261369502
672,691.4570933353303
673,691.4738193121395
674,691.4903012543148
675,691.5065344018511
676,691.522511885611
677,691.5382245664489
678,691.553660881118
679,691.5688067010116
680,691.5836452100467
681,691.598156808396
682,691.612319049582
683,691.6261066192509
684,691.6394913639423
685,691.6524423770492
686,691.6649261472855
687,691.6769067728641
688,691.688346242344
689,691.6992047805008
690,691.7094412545978
691,691.7190136335388
692,691.72787949006
693,691.7359965345904
694,691.7433231688162
695,691.7498190473575
696,691.7554456370455
697,691.7601667644428
698,691.7639491430574
699,691.7667628720232
700,691.768581897841
701,691.7693844304547
702,691.7691533054427
703,691.767876285974
704,691.7655463005985
705,691.7621616147364
706,691.7577259346975
707,691.7522484438887
708,691.7457437720192
709,691.7382318994738
710,691.7297380001845
711,691.7202922268904
712,691.7099294424374
713,691.6986889000763
714,691.6866138755246
715,691.6737512547049
716,691.6601510832958
717,691.6458660862469
718,691.6309511661811
719,691.6154628894985
720,691.5994589689105
721,691.582997750923
722,691.5661377157317
723,691.5489369951363
724,691.5314529122826
725,691.5137415460559
726,691.4958573230261
727,691.4778526406283
728,691.4597775260197
729,691.4416793352693
730,691.4236024971508
731,691.405588304889
732,691.3876747576846
733,691.3698964518738
734,691.3522845195095
735,691.3348666102721
736,691.3176669112042
737,691.3007061982032
738,691.2840019137026
739,691.2675682663112
740,691.2514163499666
741,691.2355542818182
742,691.2199873589198
743,691.2047182335937
744,691.1897471065512
745,691.1750719364463
746,691.1606886649525
747,691.1465914573076
748,691.1327729587931
749,691.1192245673524
750,691.1059367214716
751,691.0928992008149
752,691.0801014354554
753,691.0675328184025
754,691.0551830156007
755,691.0430422672686
756,691.0311016739156
757,691.0193534595757
758,691.0077912043955
759,690.9964100398115
760,690.9852068025184
761,690.974180147232
762,690.9633306211557
763,690.9526607044461
764,690.9421748215996
765,690.9318793292796
766,690.9217824864083
767,690.9118944117896
768,690.9022270331093
769,690.8927940295791
770,690.8836107694785
771,690.8746942435743
772,690.8660629954677
773,690.857737049968
774,690.8497378404421
775,690.8420881355112
776,690.8348119643898
777,690.8279345391205
778,690.8214821717162
779,690.8154821849566
780,690.8099628166875
781,690.804953118342
782,690.8004828490435
783,690.7965823672238
784,690.7932825219137
785,690.7906145451873
786,690.7886099456354
787,690.7873004007633
788,690.7867176445432
789,690.786893345601
790,690.7878589720357
791,690.7896456405006
792,690.7922839492638
793,690.7958037967294
794,690.8002341880548
795,690.8056030330845
796,690.811936938779
797,690.819260998679
798,690.8275985812342
799,690.8369711186683
800,690.8473978983895
801,690.8588958591905
802,690.8714793944009
803,690.8851601640149
804,690.8999469178166
805,690.9158453314816
806,690.9328578572816
807,690.9509835903049
808,690.9702181501659
809,690.99055357729
810,691.0119782424043
811,691.03447676812
812,691.0580299622333
813,691.0826147630177
814,691.1082041969952
815,691.1347673495563
816,691.1622693485633
817,691.1906713609698
818,691.2199306028556
819,691.2500003641213
820,691.2808300499654
821,691.3123652416925
822,691.344547779224
823,691.3773158671117
824,691.4106042051951
825,691.4443441445179
826,691.4784638688262
827,691.5128886017126
828,691.5475408390399
829,691.5823406055312
830,691.6172057334483
831,691.652052160431
832,691.6867942432013
833,691.7213450841741
834,691.7556168690265
835,691.78952121466
836,691.822969527922
837,691.8558733750082
838,691.8881448597439
839,691.9196970071307
840,691.950444147706
841,691.9803022984744
842,692.0091895367254
843,692.0370263633098
844,692.0637360519248
845,692.0892449811702
846,692.1134829469352
847,692.13638345367
848,692.1578839833446
849,692.1779262401042
850,692.1964563674749
851,692.213425134221
852,692.2287880847198
853,692.2425056499321
854,692.2545432159914
855,692.2648711492615
856,692.2734647789522
857,692.2803043402863
858,692.2853748822661
859,692.28866614431
860,692.2901724059633
861,692.2898923141594
862,692.2878286932948
863,692.2839883442501
864,692.2783818388259
865,692.2710233154763
866,692.2619302808152
867,692.2511234195271
868,692.2386264134626
869,692.2244657693154
870,692.2086706537342
871,692.1912727348118
872,692.1723060288548
873,692.1518067506835
874,692.1298131647161
875,692.1063654335601
876,692.0815054614062
877,692.0552767310522
878,692.0277241351369
879,691.9988938035942
880,691.9688329304337
881,691.9375896036709
882,691.9052126422274
883,691.8717514427537
884,691.8372558380411
885,691.8017759674865
886,691.7653621592286
887,691.7280648231897
888,691.6899343544304
889,691.6510210467515
890,691.6113750169508
891,691.5710461402309
892,691.5300839969905
893,691.4885378310407
894,691.4464565194553
895,691.4038885543808
896,691.3608820363352
897,691.3174846764845
898,691.2737438028647
899,691.2297063636738
900,691.1854189202904
901,691.140927623522
902,691.0962781682504
903,691.051515723426
904,691.006684835642
905,690.9618293052573
906,690.9169920346303
907,690.8722148488604
908,690.8275382906909
909,690.7830013930602
910,690.7386414350099
911,690.6944936884313
912,690.6505911635871
913,690.6069643604018
914,690.5636410309328
915,690.5206459570664
916,690.4780007467155
917,690.4357236516998
918,690.3938294110761
