frame_number,force
0,690.136284682442
1,690.1909452455461
2,690.2447203278207
3,690.2967974851454
4,690.3464127170744
5,690.3928617635942
6,690.4355111739209
7,690.4738091359801
8,690.5072957982431
9,690.5356125568604
10,690.5585095792252
11,690.5758508267286
12,690.5876160863353
13,690.5938998909774
14,690.5949075339362
15,690.5909486167822
16,690.5824287324922
17,690.569839950293
18,690.5537506847143
19,690.5347953120405
20,690.5136636450787
21,690.4910901845749
22,690.4678429410268
23,690.4447115326426
24,690.4224942163495
25,690.4019835550877
26,690.3839506115985
27,690.3691278307324
28,690.3581910162593
29,690.3517409923417
30,690.3502857002612
31,690.3542235887409
32,690.3638291295995
33,690.3792411403256
34,690.4004544381543
35,690.4273152568521
36,690.45952077616
37,690.4966229778246
38,690.5380368827502
39,690.5830531165711
40,690.6308546819436
41,690.6805376938858
42,690.731135635147
43,690.7816464905835
44,690.8310619798556
45,690.8783979761106
46,690.9227250001768
47,690.9631974595256
48,690.9990802191983
49,691.0297712490453
50,691.0548194096009
51,691.0739367626167
52,691.0870050561961
53,691.0940762691837
54,691.0953673383725
55,691.0912494405834
56,691.082232451129
57,691.068945421674
58,691.0521140649826
59,691.0325362616377
60,691.0110565244343
61,690.9885402414067
62,690.9658484436213
63,690.9438138151761
64,690.9232186383399
65,690.9047753344361
66,690.8891102262846
67,690.8767510446864
68,690.8681184316495
69,690.8635213022484
70,690.8631556165635
71,690.8671060124339
72,690.8753497890984
73,690.8877627939274
74,690.9041268416171
75,690.9241384249831
76,690.9474186156441
77,690.9735241031459
78,691.0019592367373
79,691.032188757071
80,691.0636507368653
81,691.0957692007122
82,691.1279660141158
83,691.1596718711161
84,691.1903364547784
85,691.2194379772021
86,691.2464922564626
87,691.2710612884714
88,691.2927610544878
89,691.3112682009267
90,691.3263252545703
91,691.3377441215988
92,691.3454077175377
93,691.349269693298
94,691.3493523378289
95,691.3457427788246
96,691.3385875334804
97,691.3280853398262
98,691.3144781369889
99,691.2980401464256
100,691.279065234995
101,691.2578529969837
102,691.234694121117
103,691.2098556055195
104,691.1835664428723
105,691.1560046662402
106,691.1272869761931
107,691.0974622364478
108,691.0665097702505
109,691.0343427738501
110,691.0008165843691
111,690.9657411694249
112,690.9288970057728
113,690.8900533435675
114,690.8489876527452
115,690.8055049311733
116,690.7594556833931
117,690.7107517448555
118,690.6593795096246
119,690.6054103093259
120,690.5490076925521
121,690.4904313336931
122,690.430037380658
123,690.3682752163699
124,690.3056807847423
125,690.2428667763734
126,690.1805100745227
127,690.1193369272554
128,690.0601063409658
129,690.003592191802
130,689.9505645349798
131,689.9017705769601
132,689.8579157841211
133,689.8196456389364
134,689.787528605024
135,689.7620409013745
136,689.7435536875269
137,689.7323232001313
138,689.7284842447918
139,689.7320472542021
140,689.742898919694
141,689.760806232625
142,689.7854236698314
143,689.8163032422768
144,689.8529071539332
145,689.8946227918702
146,689.9407796534688
147,689.9906676799656
148,690.0435563666317
149,690.0987139573442
150,690.1554260216667
151,690.2130128059619
152,690.2708449363978
153,690.3283572298027
154,690.3850604287835
155,690.4405505945043
156,690.4945157499646
157,690.5467393104665
158,690.5970999513404
159,690.6455678048211
160,690.6921971313361
161,690.7371157994827
162,690.7805120519204
163,690.8226191728635
164,690.8636987724636
165,690.9040233850261
166,690.9438589521748
167,690.9834476527033
168,691.0229915485755
169,691.0626376213046
170,691.1024648887555
171,691.1424743611665
172,691.1825825964476
173,691.2226195203087
174,691.2623309564136
175,691.301385990739
176,691.3393889450815
177,691.3758954052796
178,691.4104314521763
179,691.4425149933073
180,691.4716779162322
181,691.4974877102368
182,691.5195672719885
183,691.5376118460654
184,691.5514024078919
185,691.5608151517752
186,691.5658269797563
187,691.5665169884306
188,691.5630640185484
189,691.5557404392708
190,691.5449024548747
191,691.5309772969325
192,691.5144477403933
193,691.4958345467849
194,691.4756776982559
195,691.4545175340924
196,691.4328770025021
197,691.411246110922
198,691.3900692841871
199,691.3697358071478
200,691.3505730288866
201,691.33284173858
202,691.316733172015
203,691.3023674233064
204,691.2897934701705
205,691.2789913631832
206,691.26987719366
207,691.2623111759556
208,691.256108642716
209,691.2510531542324
210,691.2469105007494
211,691.2434422973968
212,691.2404181323787
213,691.2376256386198
214,691.2348781918315
215,691.232020119929
216,691.2289294013633
217,691.2255178925566
218,691.22172916363
219,691.2175340212223
220,691.2129237718203
221,691.2079013148167
222,691.2024703504003
223,691.1966233353312
224,691.1903291954309
225,691.1835220708997
226,691.176092452941
227,691.1678819439092
228,691.1586825442213
229,691.1482408788717
230,691.1362672104748
231,691.1224485565764
232,691.1064648468038
233,691.0880068868247
234,691.0667949126045
235,691.0425966323581
236,691.0152438253839
237,690.984646801096
238,690.9508062708262
239,690.9138223658686
240,690.8739006261579
241,690.8313548371161
242,690.7866066592037
243,690.7401820633659
244,690.6927045977627
245,690.6448854527325
246,690.5975102348907
247,690.551422404626
248,690.5075035152166
249,690.4666506826469
250,690.4297520243705
251,690.3976610148068
252,690.3711707355726
253,690.3509889112421
254,690.3377145793612
255,690.3318172930836
256,690.3336197623928
257,690.343284702557
258,690.3608064350451
259,690.386007564787
260,690.4185408406123
261,690.4578960782343
262,690.5034118234795
263,690.5542912922072
264,690.6096220180526
265,690.6683985198763
266,690.7295471648695
267,690.7919523046909
268,690.8544827445014
269,690.9160176598903
270,690.9754711762704
271,691.0318149487265
272,691.0840982020627
273,691.1314647993119
274,691.1731670449459
275,691.2085761358587
276,691.2371893760811
277,691.2586343497752
278,691.2726702185939
279,691.2791863076104
280,691.278198209892
281,691.2698416865757
282,691.254364619767
283,691.2321172475445
284,691.2035409390633
285,691.1691558492162
286,691.1295478646185
287,691.0853552562404
288,691.037255392869
289,690.9859518027266
290,690.9321618314635
291,690.8766051021969
292,690.8199928989633
293,690.7630184796176
294,690.7063482209338
295,690.6506134585351
296,690.5964029613806
297,690.5442561776184
298,690.4946575927534
299,690.4480325860751
300,690.4047449911992
301,690.3650962563606
302,690.3293258371623
303,690.2976123756617
304,690.270075326346
305,690.2467768526011
306,690.2277239194519
307,690.2128705687637
308,690.2021204639633
309,690.1953299179241
310,690.1923116520366
311,690.1928394054141
312,690.1966532918958
313,690.2034656208838
314,690.2129668261745
315,690.2248311923422
316,690.2387222127524
317,690.2542975982548
318,690.2712140967265
319,690.2891323196534
320,690.3077216820777
321,690.3266653779999
322,690.3456651253766
323,690.3644453235079
324,690.3827563068617
325,690.4003765139689
326,690.4171135650564
327,690.4328044199214
328,690.4473148995153
329,690.460538820152
330,690.4723968407544
331,690.4828350190202
332,690.4918231219543
333,690.4993528960739
334,690.5054366457072
335,690.5101064685914
336,690.513414294097
337,690.5154325376113
338,690.5162548960315
339,690.515996665685
340,690.514793950611
341,690.512801213094
342,690.5101868051635
343,690.5071264273206
344,690.5037948750012
345,690.5003568657122
346,690.4969580320573
347,690.4937171722266
348,690.4907205429748
349,690.4880185100145
350,690.4856244853429
351,690.483515912213
352,690.4816370150189
353,690.4799029792633
354,690.4782051852081
355,690.4764171686068
356,690.4744010866643
357,690.4720145279593
358,690.4691175144715
359,690.4655795577883
360,690.4612866491344
361,690.4561480466983
362,690.4501026834728
363,690.4431249960086
364,690.4352299914061
365,690.4264774212013
366,690.4169749739605
367,690.4068803701156
368,690.3964021378821
369,690.3857987477659
370,690.3753757694399
371,690.3654808105839
372,690.3564961733272
373,690.3488293743931
374,690.3429018799604
375,690.339136576872
376,690.3379446059943
377,690.3397121856102
378,690.3447879551431
379,690.3534712364601
380,690.3660015140688
381,690.3825493915078
382,690.4032092504349
383,690.4279937807262
384,690.4568304623822
385,690.4895600064264
386,690.5259367525599
387,690.5656310778606
388,690.608233944104
389,690.6532637510545
390,690.7001756359072
391,690.7483732309928
392,690.7972226506843
393,690.8460681777815
394,690.8942488605502
395,690.9411150856016
396,690.9860441627495
397,691.028454033172
398,691.0678144184711
399,691.1036550933943
400,691.1355714357203
401,691.1632278435895
402,691.1863598630332
403,691.2047758509143
404,691.2183587328204
405,691.2270680302868
406,691.2309419835411
407,691.2300993565054
408,691.2247403657346
409,691.2151461373371
410,691.2016762228428
411,691.1847639762233
412,691.1649098799954
413,691.1426730808672
414,691.1186614084152
415,691.0935200395242
416,691.0679188438764
417,691.0425384351864
418,691.0180551092972
419,690.9951250668798
420,690.9743684289909
421,690.956353529942
422,690.9415819476455
423,690.930474797929
424,690.923360908682
425,690.9204674980257
426,690.9219138778545
427,690.927708515325
428,690.9377495836384
429,690.9518290175448
430,690.96964005686
431,690.9907881720649
432,691.0148050096676
433,691.0411646477525
434,691.0693011977352
435,691.0986267152407
436,691.1285484231765
437,691.1584843292645
438,691.1878764853046
439,691.2162014608755
440,691.2429780502891
441,691.2677726770828
442,691.2902032991498
443,691.3099427577461
444,691.3267223716159
445,691.340336165183
446,691.3506455926221
447,691.3575841764924
448,691.3611612327331
449,691.3614638116661
450,691.3586561153136
451,691.3529759180424
452,691.3447278502932
453,691.334273687239
454,691.3220199252136
455,691.3084029446237
456,691.2938720639895
457,691.2788709196155
458,691.2638178930098
459,691.2490866308333
460,691.2349878867063
461,691.2217538871103
462,691.2095262373834
463,691.198348139353
464,691.1881614543735
465,691.1788089087717
466,691.1700414561058
467,691.1615304579506
468,691.1528839719925
469,691.1436661590442
470,691.1334187312141
471,691.1216834376481
472,691.1080247081059
473,691.092051660532
474,691.073438716958
475,691.0519440839587
476,691.0274253532332
477,690.9998514829987
478,690.9693104690497
479,690.9360121489843
480,690.9002858189311
481,690.8625726367345
482,690.8234130752246
483,690.783429958857
484,690.7433078693573
485,690.7037698716346
486,690.6655525135774
487,690.6293799591353
488,690.595938089967
489,690.5658495258008
490,690.5396506601959
491,690.5177718277552
492,690.5005215708716
493,690.4880757422043
494,690.4804719232818
495,690.4776093393612
496,690.4792540951995
497,690.4850491985426
498,690.4945285464065
499,690.5071338564723
500,690.5222334380246
501,690.5391417310711
502,690.5571387242873
503,690.5754886638637
504,690.5934577588349
505,690.6103307269115
506,690.62542600352
507,690.6381094128873
508,690.6478062009277
509,690.6540115045802
510,690.6562994290964
511,690.6543308403847
512,690.6478598018524
513,690.6367384045361
514,690.6209196430929
515,690.6004580079407
516,690.5755075625798
517,690.5463173924403
518,690.5132244210805
519,690.4766437228205
520,690.4370566494493
521,690.3949972972894
522,690.3510379820634
523,690.3057744096418
524,690.2598111554008
525,690.2137479458681
526,690.1681671078062
527,690.1236224247775
528,690.0806295067022
529,690.0396576180397
530,690.001122757243
531,689.9653817124454
532,689.932726883464
533,689.9033818054857
534,689.8774974340876
535,689.8551493342278
536,689.836336013365
537,689.8209787392802
538,689.8089231854643
539,689.7999431156993
540,689.7937461602318
541,689.7899816641171
542,689.7882505839939
543,689.7881173583229
544,689.789123515453
545,689.7908025581349
546,689.792695464157
547,689.7943660336358
548,689.7954153042272
549,689.7954943341138
550,689.794314797188
551,689.7916569883777
552,689.7873749427831
553,689.7813984480179
554,689.7737318327958
555,689.7644495537537
556,689.7536887536044
557,689.7416391251129
558,689.7285305745031
559,689.7146193159823
560,689.7001731731132
561,689.6854570207892
562,689.6707193727082
563,689.6561809855558
564,689.6420260362312
565,689.628396083899
566,689.6153867732639
567,689.6030470605555
568,689.5913805857176
569,689.5803486761354
570,689.5698744194956
571,689.5598473156895
572,689.5501281531663
573,689.5405539011618
574,689.5309425868668
575,689.5210983600437
576,689.510817173942
577,689.4998935969662
578,689.488129109161
579,689.4753418657143
580,689.4613775103575
581,689.4461203817632
582,689.4295044273484
583,689.4115232564333
584,689.3922389291383
585,689.3717891785591
586,689.3503927067638
587,689.3283519987066
588,689.3060529297358
589,689.2839604691844
590,689.262610024578
591,689.2425943521948
592,689.2245464123566
593,689.2091189999408
594,689.1969623235336
595,689.1887008486792
596,689.184910652499
597,689.1860983332735
598,689.19268229303
599,689.2049770449806
600,689.2231810884432
601,689.2473688006061
602,689.2774867060185
603,689.3133543772559
604,689.354670019476
605,689.4010204777096
606,689.4518950747066
607,689.506702431423
608,689.5647892542297
609,689.6254600114943
610,689.687996517469
611,689.7516766659697
612,689.815791801671
613,689.8796624173519
614,689.942652008383
615,690.0041789680213
616,690.0637263610137
617,690.1208493534999
618,690.1751801016691
619,690.22643002201
620,690.2743895383489
621,690.3189255810507
622,690.3599772462906
623,690.3975500467095
624,690.4317091061027
625,690.462571584611
626,690.4902986878192
627,690.5150877788807
628,690.537165188331
629,690.5567801645954
630,690.5742000920936
631,690.589706794128
632,690.6035935626722
633,690.6161625663503
634,690.627722444055
635,690.6385860568861
636,690.6490684023379
637,690.6594845892672
638,690.670147663159
639,690.6813660722694
640,690.6934406544177
641,690.7066610927036
642,690.7213017887564
643,690.737617103943
644,690.7558359962101
645,690.7761561999135
646,690.7987381705972
647,690.8236990104289
648,690.8511065150163
649,690.8809733719135
650,690.91325149303
651,690.9478266040916
652,690.9845135443738
653,691.023053075513
654,691.0631111537505
655,691.1042814910383
656,691.1460918629191
657,691.1880141620725
658,691.229477818914
659,691.2698860113475
660,691.3086340162047
661,691.34512897095
662,691.3788101355196
663,691.4091685667499
664,691.4357651354798
665,691.4582461088198
666,691.4763559358587
667,691.4899471683767
668,691.4989875271218
669,691.5035640967151
670,691.5038846137528
671,691.500275799581
672,691.4931786450428
673,691.483140510517
674,691.4708039229906
675,691.4568920517088
676,691.4421910001428
677,691.4275292303049
678,691.413754597978
679,691.401709587898
680,691.3922054077859
681,691.3859957025652
682,691.3837508286219
683,691.386033813865
684,691.3932792005031
685,691.4057758716095
686,691.4236547543206
687,691.446882052707
688,691.4752584054736
689,691.5084240488342
690,691.5458696916095
691,691.5869524437667
692,691.6309158561188
693,691.6769129625598
694,691.7240311827243
695,691.7713180504418
696,691.8178069358546
697,691.8625421304085
698,691.9046027962394
699,691.9431253240858
700,691.9773235920411
701,692.0065065301316
702,692.0300924226633
703,692.0476196048718
704,692.0587535103458
705,692.0632902163229
706,692.0611566881432
707,692.0524079490679
708,692.0372214724441
709,692.0158891930736
710,691.9888076030325
711,691.9564663730363
712,691.91943579509
713,691.8783531320194
714,691.8339078336842
715,691.7868256694198
716,691.737852095294
717,691.6877354207178
718,691.6372104037497
719,691.5869828463161
720,691.5377157171258
721,691.4900172821613
722,691.4444315558002
723,691.4014311071887
724,691.3614119992379
725,691.324690519172
726,691.291501415792
727,691.261997534753
728,691.2362509240014
729,691.2142555841436
730,691.1959320550534
731,691.1811339660313
732,691.1696565230542
733,691.1612466847063
734,691.1556145415269
735,691.152445204487
736,691.1514103696019
737,691.1521787166582
738,691.1544244498446
739,691.1578335647772
740,691.1621077658073
741,691.1669662712333
742,691.1721459266078
743,691.1774000536375
744,691.1824963752313
745,691.1872143192018
746,691.1913420858253
747,691.1946740074663
748,691.1970088128572
749,691.1981493634186
750,691.19790425009
751,691.1960913677245
752,691.1925433036706
753,691.1871141712896
754,691.1796874027506
755,691.1701839303512
756,691.1585700613891
757,691.1448641824692
758,691.1291413219503
759,691.1115347216271
760,691.0922339835528
761,691.0714799016515
762,691.0495564950463
763,691.0267809326205
764,691.0034920960634
765,690.9800385851248
766,690.9567669845859
767,690.9340110973732
768,690.9120826053023
769,690.891263354617
770,690.8717992930954
771,690.8538960342366
772,690.8377160309252
773,690.8233773487522
774,690.8109540100088
775,690.8004777965227
776,690.7919412425837
777,690.7853013995718
778,690.7804839306012
779,690.777387222232
780,690.775886387455
781,690.7758371854719
782,690.7770799976039
783,690.7794441023959
784,690.7827525397676
785,690.7868277599324
786,690.7914980119256
787,690.7966041246723
788,690.8020060790535
789,690.8075886543385
790,690.8132655111039
791,690.8189813240143
792,690.8247118962022
793,690.8304624539678
794,690.8362644902485
795,690.8421716057396
796,690.848254778492
797,690.8545973801688
798,690.8612901336553
799,690.8684261690935
800,690.8760963736244
801,690.8843852546953
802,690.8933675107121
803,690.9031054696808
804,690.9136475461933
805,690.9250278503107
806,690.9372670191781
807,690.9503742249361
808,690.9643501611722
809,690.9791906685056
810,690.9948905883118
811,691.0114474729959
812,691.0288648987474
813,691.0471552317401
814,691.0663417384973
815,691.0864599217497
816,691.1075579372601
817,691.1296959450223
818,691.1529443206231
819,691.1773808023472
820,691.2030868070486
821,691.2301432360275
822,691.2586260902889
823,691.2886021531573
824,691.3201249238895
825,691.3532309363469
826,691.3879365816716
827,691.4242355480856
828,691.4620969568795
829,691.5014641917718
830,691.5422543028063
831,691.5843577658071
832,691.627638354127
833,691.6719329610031
834,691.7170513954675
835,691.7627764155407
836,691.8088644284752
837,691.8550472368846
838,691.9010349563665
839,691.9465199576832
840,691.9911815617478
841,692.0346912486967
842,692.0767182232958
843,692.1169352094253
844,692.1550243274924
845,692.1906829208706
846,692.2236292972717
847,692.2536084745873
848,692.2803980264032
849,692.3038139609275
850,692.3237163463933
851,692.3400142360448
852,692.3526693634195
853,692.3616980650647
854,692.3671709875453
855,692.3692103723848
856,692.3679850150673
857,692.3637032458239
858,692.3566044021023
859,692.3469492585799
860,692.3350098348272
861,692.3210590123849
862,692.3053604881704
863,692.2881597053308
864,692.2696764375854
865,692.250099600171
866,692.229584635254
867,692.2082535314873
868,692.1861972522041
869,692.1634801395267
870,692.1401457893645
871,692.1162239211488
872,692.091737780215
873,692.0667115314252
874,692.041176973125
875,692.0151788463185
876,691.9887781323935
877,691.9620530028435
878,691.9350973899662
879,691.9080174036253
880,691.88092602406
881,691.853936647308
882,691.8271560928854
883,691.8006775835153
884,691.7745740384412
885,691.7488918664422
886,691.7236453415069
887,691.6988116118373
888,691.6743264417521
889,691.6500808877028
890,691.6259191987721
891,691.6016382559213
892,691.5769888290182
893,691.5516789009044
894,691.5253793282504
895,691.4977321154686
896,691.4683614361041
897,691.4368871961987
898,691.4029405118636
899,691.3661801526324
900,691.3263088892234
901,691.2830887716242
902,691.2363545748881
903,691.1860248763104
904,691.1321103754622
905,691.0747191300417
906,691.0140584219238
907,690.9504330477639
908,690.8842399779851
909,690.8159595718979
910,690.7461438461521
911,690.6754025412814
912,690.604387780923
913,690.5337779601131
914,690.4642612508837
915,690.3965189077388
916,690.3312084544386
917,690.2689468451883
