acceleration,velocity,displacement
-0.00860075967013197,0.0,0.0
-0.00848055767117672,-4.270329335327172e-06,-1.067582333831793e-09
-0.008356836383682033,-8.479677849041862e-06,-4.255084129924052e-09
-0.008229698014053547,-1.2626311448475758e-05,-9.531581454303457e-09
-0.008099251640194231,-1.67085488620377e-05,-1.686529653193182e-08
-0.007965610809781908,-2.0724764474531737e-05,-2.622362486607418e-08
-0.007828891138756617,-2.4673389961666368e-05,-3.757316347512371e-08
-0.007689207946587025,-2.855291473300228e-05,-5.087973964879087e-08
-0.0075466739739549985,-3.236188521313779e-05,-6.610843963532589e-08
-0.007401397236994458,-3.609890301587515e-05,-8.322363669257913e-08
-0.0072534790778308105,-3.9762622094581465e-05,-1.0218901797019328e-07
-0.007103012468209612,-4.335174498109157e-05,-1.2296760973911153e-07
-0.00695008060878614,-4.686501825034051e-05,-1.4552180054696955e-07
-0.006794755847049665,-5.030122736429946e-05,-1.6981336195062955e-07
-0.006637098918896916,-5.36591910557861e-05,-1.9580346655565093e-07
-0.006477158504670082,-5.693775541167785e-05,-2.234527031725169e-07
-0.0063149710792800295,-6.013578780766538e-05,-2.527210889773527e-07
-0.006150561029056073,-6.32521708347494e-05,-2.8356807863795637e-07
-0.005983941007424457,-6.628579634386954e-05,-3.159525704326111e-07
-0.005815112506838912,-6.923555972243539e-05,-3.498329094491873e-07
-0.005644066631582341,-7.21003545070407e-05,-3.8516688800655634e-07
-0.005470785060934341,-7.487906743016987e-05,-4.21911743490859e-07
-0.0052952411947307316,-7.757057399408614e-05,-4.6002415384692303e-07
-0.005117401474791075,-8.01737346614666e-05,-4.994602310108112e-07
-0.004937226876006571,-8.268739174916601e-05,-5.401755126134694e-07
-0.0047546745576776475,-8.511036710758706e-05,-5.821249523276576e-07
-0.004569699657187201,-8.744146066130327e-05,-6.252629092698803e-07
-0.004382257196469701,-8.96794498747175e-05,-6.695431369038855e-07
-0.004192304061893025,-9.182309018930818e-05,-7.149187719198919e-07
-0.003999801011356863,-9.387111645762064e-05,-7.613423235816241e-07
-0.0038047146570612087,-9.582224537472516e-05,-8.087656640397105e-07
-0.0036070193697232914,-9.767517888142127e-05,-8.571400201037472e-07
-0.003406699053403609,-9.9428608487203e-05,-9.064159669459032e-07
-0.003203748749031282,-0.00010108122043781173,-9.56543424177157e-07
-0.0029981760341022097,-0.0001026317016335951,-1.0074716546950087e-06
-0.002790002192944686,-0.00010407874619035682,-1.0591492666509966e-06
-0.002579263138408209,-0.00010542106252319504,-1.1115242188293846e-06
-0.002366010074575133,-0.00010665738082644088,-1.1645438296667935e-06
-0.002150309899708921,-0.00010778646082001188,-1.2181547900784068e-06
-0.0019322453559145955,-0.00010880709963391776,-1.2723031801918891e-06
-0.0017119149373243908,-0.00010971813970722751,-1.3269344900271755e-06
-0.0014894325758866885,-0.00011051847658553028,-1.381993644100365e-06
-0.0012649271339460518,-0.00011120706651298846,-1.4374250298749946e-06
-0.0010385417423953104,-0.00011178293373207379,-1.4931725299362602e-06
-0.0008104330298096124,-0.00011224517742512503,-1.54917955772556e-06
-0.000580770293748901,-0.00011259297825601466,-1.6053890966458448e-06
-0.00034973467343914005,-0.00011282560449781166,-1.6617437423343014e-06
-0.00011751839148946882,-0.00011294241776404381,-1.7181857478997654e-06
0.00011567586562941414,-0.00011294287839550883,-1.7746570719396536e-06
0.0003496353670639592,-0.00011282655058733548,-1.8310994291853648e-06
0.0005841375115180819,-0.00011259310736768997,-1.8874543436741211e-06
0.0008189497264608046,-0.00011224233555819524,-1.9436632044055925e-06
0.0010538290775092512,-0.00011177414085720274,-1.999667323509442e-06
0.0012885215860415705,-0.00011118855319131503,-2.0554079970215713e-06
0.001522761266445947,-0.00011048573247819315,-2.1108265684389486e-06
0.0017562689082784612,-0.00010966597493451206,-2.1658644952921247e-06
0.0019887506424578504,-0.00010872972004682798,-2.2204634190374597e-06
0.0022198963431227623,-0.00010767755830043283,-2.274565238624275e-06
0.0024493779257922367,-0.00010651023973320408,-2.328112188132684e-06
0.002676847606241531,-0.00010522868335019565,-2.3810469189035337e-06
0.0029019361833736625,-0.00010383398740279185,-2.4333125865917806e-06
0.0031242514062527617,-0.00010232744050538525,-2.4848529435688248e-06
0.003343376483547328,-0.00010071053353293523,-2.535612437078405e-06
0.003558868793111654,-9.898497221377048e-05,-2.585536313515081e-06
0.003770258848506951,-9.715269030336583e-05,-2.634570729144365e-06
0.00397704957738451,-9.521586319689297e-05,-2.6826628675194297e-06
0.004178715964142715,-9.317692181151116e-05,-2.7297610637715305e-06
0.004374705103209074,-9.103856654467321e-05,-2.775814935860577e-06
0.0045644366957127164,-8.880378109494276e-05,-2.8207755227704807e-06
0.004747304003066869,-8.647584592024787e-05,-2.8645954295242786e-06
0.00492267525470056,-8.405835110580601e-05,-2.907228978780792e-06
0.005089895499282516,-8.155520841731024e-05,-2.9486323686615714e-06
0.005248288886549011,-7.897066232085236e-05,-2.9887638363461122e-06
0.005397161365200685,-7.630929975791493e-05,-3.027583826865804e-06
0.005535803781187082,-7.357605847131799e-05,-3.0650551664231123e-06
0.005663495361635647,-7.07762336856123e-05,-3.101143239462345e-06
0.005779507570965454,-6.791548295246203e-05,-3.1358161686218635e-06
0.005883108323267056,-6.49998289789039e-05,-3.169044996604705e-06
0.005973566527030256,-6.203566026632958e-05,-3.2008038689160136e-06
0.006050156926503084,-5.9029729402946246e-05,-3.2310702163333327e-06
0.006112165192840047,-5.598914887311046e-05,-3.2598249359023468e-06
0.006158893212308138,-5.292138427182342e-05,-3.28705256918858e-06
0.006189664520530456,-4.983424483861377e-05,-3.3127414764661893e-06
0.006203829838754019,-4.673587124879265e-05,-3.336884005488041e-06
0.006200772675898741,-4.363472062012946e-05,-3.3594766534552714e-06
0.006179914963546255,-4.0539548710268214e-05,-3.380520220787871e-06
0.0061407226872412955,-3.745938929757133e-05,-3.4000199552898307e-06
0.0060827114678949695,-3.440353075878726e-05,-3.4179856853039203e-06
0.006005452037113154,-3.138148988253523e-05,-3.434431940464251e-06
0.005908575545655916,-2.8402982986842962e-05,-3.4493780586815958e-06
0.005791778645578682,-2.5477894439034313e-05,-3.462848278038065e-06
0.005654828290863231,-2.2616242704923835e-05,-3.4748718123240547e-06
0.005497566206606493,-1.9828144080556402e-05,-3.4854829090204246e-06
0.005319912983323636,-1.712377428307387e-05,-3.494720888611332e-06
0.0051218717596380955,-1.4513328097333437e-05,-3.502630164206434e-06
0.00490353146057532,-1.2006977292280083e-05,-3.5092602405538374e-06
0.004665069558207193,-9.614827037584455e-06,-3.5146656916363036e-06
0.004406754319070896,-7.346871068264933e-06,-3.518906116162766e-06
0.00412894650309271,-5.212945862724031e-06,-3.522046070395513e-06
0.003832100485450506,-3.2226841155882273e-06,-3.524154977890091e-06
0.0035167647858099058,-1.3854677977731243e-06,-3.5253070158684316e-06
0.003183582003637712,2.896188995887802e-07,-3.5255809780929775e-06
0.0028332881672919574,1.7938364423211976e-06,-3.5250601142575e-06
0.002466711508062261,3.1188363611597523e-06,-3.5238319460566298e-06
0.002084770676527229,4.256706907307125e-06,-3.521988060239513e-06
0.0016884724336424235,5.200017684849538e-06,-3.519623879091474e-06
0.00127890886666851,5.941863009927271e-06,-3.51683840891778e-06
0.0008572541865925975,6.475903773242548e-06,-3.5137339672219874e-06
0.00042476115250274454,6.796407608016384e-06,-3.510415889376673e-06
-1.724285385228942e-05,6.898287182678998e-06,-3.506992215678999e-06
-0.0004673601007510583,6.777136444028161e-06,-3.503573359772322e-06
-0.0009241271357441833,6.429264634904351e-06,-3.5002717595025886e-06
-0.0013860197853886383,5.851727904621145e-06,-3.4972015113677074e-06
-0.0018514585429497124,5.042358322536558e-06,-3.494477989810918e-06
-0.002318814366200052,3.999790095249117e-06,-3.4922174527064716e-06
-0.002786414908764203,2.7234827765080534e-06,-3.490536634488532e-06
-0.0032525511994128667,1.213741249463786e-06,-3.489552328482039e-06
-0.0037154847647460146,-5.282677415759342e-07,-3.489380960105067e-06
-0.004173455171193269,-2.500502725560755e-06,-3.4901381527218514e-06
-0.004624687951065279,-4.700038506125393e-06,-3.4919382880297727e-06
-0.005067402874356254,-7.123061212480776e-06,-3.494894062959424e-06
-0.005499822526160568,-9.764867562609982e-06,-3.4991160451531967e-06
-0.005920181143746202,-1.2619868480086674e-05,-3.5047122291638707e-06
-0.006326733658299763,-1.5681597180598166e-05,-3.511787595579042e-06
-0.006717764877299039,-1.8942721814497868e-05,-3.520443675327816e-06
-0.007091598736128134,-2.239506271785466e-05,-3.5307781214609044e-06
-0.007446607542417854,-2.602961428749116e-05,-3.5428842907122408e-06
-0.007781221133600776,-2.9836571456495816e-05,-3.5568508371482376e-06
-0.008093935867308368,-3.38053607067231e-05,-3.5727613201890423e-06
-0.008383323365104414,-3.79246755148263e-05,-3.5906938292444297e-06
-0.008648038932209235,-4.218251608915471e-05,-3.610720627145425e-06
-0.008886829578645995,-4.656623321686852e-05,-3.632907814471931e-06
-0.009098541569537776,-5.106257600391447e-05,-3.657315016777127e-06
-0.00928212743393576,-5.5657743254782854e-05,-3.6839950965918014e-06
-0.009436652363211943,-6.033743820406978e-05,-3.7129938919565147e-06
-0.009561299932679885,-6.508692627804273e-05,-3.7443499830770428e-06
-0.009655377084792074,-6.989109553241072e-05,-3.7780944885296563e-06
-0.009718318319948991,-7.473451938359598e-05,-3.814250892258658e-06
-0.009749689052175397,-7.960152122662707e-05,-3.852834902411214e-06
-0.00974918810080701,-8.447624051487268e-05,-3.893854342846589e-06
-0.009716649303786568,-8.934269986602107e-05,-3.937309077941813e-06
-0.009652042251452097,-9.418487275483073e-05,-3.983190971097026e-06
-0.00955547215001977,-9.89867513551987e-05,-4.0314838771245335e-06
-0.00942717883053951,-0.00010373241410033852,-4.082163668488417e-06
-0.009267534923830192,-0.00010840609253893095,-4.135198295148235e-06
-0.009077043228601324,-0.00011299223707703883,-4.190547877552227e-06
-0.008856333310215073,-0.00011747558121174293,-4.248164832124423e-06
-0.008606157378306112,-0.00012184120388387322,-4.307994028398327e-06
-0.008327385500309422,-0.0001260745896035271,-4.3699729767701765e-06
-0.00802100021476577,-0.00013016168603229592,-4.434032045679132e-06
-0.007688090612388102,-0.0001340889587390844,-4.500094706871977e-06
-0.0073298459521311515,-0.0001378434428802142,-4.568077807276801e-06
-0.006947548874357996,-0.0001414127915868365,-4.6378918658935636e-06
-0.006542568267787265,-0.0001447853208723728,-4.7094413940083655e-06
-0.006116351846061938,-0.0001479500509008351,-4.782625236951667e-06
-0.0056704184943592905,-0.0001508967434859404,-4.857336935548361e-06
-0.005206350453096974,-0.00015361593572280446,-4.933465105350547e-06
-0.004725785408342675,-0.00015609896968816437,-5.01089383170329e-06
-0.00423040855352352,-0.0001583380181786309,-5.089503078669988e-06
-0.0037219446762128817,-0.000160326106486065,-5.169169109836162e-06
-0.0032021503121659146,-0.0001620571302331597,-5.249764919015969e-06
-0.002672805999537179,-0.00016352586931108547,-5.33116066890203e-06
-0.002135708658685499,-0.00016472799797564113,-5.413224135723712e-06
-0.001592664115459124,-0.00016566009116917728,-5.495821158009916e-06
-0.0010454797798097023,-0.0001663196271429945,-5.578816087587959e-06
-0.0004959574903759899,-0.0001667049864605409,-5.662072240988843e-06
5.4113461062219316e-05,-0.00016681544746786935,-5.745452349470945e-06
0.0006029631089280535,-0.00016665117832537178,-5.8288190059192554e-06
0.0011488473830905308,-0.00016621322570236713,-5.91203510692619e-06
0.0016900544608028122,-0.0001655035002413938,-5.994964288412131e-06
0.0022249109012227298,-0.00016452475890088743,-6.077471353197701e-06
0.002751787567593062,-0.00016328058428368347,-6.159422688993844e-06
0.00326910534444996,-0.0001617753610556727,-6.240686675328683e-06
0.0037753406555989214,-0.0001600142495556605,-6.3211340779815166e-06
0.0042690307815958116,-0.00015800315669636182,-6.4006384295445225e-06
0.0047487789643080435,-0.00015574870425988586,-6.479076394783584e-06
0.005213259273835302,-0.00015325819470035003,-6.556328119523644e-06
0.005661221201675962,-0.0001505395745814722,-6.632277561844099e-06
0.00609149393405765,-0.0001476013957975388,-6.706812804438852e-06
0.006502990251452501,-0.00014445277475116128,-6.779826347076027e-06
0.006894709995560788,-0.00014110334968940794,-6.85121537818617e-06
0.007265743044728582,-0.0001375632364293356,-6.920882024715856e-06
0.00761527174458362,-0.00013384298273200754,-6.988733579506192e-06
0.007942572753495582,-0.00012995352160748773,-7.054682705591065e-06
0.008247018280521483,-0.00012590612384898346,-7.118647616955183e-06
0.00852807671136899,-0.00012171235010101085,-7.180552235442681e-06
0.008785312630682423,-0.000117384002765498,-7.240326323659308e-06
0.00901838625603081,-0.00011293307804381968,-7.297905593861638e-06
0.009227052304522995,-0.00010837171840368123,-7.353231792973513e-06
0.00941115832000257,-0.00010371216574754984,-7.4062527640113205e-06
0.009570642496008176,-9.896671554354716e-05,-7.456922484334095e-06
0.00970553103490425,-9.414767216081905e-05,-7.505201081260186e-06
0.00981593508856311,-8.926730562995221e-05,-7.551054825707879e-06
0.009902047334390532,-8.43378100242138e-05,-7.5944561046214205e-06
0.009964138252613256,-7.937126362746286e-05,-7.63538337303434e-06
0.010002552181964091,-7.437959101881852e-05,-7.673821086695911e-06
0.010017703235577357,-6.937452716443316e-05,-7.709759616241724e-06
0.010010071153389253,-6.436758356719151e-05,-7.74319514392463e-06
0.00998019715115591,-5.9370016491055214e-05,-7.774129543939192e-06
0.009928679802997331,-5.4392797252516904e-05,-7.802570247375085e-06
0.009856170972078077,-4.944658455874805e-05,-7.828530092827901e-06
0.009763371791399168,-4.454169886787874e-05,-7.852027163684558e-06
0.009651028696930793,-3.968809874579625e-05,-7.873084613087977e-06
0.00951992952666019,-3.4895359189898504e-05,-7.8917304775719e-06
0.009370899715255922,-3.0172651879419478e-05,-7.90799748033923e-06
0.009204798626016164,-2.5528727294101456e-05,-7.92192282513261e-06
0.009022516062023665,-2.09718986220915e-05,-7.93354798161166e-06
0.008824968983974201,-1.6510027360592032e-05,-7.94291846310733e-06
0.008613098436872593,-1.2150510505380333e-05,-7.950083597573823e-06
0.008387866659887583,-7.900269231190289e-06,-7.955096292507966e-06
0.008150254333263092,-3.76573898290262e-06,-7.958012794561489e-06
0.007901257910335725,2.4713907799708474e-07,-7.958892444537716e-06
0.007641886991402328,4.132925303431599e-06,-7.957797428442359e-06
0.007373161711287837,7.88668747910414e-06,-7.954792525246725e-06
0.007096110124526965,1.1504005438057841e-05,-7.949944852017435e-06
0.006811765577988615,1.4980974363686737e-05,-7.943323607066999e-06
0.006521164063153252,1.8314206773972203e-05,-7.934999811782584e-06
0.00622534154162737,2.1500833175167358e-05,-7.9250460517953e-06
0.005925331238126594,2.453850137010585e-05,-7.913536218158982e-06
0.005622160894351703,2.7425374403225426e-05,-7.90054524921565e-06
0.005316849975694984,3.0160127120737096e-05,-7.886148873834659e-06
0.005010406824005856,3.2741941320662304e-05,-7.870423356724309e-06
0.004703825757999548,3.5170499466163656e-05,-7.853445246527602e-06
0.004398084137916794,3.744597694014274e-05,-7.835291127426025e-06
0.004094139427584249,3.9569032831518e-05,-7.81603737498311e-06
0.0037929262991579886,4.154079926320356e-05,-7.795759916959429e-06
0.003495353830425634,4.336286929559947e-05,-7.774533999819729e-06
0.0032023028406146163,4.503728346335953e-05,-7.752433961629989e-06
0.0029146233984229716,4.656651502311893e-05,-7.729533012008369e-06
0.002633132517080497,4.795345400199479e-05,-7.70590301975209e-06
0.002358612029422204,4.9201390138620464e-05,-7.681614308716936e-06
0.002091806615878592,5.0313994799945664e-05,-7.656735462482295e-06
0.0018334219445724123,5.1295301940058415e-05,-7.631333138297293e-06
0.0015841228781588326,5.214968814574123e-05,-7.605471890775843e-06
0.0013445317054104247,5.288185179163354e-05,-7.579214005791499e-06
0.001115226363131541,5.349679130876904e-05,-7.552619345016398e-06
0.0008967386240350282,5.399978255556068e-05,-7.525745201550316e-06
0.0006895522388231626,5.439635527127523e-05,-7.498646167093607e-06
0.0004941010339807211,5.46922685894762e-05,-7.4713740111284195e-06
0.0003107669769527252,5.489348559220956e-05,-7.443977572582998e-06
0.0001398782266031549,5.500614689309853e-05,-7.4165026644616715e-06
-1.829280879488233e-05,5.50365432475506e-05,-7.388991991926509e-06
-0.0001635313791648378,5.499108720056067e-05,-7.3614850843144816e-06
-0.0002956822346465805,5.487628379710782e-05,-7.334018241565064e-06
-0.0004146513693602152,5.469870039610612e-05,-7.3066244955167605e-06
-0.0005204076362165144,5.4464935644711935e-05,-7.279333586506556e-06
-0.0006129842044934679,5.418158768453444e-05,-7.252171955674244e-06
-0.0006924798307441124,5.385522167572504e-05,-7.225162753334179e-06
-0.0007590599070751571,5.3492336741270226e-05,-7.19832586372993e-06
-0.000812957240385523,5.309933245440506e-05,-7.171677946431012e-06
-0.0008544725056809047,5.268247501788845e-05,-7.145232494562938e-06
-0.0008839743108475244,5.224786331375634e-05,-7.118999909980027e-06
-0.0009018988127545099,5.1801395032855833e-05,-7.092987595393374e-06
-0.0009087488325572079,5.1348733121527905e-05,-7.067200063354778e-06
-0.0009050924247479254,5.089527280720162e-05,-7.041639061872595e-06
-0.0008915608576778463,5.0446109486595176e-05,-7.016303716299146e-06
-0.0008688459686968411,5.0006007780001505e-05,-6.991190686982497e-06
-0.000837696868893499,4.957937207060392e-05,-6.966294342019846e-06
-0.000798915988021463,4.917021885637518e-05,-6.941606944288101e-06
-0.0007533544659197653,4.878215124288987e-05,-6.917118851763284e-06
-0.0007019069122159144,4.8418335898355954e-05,-6.892818729977973e-06
-0.0006455055718802238,4.808148277733192e-05,-6.868693775309051e-06
-0.0005851139487122462,4.77738278971838e-05,-6.844729947640422e-06
-0.0005217199504271644,4.749711942239895e-05,-6.820912210810527e-06
-0.0004563286285901935,4.725260727764461e-05,-6.797224779135516e-06
-0.0003899545963451081,4.7041036471410784e-05,-6.773651368198252e-06
-0.0003236142165778463,4.6862644268180045e-05,-6.750175448013354e-06
-0.00025831766055198056,4.6717161298897585e-05,-6.726780496621585e-06
-0.00019506094026723494,4.660381664869278e-05,-6.703450252134687e-06
-0.00013481801703182114,4.6521346909368017e-05,-6.680168961245172e-06
-7.853308531993543e-05,4.646800913378008e-05,-6.6569216222343855e-06
-2.7113125557945777e-05,4.644159758106061e-05,-6.633694220555675e-06
1.8579186757090098e-05,4.6439464096360396e-05,-6.61047395513632e-06
5.7732134718896204e-05,4.645854192672939e-05,-6.587249453630547e-06
8.959110427577187e-05,4.649537273647806e-05,-6.5640109749647455e-06
0.00011346415931486457,4.6546136552375714e-05,-6.5407505976425325e-06
0.00012872700079762756,4.660668434240384e-05,-6.517462392418837e-06
0.00013482727161756504,4.667257291050764e-05,-6.494142578105609e-06
0.00013128817343159148,4.673910177176993e-05,-6.47078965943504e-06
0.00011771136791908625,4.6801351657107596e-05,-6.447404546077821e-06
9.377914441413718e-05,4.68542242851909e-05,-6.423990652092246e-06
5.9255844889369195e-05,4.6892483032516774e-05,-6.40055397526282e-06
1.3988543719523842e-05,4.6910794129668996e-05,-6.3771031559722736e-06
-4.209301412168765e-05,4.690376801206845e-05,-6.353649515436839e-06
-0.00010897720417447646,4.686600045749441e-05,-6.330207073319449e-06
-0.00018657201988049688,4.6792113151480666e-05,-6.306792544917205e-06
-0.0002747072430339369,4.667679333575206e-05,-6.283425318295396e-06
-0.0003731372470945081,4.651483221321994e-05,-6.260127411908153e-06
-0.0004815443892617429,4.630116180413088e-05,-6.236923413403816e-06
-0.0005995429440198334,4.6030889970810485e-05,-6.213840400460081e-06
-0.0007266835269794717,4.569933335306066e-05,-6.190907844629113e-06
-0.0008624579547643726,4.53020479826247e-05,-6.168157499295192e-06
-0.001006304485929753,4.4834857372451164e-05,-6.145623272956423e-06
