acceleration,velocity,displacement
-0.008600759684984501,0.0,0.0
-0.008480557686756766,-4.270329342935317e-06,-1.0675823357338293e-09
-0.008356836399826614,-8.479677864581162e-06,-4.255084137612949e-09
-0.00822969803060129,-1.2626311472188137e-05,-9.531581471805274e-09
-0.008099251656982148,-1.6708548894083997e-05,-1.6865296563373307e-08
-0.007965610826645392,-2.0724764514990882e-05,-2.6223624915642027e-08
-0.007828891155529448,-2.4673390010534592e-05,-3.75731635470234e-08
-0.00768920796311105,-2.8552914790194716e-05,-5.087973974720572e-08
-0.007546673990081749,-3.236188527849292e-05,-6.610843976437764e-08
-0.007401397252581921,-3.609890308915884e-05,-8.322363685629058e-08
-0.007253479092751503,-3.9762622175492194e-05,-1.0218901817245334e-07
-0.007103012482348962,-4.335174506926731e-05,-1.2296760998364322e-07
-0.006950080622040876,-4.686501834536477e-05,-1.4552180083730124e-07
-0.006794755859327815,-5.030122746570695e-05,-1.6981336229006916e-07
-0.0066370989301178076,-5.3659191163068355e-05,-1.9580346694726298e-07
-0.006477158514759501,-5.6937755524287684e-05,-2.2345270361910198e-07
-0.006314971088170216,-6.0135787925020117e-05,-2.5272108948142895e-07
-0.006150561036688955,-6.325217095623491e-05,-2.835680792017427e-07
-0.005983941013740349,-6.628579646884223e-05,-3.15952571058012e-07
-0.00581511251178297,-6.923555985022306e-05,-3.498329101377783e-07
-0.005644066635111023,-7.210035463694656e-05,-3.851668887595707e-07
-0.005470785063015407,-7.487906756147817e-05,-4.219117443091769e-07
-0.005295241195341628,-7.757057412606742e-05,-4.600241547310633e-07
-0.005117401473918937,-8.017373479338257e-05,-4.994602319609257e-07
-0.004937226873643376,-8.268739188027315e-05,-5.401755136293397e-07
-0.0047546745538234484,-8.511036723713986e-05,-5.82124953408693e-07
-0.004569699651848508,-8.744146078855784e-05,-6.252629104151174e-07
-0.004382257189662713,-8.967944999893565e-05,-6.695431381119908e-07
-0.004192304053650086,-9.182309030976385e-05,-7.149187731891657e-07
-0.003999801001729691,-9.38711165736088e-05,-7.613423249100088e-07
-0.0038047146461176675,-9.582224548557064e-05,-8.087656654248037e-07
-0.0036070193575425467,-9.76751789864857e-05,-8.571400215428178e-07
-0.003406699040080971,-9.942860858589157e-05,-9.064159684359122e-07
-0.003203748734676592,-0.00010108122052958097,-9.565434257147803e-07
-0.002998176018839838,-0.00010263170171796008,-1.0074716562766657e-06
-0.002790002176916762,-0.00010407874626689923,-1.0591492682728805e-06
-0.002579263121779463,-0.00010542106259157329,-1.1115242204874986e-06
-0.0023660100575312835,-0.00010665738088640097,-1.1645438313569923e-06
-0.0021503098824534436,-0.00010778646087139716,-1.2181547917964418e-06
-0.0019322453386558065,-0.00010880709967667447,-1.2723031819334598e-06
-0.0017119149202673763,-0.00010971813974140526,-1.3269344917879797e-06
-0.0014894325592284597,-0.00011051847661127923,-1.381993645876151e-06
-0.0012649271178739303,-0.00011120706653055482,-1.4374250316616094e-06
-0.0010385417270885422,-0.00011178293374179544,-1.493172531729697e-06
-0.000810433015439368,-0.00011224517742742741,-1.5491795595220027e-06
-0.0005807702804702024,-0.0001125929782514048,-1.6053890984417107e-06
-0.00034973466138278863,-0.00011282560448686805,-1.6617437441262788e-06
-0.00011751838075720125,-0.00011294241774740305,-1.7181857496848467e-06
0.00011567587496169685,-0.00011294287837385193,-1.7746570737151605e-06
0.00034963537494457766,-0.00011282655056137536,-1.8310994309489672e-06
0.0005841375179163494,-0.00011259310733816013,-1.887454345423851e-06
0.0008189497313654133,-0.00011224233552583968,-1.943663206139851e-06
0.0010538290809347299,-0.00011177414082276465,-1.999667325227002e-06
0.0012885215880218265,-0.00011118855315552551,-2.0554079987215745e-06
0.0015227612670294243,-0.0001104857324417627,-2.1108265701208964e-06
0.0017562689075265253,-0.00010966597489812371,-2.165864496955868e-06
0.00198875064044156,-0.00010872972001113168,-2.220463420683182e-06
0.002219896339918026,-0.00010767755826604179,-2.2745652402524754e-06
0.002449377921479814,-0.00010651023970069233,-2.328112189744159e-06
0.0026768476009054174,-0.00010522868332009603,-2.381046920499356e-06
0.002901936177101091,-0.00010383398737559439,-2.4333125881732788e-06
0.003124251399129359,-0.00010232744048153678,-2.4848529451375615e-06
0.0033433764756555023,-0.00010071053351284057,-2.535612438636156e-06
0.0035588687845322063,-9.898497219779365e-05,-2.5855363150638144e-06
0.0037702588393223094,-9.715269029183002e-05,-2.6345707306862204e-06
0.003977049567690027,-9.521586319007694e-05,-2.682662869056697e-06
0.004178715954049901,-9.317692180964195e-05,-2.7297610653066266e-06
0.004374705092847209,-9.103856654791767e-05,-2.7758149373960163e-06
0.004564436685222396,-8.880378110340027e-05,-2.820775524308846e-06
0.0047473039925951584,-8.647584593394589e-05,-2.8645954310681825e-06
0.004922675244392925,-8.405835112469887e-05,-2.9072289803328437e-06
0.005089895489286049,-8.155520844127913e-05,-2.9486323702243383e-06
0.005248288877010822,-7.89706623497049e-05,-2.9887638379220844e-06
0.005397161356259825,-7.630929979138725e-05,-3.0275838284573574e-06
0.005535803772969701,-7.357605850907987e-05,-3.065055168032474e-06
0.005663495354256612,-7.077623372727328e-05,-3.1011432410915625e-06
0.005779507564521888,-6.791548299757866e-05,-3.1358161702727756e-06
0.005883108317841567,-6.49998290269878e-05,-3.1690449982789174e-06
0.005973566522687709,-6.203566031685547e-05,-3.2008038706148783e-06
0.006050156923295445,-5.902972945535968e-05,-3.231070218057932e-06
0.006112165190796694,-5.5989148926836645e-05,-3.259824937653481e-06
0.006158893211435862,-5.292138432627851e-05,-3.2870525709667597e-06
0.006189664520811848,-4.9834244893216584e-05,-3.3127414782716337e-06
0.0062038298401571506,-4.6735871302974336e-05,-3.3368840073206815e-06
0.006200772678382014,-4.363472067333954e-05,-3.35947665531476e-06
0.00617991496705678,-4.0539548761979847e-05,-3.3805202226735898e-06
0.006140722691722967,-3.745938934728491e-05,-3.400019957200906e-06
0.006082711473286848,-3.440353080603246e-05,-3.417985687239235e-06
0.006005452043344625,-3.138148992687459e-05,-3.434431942422462e-06
0.005908575552651528,-2.8402983027875555e-05,-3.4493780606611494e-06
0.005791778653261374,-2.547789447639733e-05,-3.4628482800372177e-06
0.005654828299157564,-2.2616242738292596e-05,-3.47487181434089e-06
0.005497566215438646,-1.9828144109643544e-05,-3.485482911052874e-06
0.005319912992618174,-1.7123774307629338e-05,-3.4947208906571925e-06
0.005121871769319585,-1.45133281171449e-05,-3.502630166263386e-06
0.00490353147056671,-1.2006977307173326e-05,-3.5092602426194653e-06
0.004665069568434657,-9.614827047422985e-06,-3.5146656937081144e-06
0.004406754329470288,-7.346871072946748e-06,-3.5189061182382067e-06
0.004128946513609566,-5.2129458621767845e-06,-3.5220460724719877e-06
0.003832100496036807,-3.2226841097651913e-06,-3.5241549799649733e-06
0.003516764796424079,-1.3854677866499698e-06,-3.525307017939077e-06
0.003183582014251087,2.8961891601882166e-07,-3.5255809801567348e-06
0.0028332881778903784,1.793836464054188e-06,-3.5250601163117167e-06
0.0024667115186444684,3.1188363881879e-06,-3.5238319480986564e-06
0.002084770687111317,4.256706939626846e-06,-3.5219880622667027e-06
0.0016884724442674537,5.200017722471539e-06,-3.519623881101178e-06
0.0012789088773880485,5.941863052885415e-06,-3.516838410907339e-06
0.0008572541974682578,6.475903821599491e-06,-3.5137339691887175e-06
0.0004247611636025707,6.796407661867199e-06,-3.510415891317851e-06
-1.7242842452210228e-05,6.898287242154789e-06,-3.5069922175918453e-06
-0.0004673600889698259,6.77713650929928e-06,-3.503573361653982e-06
-0.0009241271234960861,6.429264706182802e-06,-3.5002717613501115e-06
-0.0013860197725976849,5.8517279821593585e-06,-3.497201513178026e-06
-0.0018514585295544756,5.0423584066213185e-06,-3.494477991580831e-06
-0.002318814352158514,3.999790186193071e-06,-3.4922174544326274e-06
-0.002786414894056985,2.7234828746391962e-06,-3.4905366361674192e-06
-0.003252551184040001,1.2137413551149497e-06,-3.4895523301099805e-06
-0.0037154847487269444,-5.282676280767867e-07,-3.489380961678221e-06
-0.004173455154563621,-2.500502603899428e-06,-3.490138154236215e-06
-0.0046246879338752486,-4.700038376009145e-06,-3.491938289481192e-06
-0.005067402856673835,-7.123061073646416e-06,-3.494894064343606e-06
-0.0054998225080667065,-9.764867414831552e-06,-3.4991160464657255e-06
-0.0059201811253315716,-1.2619868323181122e-05,-3.5047122304002288e-06
-0.006326733639664763,-1.5681597014430207e-05,-3.5117875967346316e-06
-0.006717764858545718,-1.8942721638982826e-05,-3.5204436763979846e-06
-0.007091598717356965,-2.23950625329585e-05,-3.5307781224409698e-06
-0.007446607523727728,-2.602961409322967e-05,-3.542884291597517e-06
-0.007781221115090622,-2.983657125293426e-05,-3.5568508379340576e-06
-0.008093935849086832,-3.380536049397862e-05,-3.5727613208707857e-06
-0.008383323347286633,-3.792467529307199e-05,-3.5906938298175483e-06
-0.008648038914913603,-4.2182515858622044e-05,-3.610720627605472e-06
-0.008886829561992547,-4.656623297784858e-05,-3.6329078148145896e-06
-0.00909854155364819,-5.1062575756758764e-05,-3.6573150169982414e-06
-0.00928212741893335,-5.565774299990415e-05,-3.6839950966874073e-06
-0.009436652349224882,-6.0337437941943704e-05,-3.7129938919228693e-06
-0.00956129991984444,-6.508692600921104e-05,-3.744349982910658e-06
-0.009655377073252602,-6.98910952574853e-05,-3.778094488227332e-06
-0.009718318309849858,-7.473451910326091e-05,-3.8142508918175184e-06
-0.009749689043660978,-7.960152094163862e-05,-3.852834901828743e-06
-0.009749188094010387,-8.447624022605646e-05,-3.8938543421206665e-06
-0.00971664929883114,-8.934269957426684e-05,-3.937309077070747e-06
-0.00965204224845642,-9.418487246108873e-05,-3.983190970079586e-06
-0.009555472149094324,-9.898675106047642e-05,-4.0314838759599775e-06
-0.009427178831788315,-0.00010373241380569708,-4.082163667176521e-06
-0.00926753492734757,-0.00010840609224548105,-4.135198293689316e-06
-0.009077043234475128,-0.00011299223678593672,-4.19054787594717e-06
-0.008856333318521847,-0.00011747558092418596,-4.248164830374701e-06
-0.008606157389109458,-0.00012184120360109379,-4.307994026506021e-06
-0.008327385513663244,-0.00012607458932678697,-4.369972974737991e-06
-0.008021000230709417,-0.00013016168576288013,-4.434032043510408e-06
-0.007688090630941528,-0.00013408895847829286,-4.500094704570702e-06
-0.007329845973299751,-0.0001378434426293532,-4.568077804847613e-06
-0.006947548898127766,-0.00014141279134721006,-4.637891863341754e-06
-0.006542568294128025,-0.000144785320645274,-4.709441391339875e-06
-0.006116351874928947,-0.00014795005068753825,-4.782625234173078e-06
-0.005670418525693243,-0.0001508967432876938,-4.857336932666886e-06
-0.005206350486824002,-0.0001536159355408231,-4.933465102374015e-06
-0.004725785444367886,-0.00015609896952362108,-5.010893828640126e-06
-0.004230408591722922,-0.00015833801803264377,-5.089503075529193e-06
-0.0037219447164366167,-0.00016032610635968364,-5.1691691066272744e-06
-0.003202150354244712,-0.00016205713012735397,-5.249764915749034e-06
-0.0026728060432807403,-0.00016352586922673533,-5.331160665587556e-06
-0.0021357087038776567,-0.00016472799791352494,-5.413224132372621e-06
-0.001592664161861067,-0.00016566009112995963,-5.495821154633492e-06
-0.0010454798271696656,-0.00016631962712721732,-5.578816084197787e-06
-0.0004959575384405544,-0.00016670498646861987,-5.662072237596746e-06
5.411341255458433e-05,-0.00016681544750009135,-5.745452346088924e-06
0.0006029630602437606,-0.00016665117838189178,-5.82881900255942e-06
0.0011488473345008738,-0.00016621322578320562,-5.912035103600694e-06
0.0016900544125823518,-0.0001655035003464348,-5.994964285133104e-06
0.002224910853644448,-0.0001645247590298781,-6.077471349977182e-06
0.0027517875209170616,-0.00016328058443623774,-6.159422685843711e-06
0.0032691052989202328,-0.0001617753612312784,-6.24068667226059e-06
0.0037753406114449627,-0.00016001424975368712,-6.321134075006831e-06
0.0042690307390245465,-0.00015800315691606975,-6.40063842667427e-06
0.004748778923497367,-0.00015574870450043928,-6.479076392028397e-06
0.005213259234930849,-0.00015325819496083223,-6.556328116893715e-06
0.005661221164799176,-0.00015053957486089973,-6.6322775593491474e-06
0.006091493899312244,-0.00014760139609487188,-6.70681280208809e-06
0.006502990218927682,-0.0001444527750653119,-6.779826344878136e-06
0.006894709965324792,-0.00014110335001924878,-6.851215376149276e-06
0.0072657430168270665,-0.00013756323677371082,-6.920882022847515e-06
0.007615271719038043,-0.00013384298308974455,-6.988733577813379e-06
0.007942572730311272,-0.00012995352197740721,-7.054682704080167e-06
0.008247018259686024,-0.0001259061242299079,-7.118647615631995e-06
0.008528076692852217,-0.00012171235049177333,-7.180552234312416e-06
0.008785312614434809,-0.00011738400316495158,-7.240326322726597e-06
0.009018386241981844,-0.00011293307845084742,-7.297905593130547e-06
0.009227052292581188,-0.00010837171881720667,-7.353231792447561e-06
0.009411158310061903,-0.0001037121661665459,-7.4062527636934985e-06
0.00957064248795456,-9.896671596704178e-05,-7.456922484226895e-06
0.009705531028623595,-9.414767258789725e-05,-7.50520108136563e-06
0.009815935083941322,-8.926730605975601e-05,-7.551054826027544e-06
0.009902047331311902,-8.43378104559427e-05,-7.594456105156468e-06
0.009964138250957226,-7.937126406037542e-05,-7.635383373785548e-06
0.010002552181618163,-7.437959145223158e-05,-7.6738210876637e-06
0.0100177032364371,-6.937452759771777e-05,-7.709759617426188e-06
0.010010071155359911,-6.436758399976852e-05,-7.74319514532556e-06
0.009980197154165319,-5.9370016922387214e-05,-7.7741295455561e-06
0.009928679806992685,-5.439279768209771e-05,-7.80257024920722e-06
0.009856170977027545,-4.9446584986092655e-05,-7.828530094874268e-06
0.009763371797288664,-4.4541699292513604e-05,-7.85202716594392e-06
0.009651028703757515,-3.968809916725206e-05,-7.87308461555886e-06
0.009519929534443918,-3.48953596077017e-05,-7.891730480252599e-06
0.009370899724030955,-3.0172652293082983e-05,-7.907997483227795e-06
0.009204798635828078,-2.5528727703118227e-05,-7.921922828226845e-06
0.009022516072921247,-2.0971899025930896e-05,-7.933547984909108e-06
0.008824968996009448,-1.6510027758698222e-05,-7.942918466605266e-06
0.008613098450099093,-1.2150510897171086e-05,-7.950083601269233e-06
0.008387866674362135,-7.90026961605578e-06,-7.95509629639754e-06
0.008150254349040856,-3.765739360205032e-06,-7.958012798641605e-06
0.007901257927468614,2.4713870892233666e-07,-7.958892448804425e-06
0.007641887009945461,4.132924943275855e-06,-7.957797432891375e-06
0.007373161731305996,7.88668712858872e-06,-7.954792529873409e-06
0.007096110146097826,1.1504005097939676e-05,-7.949944856816776e-06
0.006811765601201132,1.4980974034764416e-05,-7.9433236120336e-06
0.006521164088104429,1.8314206457090804e-05,-7.934999816910636e-06
0.006225341568420647,2.1500832871222074e-05,-7.925046057078557e-06
0.005925331266865387,2.4538501080043582e-05,-7.913536223590741e-06
0.005622160925136179,2.7425374128043974e-05,-7.90054525478872e-06
0.005316850008615599,3.0160126861481917e-05,-7.886148879541338e-06
0.005010406859136899,3.274194107842004e-05,-7.870423362556362e-06
0.004703825795394299,3.517049924205284e-05,-7.853445252476244e-06
0.004398084177613984,3.744597673530491e-05,-7.835291133481904e-06
0.004094139469617741,3.9569032647112844e-05,-7.8160373811363e-06
0.0037929263435519394,4.1540799100405264e-05,-7.79575992319942e-06
0.003495353877186422,4.3362869155589855e-05,-7.774534006135422e-06
0.003202302889735685,4.503728334732038e-05,-7.752433968009694e-06
0.0029146234498848306,4.656651493222551e-05,-7.729533018439807e-06
0.0026331325708458786,4.7953453937408184e-05,-7.705903026222399e-06
0.0023586120854328357,4.920139010147786e-05,-7.681614315212677e-06
0.002091806674055196,5.0313994791349865e-05,-7.65673546898947e-06
0.0018334220048195522,5.129530196106855e-05,-7.631333144801364e-06
0.0015841229403616831,5.214968819736386e-05,-7.605471897261756e-06
0.0013445317694331593,5.288185187481257e-05,-7.579214012243712e-06
0.001115226428825405,5.349679142437721e-05,-7.552619351418915e-06
0.0008967386912367247,5.399978270439274e-05,-7.525745207886723e-06
0.0006895523073629266,5.439635545404266e-05,-7.498646173347114e-06
0.0004941011036823202,5.469226880680397e-05,-7.471374017281903e-06
0.00031076704763507545,5.4893485844633314e-05,-7.443977578619044e-06
0.00013987829808677948,5.500614718106378e-05,-7.41650267036262e-06
-1.8292736684622827e-05,5.503654357141432e-05,-7.3889919976745e-06
-0.0001635313065993585,5.499108756059333e-05,-7.361485089891498e-06
-0.0002956821618021433,5.487628419349295e-05,-7.334018246952976e-06
-0.0004146512964163129,5.469870082893834e-05,-7.306624500697368e-06
-0.0005204075633477972,5.446493611399731e-05,-7.279333591461634e-06
-0.0006129841318681274,5.418158819019333e-05,-7.252171960385586e-06
-0.0006924797585319525,5.385522221759331e-05,-7.2251627577836395e-06
-0.0007590598354459782,5.349233731909883e-05,-7.198325867899466e-06
-0.0008129571695123491,5.309933306785925e-05,-7.171677950302726e-06
-0.0008544724357464401,5.268247566654455e-05,-7.145232498119126e-06
-0.0008839742420457668,5.22478639970965e-05,-7.118999913203215e-06
-0.0009018987452875195,5.1801395750263175e-05,-7.092987598266375e-06
-0.0009087487666334917,5.134873387228292e-05,-7.067200065860738e-06
-0.0009050923605759783,5.089527359048055e-05,-7.041639063995047e-06
-0.0008915607954596913,5.0446110301471635e-05,-7.0163037180220595e-06
-0.0008688459086296428,5.00060086254493e-05,-6.991190688290329e-06
-0.0008376968111598757,4.957937294550192e-05,-6.966294342897591e-06
-0.0007989159327894852,4.917021975951458e-05,-6.941606944721337e-06
-0.00075335441334134,4.878215217298187e-05,-6.917118851738213e-06
-0.0007019068624251706,4.841833685404024e-05,-6.892818729481458e-06
-0.0006455055249918962,4.808148375718598e-05,-6.868693774328651e-06
-0.0005851139048297472,4.777382889973057e-05,-6.844729946164422e-06
-0.0005217199096328972,4.749712044611491e-05,-6.82091220882796e-06
-0.0004563285909471657,4.725260832096989e-05,-6.797224776636189e-06
-0.00038995456190177487,4.7041037532757656e-05,-6.773651365172757e-06
-0.00032361418537456846,4.686264534593857e-05,-6.7501754444530835e-06
-0.00025831763262586786,4.6717162391438465e-05,-6.72678049251874e-06
-0.0001950609156440742,4.660381775437098e-05,-6.703450247482287e-06
-0.0001348179957309201,4.652134802652723e-05,-6.680168956037062e-06
-7.853306735412335e-05,4.646801026075597e-05,-6.6569216164652415e-06
-2.7113110930345363e-05,4.644159871618486e-05,-6.633694214221006e-06
1.85791980546762e-05,4.643946523796594e-05,-6.610473948232469e-06
5.773214270598429e-05,4.64585430731561e-05,-6.587249446154688e-06
8.959110898158147e-05,4.649537388607799e-05,-6.56401096691488e-06
0.000113464160781546,4.654613770351877e-05,-6.5407505890174806e-06
0.00012872699907541706,4.6606685493483016e-05,-6.51746238321823e-06
0.00013482726676316878,4.6672574059942665e-05,-6.494142568329873e-06
0.00013128816551302721,4.673910291801171e-05,-6.470789649085384e-06
0.00011771135701891064,4.68013527986447e-05,-6.44740453515622e-06
9.377913062621495e-05,4.6854225420555976e-05,-6.42399064060142e-06
5.9255828318871515e-05,4.6892484160292246e-05,-6.400553963206208e-06
1.3988524484540866e-05,4.69107952484931e-05,-6.377103143354011e-06
-4.209303589337747e-05,4.690376912064089e-05,-6.353649502261728e-06
-0.00010897722834379371,4.686600155458159e-05,-6.3302070595929225e-06
-0.00018657204629544843,4.679211423592178e-05,-6.306792530645297e-06
-0.00027470727153607554,4.66767944064639e-05,-6.283425303484701e-06
-0.00037313727752700653,4.651483326919813e-05,-6.260127396565785e-06
-0.00048154442147585284,4.6301162844447416e-05,-6.236923397537374e-06
-0.0005995429778700442,4.603089099461094e-05,-6.21384038407761e-06
-0.0007266835623299688,4.569933435956094e-05,-6.190907827739067e-06
-0.0008624579914841965,4.5302048971107396e-05,-6.1681574819064e-06
-0.0010063045238895706,4.4834858342263956e-05,-6.145623255078057e-06
