frame_number,force
0,690.1690604838291
1,690.1795958100573
2,690.1906312461266
3,690.2021263433561
4,690.2140386941094
5,690.2263246386653
6,690.238939968876
7,690.251840618598
8,690.2649833282458
9,690.2783262683143
10,690.2918296050741
11,690.3054559925755
12,690.3191709793559
13,690.3329433241342
14,690.346745220146
15,690.3605524320019
16,690.3743443522633
17,690.3881039869673
18,690.4018178794336
19,690.4154759799843
20,690.4290714669855
21,690.4426005230323
22,690.4560620692322
23,690.4694574599868
24,690.4827901404497
25,690.4960652696545
26,690.5092893147316
27,690.5224696249632
28,690.5356139972366
29,690.5487302463514
30,690.5618257950835
31,690.5749072995646
32,690.5879803243708
33,690.6010490788949
34,690.6141162236073
35,690.6271827525977
36,690.6402479567186
37,690.6533094688997
38,690.6663633901899
39,690.6794044927909
40,690.6924264946422
41,690.7054223978377
42,690.7183848800364
43,690.7313067250734
44,690.7441812769248
45,690.7570028993989
46,690.7697674214747
47,690.782472545655
48,690.7951181960673
49,690.8077067856009
50,690.8202433861095
51,690.8327357906503
52,690.8451944610207
53,690.8576323578636
54,690.8700646547283
55,690.8825083417431
56,690.8949817288475
57,690.9075038624297
58,690.9200938721037
59,690.9327702656769
60,690.9455501902303
61,690.958448676531
62,690.9714778836678
63,690.9846463609017
64,690.997958343722
65,691.0114131008283
66,691.0250043482987
67,691.038719745699
68,691.0525404851332
69,691.0664409787775
70,691.0803886458838
71,691.0943437982
72,691.1082596223954
73,691.1220822579146
74,691.1357509686492
75,691.1491984073896
76,691.1623509726963
77,691.1751292573647
78,691.1874485855004
79,691.1992196319296
80,691.21034911452
81,691.220740548425
82,691.2302950519058
83,691.23891219563
84,691.2464908897542
85,691.2529303041822
86,691.2581308162794
87,691.2619949774228
88,691.2644284867403
89,691.2653411589132
90,691.264647873191
91,691.2622694918815
92,691.2581337379585
93,691.2521760231368
94,691.2443402195092
95,691.2345793687064
96,691.2228563220733
97,691.2091443042707
98,691.1934273924104
99,691.1757009044228
100,691.1559716937953
101,691.1342583516306
102,691.1105913191803
103,691.0850129145522
104,691.0575772786242
105,691.0283502491911
106,690.9974091771381
107,690.9648426998824
108,690.9307504834288
109,690.8952429371966
110,690.8584408990607
111,690.8204752840004
112,690.7814866878624
113,690.7416249362477
114,690.7010485666724
115,690.6599242313652
116,690.6184260103967
117,690.5767346301751
118,690.5350365878912
119,690.4935231855856
120,690.45238947819
121,690.4118331402665
122,690.3720532577663
123,690.3332490537481
124,690.2956185596694
125,690.25935724606
126,690.2246566279838
127,690.1917028616831
128,690.1606753492108
129,690.1317453677871
130,690.1050747401971
131,690.0808145620093
132,690.0591040010258
133,690.040069184244
134,690.0238221875204
135,690.0104601427746
136,690.0000644766434
137,689.992700292684
138,689.9884159063841
139,689.9872425386279
140,689.9891941694794
141,689.9942675507593
142,690.0024423733769
143,690.0136815839901
144,690.0279318447631
145,690.0451241285602
146,690.0651744394424
147,690.087984645668
148,690.1134434103212
149,690.1414272031911
150,690.1718013768096
151,690.2044212902804
152,690.2391334665542
153,690.2757767708565
154,690.3141835986501
155,690.3541810605014
156,690.3955921495768
157,690.4382368770206
158,690.4819333622348
159,690.5264988685333
160,690.5717507783164
161,690.617507504811
162,690.6635893397621
163,690.709819238781
164,690.7560235478745
165,690.8020326750109
166,690.8476817095391
167,690.8928109914209
168,690.9372666328482
169,690.9809009966289
170,691.0235731376537
171,691.0651492150614
172,691.1055028831503
173,691.1445156682806
174,691.1820773366072
175,691.2180862537859
176,691.25244973375
177,691.2850843698578
178,691.3159163383334
179,691.344881661152
180,691.3719264136957
181,691.3970068619985
182,691.4200895157214
183,691.4411510864369
184,691.4601783457925
185,691.4771678830924
186,691.4921257652525
187,691.505067103819
188,691.5160155350242
189,691.525002620593
190,691.5320671788277
191,691.537254556732
192,691.5406158551087
193,691.5422071207861
194,691.5420885234911
195,691.5403235379886
196,691.5369781532626
197,691.5321201286548
198,691.525818311825
199,691.518142026244
200,691.5091605291168
201,691.4989425366781
202,691.4875558137879
203,691.475066828054
204,691.4615404734603
205,691.4470398720321
206,691.4316262620797
207,691.4153589772227
208,691.3982955127809
209,691.3804916677635
210,691.3620017445763
211,691.3428787868461
212,691.323174838395
213,691.3029412109775
214,691.2822287520621
215,691.2610881057776
216,691.2395699609226
217,691.2177252804264
218,691.1956055069138
219,691.1732627388863
220,691.1507498716581
221,691.1281206976787
222,691.1054299634734
223,691.0827333850574
224,691.0600876287295
225,691.0375502679193
226,691.0151797282623
227,690.993035232025
228,690.9711767494476
229,690.9496649590563
230,690.9285612125924
231,690.9079274943265
232,690.887826360578
233,690.868320844059
234,690.8494743088519
235,690.831350244285
236,690.8140119891749
237,690.797522381902
238,690.7819433359634
239,690.7673353439284
240,690.7537569148129
241,690.7412639514382
242,690.7299090759739
243,690.719740913413
244,690.710803343441
245,690.7031347308309
246,690.6967671440494
247,690.691725572386
248,690.6880271541627
249,690.6856804319792
250,690.684684654392
251,690.6850291454134
252,690.6866927627477
253,690.6896434635414
254,690.6938379946947
255,690.6992217240556
256,690.7057286274336
257,690.7132814430413
258,690.7217920004706
259,690.7311617267846
260,690.7412823278146
261,690.7520366381334
262,690.7632996289344
263,690.7749395596375
264,690.7868192562006
265,690.7987974962253
266,690.8107304780074
267,690.8224733484027
268,690.8338817633247
269,690.844813454779
270,690.8551297792199
271,690.8646972234349
272,690.8733888457996
273,690.8810856324557
274,690.8876777502724
275,690.8930656818578
276,690.8971612314413
277,690.8998883926173
278,690.9011840699186
279,690.9009986476452
280,690.8992964018037
281,690.8960557532863
282,690.891269361921
283,690.8849440624384
284,690.8771006455536
285,690.8677734901436
286,690.8570100551306
287,690.8448702413568
288,690.8314256345013
289,690.8167586406626
290,690.8009615270211
291,690.7841353805929
292,690.7663889979892
293,690.747837718436
294,690.7286022116273
295,690.7088072319109
296,690.6885803515477
297,690.6680506883511
298,690.6473476455067
299,690.6265996816692
300,690.6059331267251
301,690.5854710541042
302,690.5653322164748
303,690.5456300498233
304,690.5264717513278
305,690.5079574374615
306,690.490179388952
307,690.4732213888173
308,690.4571581597714
309,690.4420549076682
310,690.4279669768462
311,690.4149396203802
312,690.4030078842353
313,690.3921966008555
314,690.3825204856951
315,690.3739843297282
316,690.3665832818243
317,690.3603032163278
318,690.3551211821633
319,690.3510059295388
320,690.3479185085711
321,690.3458129313206
322,690.3446368859408
323,690.3443324901933
324,690.3448370719065
325,690.3460839655663
326,690.3480033164452
327,690.350522886015
328,690.3535688539857
329,690.3570666121224
330,690.3609415434368
331,690.3651197794092
332,690.3695289289618
333,690.3740987754185
334,690.3787619400199
335,690.3834545111281
336,690.3881166362472
337,690.392693070376
338,690.3971336711485
339,690.4013938299975
340,690.4054348290023
341,690.4092241147218
342,690.4127354832467
343,690.4159491751435
344,690.4188518847312
345,690.4214366940998
346,690.4237029464483
347,690.4256560738326
348,690.4273073909412
349,690.4286738609374
350,690.4297778348767
351,690.4306467644
352,690.4313128871522
353,690.4318128840112
354,690.4321875069431
355,690.4324811771953
356,690.4327415551003
357,690.4330190837647
358,690.4333665092552
359,690.4338383802774
360,690.4344905307679
361,690.43537954879
362,690.4365622347889
363,690.4380950521152
364,690.4400335730643
365,690.4424319244243
366,690.445342237128
367,690.4488141042641
368,690.4528940503509
369,690.4576250134047
370,690.4630458410255
371,690.4691908027283
372,690.4760891227069
373,690.4837645395356
374,690.4922349014932
375,690.5015118078587
376,690.5116003072801
377,690.5224986637049
378,690.5341981984188
379,690.5466832142847
380,690.5599310062445
381,690.5739119607244
382,690.5885897453046
383,690.6039215883703
384,690.6198586464421
385,690.6363464550542
386,690.6533254580606
387,690.6707316101425
388,690.688497047457
389,690.7065508211826
390,690.7248196877819
391,690.7432289476861
392,690.7617033206848
393,690.7801678422405
394,690.798548761561
395,690.8167744204344
396,690.834776091639
397,690.8524887570007
398,690.8698518082347
399,690.8868096589213
400,690.9033122626392
401,690.9193155386381
402,690.9347817105607
403,690.949679564524
404,690.9639846305898
405,690.977679287926
406,690.9907527907264
407,691.0032012101261
408,691.0150272866977
409,691.0262401888181
410,691.0368551749217
411,691.0468931621585
412,691.0563802085824
413,691.0653469190604
414,691.0738277860361
415,691.0818604755227
416,691.0894850675978
417,691.0967432608958
418,691.1036775527923
419,691.1103304097718
420,691.1167434437676
421,691.1229566097122
422,691.1290074388239
423,691.1349303224623
424,691.1407558618478
425,691.146510298271
426,691.1522150362337
427,691.1578862686181
428,691.1635347094148
429,691.1691654370109
430,691.174777849558
431,691.1803657317296
432,691.1859174278701
433,691.1914161111213
434,691.1968401339233
435,691.2021634434745
436,691.2073560454343
437,691.2123844994477
438,691.217212431563
439,691.2218010522379
440,691.2261096739121
441,691.2300962275032
442,691.233717781333
443,691.2369310677345
444,691.2396930208613
445,691.2419613241715
446,691.2436949596378
447,691.2448547454604
448,691.2454038463347
449,691.2453082402471
450,691.244537127926
451,691.2430632749767
452,691.2408632814861
453,691.2379177779974
454,691.2342115490774
455,691.2297335864129
456,691.2244770739393
457,691.2184393096042
458,691.2116215724267
459,691.2040289479768
460,691.1956701280682
461,691.1865572004078
462,691.1767054418398
463,691.1661331259465
464,691.1548613529542
465,691.1429139070636
466,691.1303171429171
467,691.1170998986024
468,691.10329342804
469,691.0889313422634
470,691.0740495481655
471,691.0586861744368
472,691.0428814762265
473,691.026677711405
474,691.0101189820706
475,690.993251035382
476,690.9761210180961
477,690.9587771795559
478,690.9412685187731
479,690.9236443732232
480,690.9059539501891
481,690.8882458054045
482,690.8705672775394
483,690.8529638905324
484,690.8354787389358
485,690.8181518734082
486,690.80101970329
487,690.7841144316698
488,690.7674635376068
489,690.7510893210889
490,690.7350085275256
491,690.7192320680895
492,690.7037648495461
493,690.6886057234045
494,690.6737475600679
495,690.6591774489226
496,690.6448770198442
497,690.6308228761385
498,690.6169871243329
499,690.6033379829515
500,690.5898404505153
501,690.5764570127676
502,690.5631483708565
503,690.549874175579
504,690.5365937561917
505,690.5232668338771
506,690.5098542096531
507,690.496318416336
508,690.4826243257065
509,690.4687397046578
510,690.4546357158657
511,690.4402873583736
512,690.4256738420053
513,690.4107788880971
514,690.3955909487648
515,690.3801033381498
516,690.3643142713754
517,690.3482268094924
518,690.3318487111297
519,690.3151921942897
520,690.2982736151035
521,690.2811130739358
522,690.2637339618607
523,690.2461624615576
524,690.2284270163678
525,690.2105577802815
526,690.1925860604082
527,690.1745437621813
528,690.1564628459931
529,690.1383748019485
530,690.1203101473773
531,690.1022979506524
532,690.0843653853339
533,690.066537320036
534,690.0488359504393
535,690.0312804802751
536,690.0138868586401
537,689.9966675815081
538,689.9796315645307
539,689.9627840917348
540,689.9461268418711
541,689.9296579924412
542,689.9133724005685
543,689.897261858468
544,689.8813154185165
545,689.8655197794093
546,689.8498597217767
547,689.8343185797364
548,689.8188787343022
549,689.8035221152089
550,689.7882306992707
551,689.7729869951394
552,689.7577745055526
553,689.7425781590763
554,689.7273847046805
555,689.7121830643298
556,689.6969646408147
557,689.6817235802753
558,689.6664569910945
559,689.6511651228338
560,689.6358515109679
561,689.6205230954616
562,689.6051903224279
563,689.5898672367066
564,689.5745715695278
565,689.5593248213629
566,689.544152337148
567,689.5290833691691
568,689.5141511212166
569,689.4993927662019
570,689.4848494291663
571,689.4705661288825
572,689.4565916733393
573,689.4429785066314
574,689.4297825074423
575,689.4170627426822
576,689.4048811831626
577,689.393302389731
578,689.3823931767415
579,689.3722222555155
580,689.3628598558914
581,689.3543773214229
582,689.3468466739209
583,689.3403401450053
584,689.3349296748731
585,689.3306863802039
586,689.3276799927769
587,689.3259782682201
588,689.325646362439
589,689.3267461737979
590,689.3293356522905
591,689.3334680817716
592,689.3391913469554
593,689.3465472024048
594,689.3555705647592
595,689.3662888508173
596,689.3787213826861
597,689.3928788779754
598,689.408763039418
599,689.4263662553534
600,689.4456714202183
601,689.4666518820396
602,689.4892715217895
603,689.5134849670673
604,689.5392379389859
605,689.5664677261399
606,689.595103774347
607,689.6250683766799
608,689.6562774453118
609,689.6886413451465
610,689.7220657697409
611,689.7564526423148
612,689.7917010273222
613,689.8277080402983
614,689.8643697453488
615,689.9015820302832
616,689.9392414489213
617,689.9772460195891
618,690.0154959694928
619,690.0538944166656
620,690.0923479839439
621,690.1307673423845
622,690.1690676839578
623,690.2071691244593
624,690.2449970374354
625,690.2824823199659
626,690.3195615928847
627,690.356177341019
628,690.392278000857
629,690.4278180019811
630,690.4627577654014
631,690.4970636587519
632,690.530707906775
633,690.5636684562421
634,690.5959287969669
635,690.6274777430923
636,690.6583091795794
637,690.6884217777343
638,690.7178186823853
639,690.7465071733869
640,690.7744983052175
641,690.8018065291712
642,690.8284493024285
643,690.8544466880084
644,690.879820950206
645,690.90459615119
646,690.9287977548811
647,690.9524522436043
648,690.9755867514839
649,690.9982287165465
650,691.0204055522861
651,691.042144340628
652,691.0634715518278
653,691.0844128006751
654,691.1049926498432
655,691.1252344691536
656,691.1451603545032
657,691.1647911041055
658,691.1841462447173
659,691.2032440979087
660,691.222101875553
661,691.2407357927634
662,691.259161184453
663,691.2773926097562
664,691.295443929178
665,691.3133283435232
666,691.3310583894902
667,691.3486458911289
668,691.3661018680245
669,691.3834364013859
670,691.4006584596578
671,691.4177756857657
672,691.434794148153
673,691.451718057769
674,691.4685494538738
675,691.4852878631681
676,691.5019299389983
677,691.5184690897884
678,691.5348951079105
679,691.551193811467
680,691.5673467120574
681,691.583330722472
682,691.599117919946
683,691.6146753822616
684,691.6299651140678
685,691.6449440786515
686,691.65956434675
687,691.6737733698908
688,691.6875143813752
689,691.7007269229192
690,691.7133474891383
691,691.7253102763722
692,691.7365480177677
693,691.746992883534
694,691.7565774240804
695,691.7652355344717
696,691.7729034207
697,691.7795205505074
698,691.7850305730113
699,691.7893821919596
700,691.7925299769946
701,691.7944350965895
702,691.79506595722
703,691.7943987368976
704,691.7924178058573
705,691.7891160305967
706,691.7844949592491
707,691.7785648877733
708,691.7713448085875
709,691.7628622458204
710,691.7531529835169
711,691.7422606941104
712,691.7302364738797
713,691.7171382906326
714,691.7030303483702
715,691.6879823758264
716,691.672068850078
717,691.6553681702902
718,691.6379617981045
719,691.6199333809001
720,691.6013678739296
721,691.5823506768722
722,691.5629667982395
723,691.5433000573894
724,691.523432330354
725,691.503442843752
726,691.4834075212233
727,691.463398388386
728,691.4434830438574
729,691.4237242043358
730,691.4041793310564
731,691.3849003431767
732,691.3659334207315
733,691.3473188959979
734,691.3290912281345
735,691.3112790523518
736,691.2939052921902
737,691.2769873224931
738,691.2605371717389
739,691.244561755151
740,691.2290631336346
741,691.2140387969633
742,691.1994819714607
743,691.1853819520888
744,691.1717244574464
745,691.1584920054665
746,691.1456643085196
747,691.1332186883985
748,691.1211305127805
749,691.1093736543163
750,691.0979209714487
751,691.0867448069057
752,691.0758174966203
753,691.0651118796358
754,691.054601798548
755,691.0442625794719
756,691.0340714794926
757,691.0240080879917
758,691.0140546674677
759,691.0041964216084
760,690.9944216842134
761,690.9847220300194
762,690.9750923141789
763,690.9655306498336
764,690.956038334412
765,690.9466197364097
766,690.9372821549576
767,690.9280356633168
768,690.9188929445853
769,690.9098691247161
770,690.9009816058802
771,690.8922499025929
772,690.8836954830792
773,690.8753416183717
774,690.8672132412566
775,690.8593368159603
776,690.8517402172688
777,690.8444526156358
778,690.8375043642814
779,690.8309268856405
780,690.8247525566107
781,690.8190145936949
782,690.8137469403049
783,690.8089841595627
784,690.804761336293
785,690.8011139905118
786,690.7980780014885
787,690.7956895375004
788,690.7939849830639
789,690.7930008539091
790,690.7927736909228
791,690.793339927473
792,690.794735728596
793,690.7969968039775
794,690.8001581988972
795,690.8042540684527
796,690.8093174402819
797,690.8153799697346
798,690.8224716900487
799,690.8306207597853
800,690.8398532104443
801,690.8501926976779
802,690.8616602593713
803,690.8742740836159
804,690.8880492896443
805,690.9029977247412
806,690.9191277795013
807,690.9364442224557
808,690.9549480532895
809,690.9746363721865
810,690.9955022620143
811,691.0175346806236
812,691.0407183620721
813,691.0650337269299
814,691.0904568023276
815,691.1169591522545
816,691.1445078182296
817,691.173065270358
818,691.2025893695848
819,691.2330333437089
820,691.2643457815411
821,691.2964706504961
822,691.3293473426554
823,691.3629107532927
824,691.3970913946215
825,691.4318155465862
826,691.4670054459891
827,691.5025795148244
828,691.5384526278957
829,691.5745364183873
830,691.6107396182164
831,691.6469684283593
832,691.683126913676
833,691.7191174174513
834,691.7548409928871
835,691.7901978515359
836,691.8250878305132
837,691.8594108794582
838,691.8930675648307
839,691.9259595855511
840,691.9579902923358
841,691.9890652034817
842,692.0190925109156
843,692.047983570811
844,692.0756533729908
845,692.1020209837077
846,692.127009957929
847,692.1505487191438
848,692.1725709051547
849,692.193015676689
850,692.2118279833227
851,692.2289587796674
852,692.2443651842344
853,692.2580105737362
854,692.2698646073768
855,692.2799031791983
856,692.2881083008958
857,692.2944679211816
858,692.2989756897865
859,692.3016306745554
860,692.3024370398874
861,692.3014036952461
862,692.2985439239419
863,692.2938750040504
864,692.2874178339265
865,692.2791965735638
866,692.2692383102318
867,692.2575727531462
868,692.244231958233
869,692.22925008129
870,692.2126631567462
871,692.1945088993522
872,692.1748265260477
873,692.15365659393
874,692.1310408482715
875,692.1070220734741
876,692.0816439409606
877,692.0549508510117
878,692.0269877690039
879,691.9978000593144
880,691.9674333223143
881,691.9359332412918
882,691.9033454461313
883,691.8697153988879
884,691.8350883038572
885,691.799509042387
886,691.7630221310131
887,691.725671700771
888,691.6875014958682
889,691.6485548909601
890,691.608874927216
891,691.5685043675411
892,691.5274857708176
893,691.4858615846643
894,691.4436742565515
895,691.4009663633552
896,691.3577807578733
897,691.3141607268295
898,691.2701501499308
899,691.2257936459367
900,691.1811366907898
901,691.1362256945365
902,691.0911080270695
903,691.045831986243
904,691.0004467044687
905,690.9550019913568
906,690.9095481111755
907,690.8641354955626
908,690.8188143944311
909,690.7736344716568
910,690.728644356538
911,690.6838911655552
912,690.6394200098915
913,690.5952735023616
914,690.5514912743337
915,690.5081095105827
916,690.4651605085609
917,690.4226722684331
918,690.3806681214335
