frame_number,force
0,593.3511400000348
1,593.3737857073227
2,593.392587798242
3,593.4041993675228
4,593.4061697307365
5,593.3971867492171
6,593.3771602221085
7,593.3471899989726
8,593.3094676282103
9,593.2671344264712
10,593.2240962598167
11,593.1847943848173
12,593.1539398288488
13,593.1362178042939
14,593.1359605736056
15,593.1567882778971
16,593.201231207841
17,593.2703597091968
18,593.3634528410795
19,593.4777444489073
20,593.6083007338497
21,593.7480945065761
22,593.88833106785
23,594.0190432298697
24,594.1299205666046
25,594.2112911997098
26,594.2551432417616
27,594.2560556579772
28,594.2119068688845
29,594.1242519597863
30,593.9983064591411
31,593.8425306444648
32,593.6678508952043
33,593.4865796845014
34,593.3111249487159
35,593.1526276764753
36,593.019713250446
37,592.9175517980449
38,592.8473809855797
39,592.8065625606393
40,592.7891438203824
41,592.7868032403583
42,592.7900031667118
43,592.7891694178103
44,592.7757583738421
45,592.7431209729222
46,592.6871021407727
47,592.6063326225475
48,592.5022035246254
49,592.3785615712933
50,592.2411981514065
51,592.097214855336
52,591.9543474317383
53,591.8203282636647
54,591.7023490654464
55,591.6066399016935
56,591.5381307589375
57,591.500145349748
58,591.4941089890675
59,591.5193168216117
60,591.5728659301834
61,591.6498588865096
62,591.7439201984553
63,591.8479640754995
64,591.9550664258118
65,592.0592612600053
66,592.1561042848906
67,592.2429045702319
68,592.3186008390217
69,592.3833450368857
70,592.4379349889107
71,592.4832765773314
72,592.5200328387124
73,592.5485428716767
74,592.5689980928437
75,592.5817807539381
76,592.5878245779652
77,592.5888593901169
78,592.5874452643711
79,592.5867713796605
80,592.5902678220423
81,592.6011282549741
82,592.6218494164851
83,592.6538667078178
84,592.6973308097972
85,592.7510484306009
86,592.8125994353925
87,592.8786290872484
88,592.9452886062284
89,593.0087653899515
90,593.0658213305669
91,593.1142519138309
92,593.1531885568822
93,593.1831907238769
94,593.2061107747722
95,593.2247533362803
96,593.242381618703
97,593.2621459646174
98,593.2865299589597
99,593.3169180270679
100,593.3533653466282
101,593.3945919142258
102,593.4381550351754
103,593.4807177644537
104,593.5183463901302
105,593.5468236930793
106,593.562010740516
107,593.5602868959967
108,593.5390463894367
109,593.4971667999351
110,593.4353276480526
111,593.3560682977744
112,593.2635388203896
113,593.162993643572
114,593.0601586973324
115,592.9606274687711
116,592.869404158551
117,592.7906380907423
118,592.7275187186945
119,592.682259379902
120,592.6561077581564
121,592.6493653783442
122,592.6614388089145
123,592.6909560142748
124,592.7359627131829
125,592.7941766454386
126,592.8632373683471
127,592.9408687310046
128,593.02489158802
129,593.1130841531451
130,593.2029584158124
131,593.2915664680246
132,593.3754466562434
133,593.4507688860568
134,593.5136707629013
135,593.5607250847205
136,593.5894559219568
137,593.5988179335428
138,593.5895633400168
139,593.5644387725566
140,593.528176644538
141,593.4872655129865
142,593.4494940343395
143,593.4232729646747
144,593.416771125067
145,593.436956265781
146,593.4886812110519
147,593.5739681237126
148,593.6916110261349
149,593.8371525829847
150,594.0032203470477
151,594.1801566327807
152,594.3568569830147
153,594.5217306040223
154,594.6636927407598
155,594.7730994272326
156,594.842554686757
157,594.8675484690524
158,594.846894234548
159,594.7829239866012
160,594.6813884049815
161,594.5510253449607
162,594.4028085825423
163,594.2489536268646
164,594.1018080727674
165,593.9727695637558
166,593.8713559287285
167,593.8045131853269
168,593.7762023733771
169,593.7872648940534
170,593.8355341934041
171,593.9161464601505
172,594.0220064057776
173,594.1443755028326
174,594.2735568966493
175,594.3996502588643
176,594.5133397444878
177,594.6066560793488
178,594.6736274903552
179,594.7107262400073
180,594.7170456103754
181,594.6941962633849
182,594.6459590351814
183,594.5777530503359
184,594.4959836335186
185,594.4073428072464
186,594.318145374419
187,594.2337795333048
188,594.1583263305005
189,594.0943697234255
190,594.042995101018
191,594.0039607591675
192,593.9760132729874
193,593.9572993420404
194,593.9458120039332
195,593.9398062104715
196,593.9381273229397
197,593.9404131976391
198,593.9471512560659
199,593.9595863101993
200,593.9794789056034
201,594.0087202699847
202,594.048833578045
203,594.1004272299743
204,594.16269397095
205,594.2330580743771
206,594.3070655312052
207,594.3785930815751
208,594.4404127269331
209,594.4850797021251
210,594.5060215609873
211,594.498624837701
212,594.4610862850507
213,594.3948438323886
214,594.3045101509838
215,594.1973471259114
216,594.0823986366437
217,593.9694308231702
218,593.867827184182
219,593.7855723250841
220,593.7284461921683
221,593.6995299092557
222,593.6990746752329
223,593.7247132150617
224,593.7719345390041
225,593.8347197951229
226,593.9062407535808
227,593.9795391084203
228,594.0481309696778
229,594.1065080806487
230,594.1505196162818
231,594.1776138809809
232,594.1869144080341
233,594.179115771331
234,594.1562112455255
235,594.1210937545309
236,594.0770887969506
237,594.0274804535592
238,593.9750862111039
239,593.921930805203
240,593.8690662302466
241,593.8165759247664
242,593.7637723449034
243,593.7095515033792
244,593.652825854954
245,593.5929352636664
246,593.5299428888472
247,593.4647608572315
248,593.399105471437
249,593.3353229106818
250,593.276134258397
251,593.2243351193149
252,593.1824751840828
253,593.1525436324088
254,593.1356873923717
255,593.131988931934
256,593.1403336703809
257,593.1583971056283
258,593.1827629663843
259,593.2091481953131
260,593.2326854079712
261,593.2482241587192
262,593.2506506863499
263,593.2352526413132
264,593.1981393408223
265,593.1366800199888
266,593.0498879195245
267,592.938690371295
268,592.8060658509904
269,592.6570497602273
270,592.498595587314
271,592.3392607392398
272,592.1886982426028
273,592.0569671749511
274,591.9537033774507
275,591.8872169658187
276,591.8636106520662
277,591.8860322171897
278,591.9541724617242
279,592.0641012390088
280,592.2085061369473
281,592.377350550053
282,592.5588895169454
283,592.7408916923252
284,592.9118567466679
285,593.0620233732942
286,593.1840358457314
287,593.2732398807477
288,593.3276548765325
289,593.3476930011667
290,593.3356962393889
291,593.295379589452
292,593.2312934389838
293,593.1484110702884
294,593.0518912968653
295,592.9469855252453
296,592.838999004853
297,592.733210571652
298,592.6346983838632
299,592.548078773002
300,592.4772107844136
301,592.4249340812903
302,592.3928946674044
303,592.3814857204417
304,592.3898999156225
305,592.4162625773952
306,592.457806389235
307,592.5110620542108
308,592.5720558211333
309,592.6365079038569
310,592.7000229492999
311,592.7582688356895
312,592.8071539152103
313,592.8430248392134
314,592.8629053800861
315,592.8647760476333
316,592.8478629334066
317,592.8128795855407
318,592.7621590033151
319,592.6996209169774
320,592.6305364531477
321,592.5610810740793
322,592.4977114618182
323,592.446454146228
324,592.4122315558485
325,592.398352126036
326,592.4062479239576
327,592.4354755665272
328,592.4839377954632
329,592.5482524034171
330,592.6241868406074
331,592.7070810362101
332,592.7921992811342
333,592.8749893433949
334,592.9512731548724
335,593.0174222227771
336,593.070563538409
337,593.1088233900825
338,593.1315683948085
339,593.139571778319
340,593.1350413573199
341,593.1214900681991
342,593.1034723010303
343,593.0862178032403
344,593.0751813293625
345,593.0755250108299
346,593.0915745154907
347,593.1263214136902
348,593.1810563127036
349,593.2551991458503
350,593.3463562316372
351,593.4505988352518
352,593.5629317685031
353,593.6778929904592
354,593.790190814254
355,593.8952625675573
356,593.98965807078
357,594.0712170086622
358,594.1390798885371
359,594.1936008014507
360,594.2362114906053
361,594.2692479014916
362,594.2957196082125
363,594.3189995139418
364,594.342443568417
365,594.3689947308825
366,594.4008431782255
367,594.4391953220024
368,594.4841742286131
369,594.534859339185
370,594.5894682893032
371,594.6456650464625
372,594.7009413791067
373,594.7529845480789
374,594.7999390862859
375,594.8405050054282
376,594.8738773529537
377,594.8995910877024
378,594.9173588165373
379,594.9269724154941
380,594.9283016448474
381,594.9213805666202
382,594.9065402185663
383,594.884540937765
384,594.8566782129836
385,594.8248517950273
386,594.791578553746
387,594.7599145440789
388,594.7332623240499
389,594.7150764897451
390,594.7085156139477
391,594.7161006322917
392,594.7394302541439
393,594.7789852038492
394,594.8340330078586
395,594.9026309356589
396,594.9817246811359
397,595.0673498014207
398,595.1549400524691
399,595.2397159613655
400,595.3170825997995
401,595.382945090099
402,595.4338818305811
403,595.4671858273324
404,595.4808460656454
405,595.4735563365606
406,595.4448089986995
407,595.3950757059765
408,595.3260179169868
409,595.2406340344448
410,595.1432588834524
411,595.0393784594527
412,594.9352776573448
413,594.8375742064227
414,594.7527033682052
415,594.6864157351665
416,594.643344574172
417,594.6266891010652
418,594.6380386505847
419,594.6773291597939
420,594.7428908631193
421,594.8315342299232
422,594.9386425244045
423,595.058287644308
424,595.1834330485749
425,595.3063006667445
426,595.418943924085
427,595.5139980929972
428,595.5855004423845
429,595.6296203603699
430,595.6451384035538
431,595.6335634944995
432,595.5988585047626
433,595.5468287000045
434,595.4842896602675
435,595.4181559903079
436,595.3545837274403
437,595.2982760878556
438,595.2520333706951
439,595.2165878752053
440,595.1907167567799
441,595.1715896175789
442,595.1552921365312
443,595.1374596267954
444,595.1139457985292
445,595.081445449701
446,595.0379869514857
447,594.9832144734676
448,594.9184040167271
449,594.8462059829229
450,594.7701633493134
451,594.6940994255392
452,594.6214931337283
453,594.5549544837467
454,594.4958763720819
455,594.4442878226473
456,594.3988943386498
457,594.3572770071337
458,594.3162249410843
459,594.2721723710308
460,594.2216889486732
461,594.1619435812341
462,594.0910543417056
463,594.0082639044579
464,593.9139363196604
465,593.8094297780134
466,593.6969233192802
467,593.5792466409249
468,593.459706488995
469,593.3418694125581
470,593.229280797426
471,593.1251591438473
472,593.0321501119791
473,592.9522152384906
474,592.8866745182013
475,592.8363625492827
476,592.8018211118188
477,592.7834373674149
478,592.7814493774295
479,592.7957900324496
480,592.8258151103082
481,592.8700171171517
482,592.9258283542313
483,592.9895774935754
484,593.0566226865093
485,593.1216548179724
486,593.1791377411947
487,593.223829360193
488,593.2513174899871
489,593.2585056295768
490,593.2439896416778
491,593.2082775796156
492,593.1538260321438
493,593.0848961041855
494,593.0072567159131
495,592.9277670508678
496,592.8538597430306
497,592.7929438110534
498,592.7517622878275
499,592.7357668633545
500,592.7485937455068
501,592.7917212473781
502,592.8643538135791
503,592.9635280392348
504,593.0844003340537
505,593.220664132112
506,593.3650497853587
507,593.5098692173344
508,593.6475712769137
509,593.7712696297974
510,593.8751932453458
511,593.954998659367
512,594.0078905701956
513,594.03253184334
514,594.0287767291579
515,593.997314871084
516,593.9393470182903
517,593.8564024663171
518,593.7503464620611
519,593.6235415516438
520,593.4790674139159
521,593.3208931178195
522,593.1539205400302
523,592.9838581486023
524,592.8169319293957
525,592.6594799455387
526,592.5174908957887
527,592.3961417584966
528,592.2993879153057
529,592.2296627295543
530,592.1877334775961
531,592.1727319006181
532,592.1823465456615
533,592.2131419034241
534,592.2609538474403
535,592.32130177803
536,592.3897625396054
537,592.4622716322941
538,592.5353417011901
539,592.6062000886237
540,592.67284170266
541,592.7339864958955
542,592.7889461505459
543,592.8374428133602
544,592.8794504844747
545,592.9151151627582
546,592.9447612753555
547,592.9689453069416
548,592.9884974979675
549,593.004497595705
550,593.0181513441544
551,593.0305702102669
552,593.0425050275655
553,593.0541206438993
554,593.0648934210388
555,593.073666835006
556,593.0788436266114
557,593.0786563428907
558,593.0714545679765
559,593.0559695418874
560,593.0315370637254
561,592.9982559244888
562,592.9570494656874
563,592.9096128410604
564,592.8582619067544
565,592.80572020341
566,592.7548792314434
567,592.7085615577441
568,592.6693161157629
569,592.6392702737631
570,592.620045786159
571,592.6127240458941
572,592.6178331295584
573,592.6353305305362
574,592.6645700555842
575,592.7042643011914
576,592.7524781517682
577,592.8067012117625
578,592.8640319529867
579,592.9214652592204
580,592.9762369037412
581,593.0261657998336
582,593.0699366871646
583,593.1072669017932
584,593.1389135840903
585,593.1665183380308
586,593.1923347015603
587,593.2188987387935
588,593.2486791064955
589,593.2837197606802
590,593.3252947766172
591,593.3736167932282
592,593.427654262671
593,593.4851085771543
594,593.5425773423668
595,593.5958910564561
596,593.6405784945858
597,593.6724025617523
598,593.6878983978072
599,593.6848288095823
600,593.6624697992434
601,593.6216741489613
602,593.5647213542702
603,593.4950130955991
604,593.4166920828854
605,593.3342493778855
606,593.2521598979362
607,593.1745680674666
608,593.1050394444185
609,593.0463888654137
610,593.0005841534752
611,592.9687110853271
612,592.9509775032002
613,592.9467368951872
614,592.9545267828246
615,592.9721378259326
616,592.996738497325
617,593.0250708288414
618,593.05371826811
619,593.0794387938286
620,593.0995505105891
621,593.1123404179212
622,593.1174332153025
623,593.1160193535364
624,593.1108329758013
625,593.1058132561953
626,593.1054655489183
627,593.1140299682569
628,593.1346331271305
629,593.1686173853643
630,593.2151988629327
631,593.2715184436158
632,593.333056834569
633,593.394311466085
634,593.4495870628814
635,593.4937429434414
636,593.5227794303522
637,593.5342162275115
638,593.5272726054941
639,593.5028737114192
640,593.4634931173648
641,593.4128342085679
642,593.355373256122
643,593.2958271982048
644,593.238642039343
645,593.1875965991716
646,593.1455732405681
647,593.1144833290012
648,593.0952896102833
649,593.0880650018714
650,593.0920561142037
651,593.1057483917342
652,593.1269405850304
653,593.1528379510848
654,593.1801768142257
655,593.2053928504153
656,593.224836264773
657,593.2350242148949
658,593.2329100333424
659,593.2161433532107
660,593.1832988847801
661,593.134061453651
662,593.0693603711605
663,592.9914382772612
664,592.9038188692831
665,592.8111193873077
666,592.7186629901447
667,592.631899565802
668,592.5557246760235
669,592.4938470118144
670,592.4483521688801
671,592.4195488817096
672,592.4061082519057
673,592.405452389294
674,592.4143118064788
675,592.4293343045432
676,592.4476022840636
677,592.4669287031253
678,592.4858616229768
679,592.5034107600574
680,592.5185884017088
681,592.52991208823
682,592.5350337142381
683,592.5306313057105
684,592.5126287318577
685,592.4767119182462
686,592.4190223046484
687,592.3368692597809
688,592.2293236027535
689,592.0976029563478
690,591.9451996704352
691,591.7777305405222
692,591.6025237235208
693,591.4280042345405
694,591.2629736834506
695,591.1158854491241
696,590.9941956474188
697,590.9038356130397
698,590.8488183656822
699,590.83097501506
700,590.8498237528024
701,590.9025923886413
702,590.9844230494876
703,591.0887727363526
704,591.2079944551712
705,591.334056659289
706,591.4593386495213
707,591.5774195811275
708,591.6837574608849
709,591.7761453630546
710,591.8548515074106
711,591.9224017197616
712,591.9830344204627
713,592.0419236297747
714,592.1042963251855
715,592.1745601482326
716,592.255533323979
717,592.3478651920061
718,592.4497530060468
719,592.5570616676388
720,592.6639030526071
721,592.7636302698529
722,592.850082937556
723,592.9188330553474
724,592.9681710887878
725,592.9996424937384
726,593.0180529163687
727,593.0309558444675
728,593.0477050383274
729,593.0782090563557
730,593.131571399552
731,593.2148204103903
732,593.331910584305
733,593.4831168198601
734,593.6648732237543
735,593.8700535565753
736,594.0886521076656
737,594.3087887502799
738,594.5179269536765
739,594.7041669064695
740,594.8574674185584
741,594.9706662142672
742,595.0402019525569
743,595.0664732069843
744,595.0537917865892
745,595.0099151262837
746,594.9451889790299
747,594.8713909160452
748,594.8004168469039
749,594.7429761748299
750,594.7074491021245
751,594.6990273733462
752,594.7192294675848
753,594.7658537270836
754,594.8333912128932
755,594.9138588154316
756,594.9979460383045
757,595.0763136934429
758,595.1408544154885
759,595.1857339193053
760,595.2080754054714
761,595.2082091836353
762,595.1894678435807
763,595.1575609916426
764,595.1196168105882
765,595.0830289017299
766,595.0542856974549
767,595.0379711669095
768,595.0361002564798
769,595.0478958135411
770,595.0700377983566
771,595.097327768264
772,595.1236224366468
773,595.1428265446382
774,595.1497300676701
775,595.1405388962431
776,595.1130566488007
777,595.0665788296038
778,595.0016170258167
779,594.9195749445646
780,594.822473477704
781,594.7127845195329
782,594.5933821684891
783,594.4675649344563
784,594.3390713610656
785,594.2120201304176
786,594.0907393470401
787,593.9794823986639
788,593.8820504081594
789,593.801361093245
790,593.7390265768328
791,593.6950217097605
792,593.6675231376024
793,593.6529704430582
794,593.6463641556405
795,593.6417934915196
796,593.6331675558857
797,593.6150834184359
798,593.5837115530863
799,593.5375476720309
800,593.477891786078
801,593.4089655556494
802,593.3376479526369
803,593.2728763070155
804,593.2248076388956
805,593.2038538680767
806,593.2196990118226
807,593.2803922495136
808,593.3915993482325
809,593.5560882515439
810,593.7735149049506
811,594.0405461621233
812,594.3512975093735
813,594.6979903869296
814,595.071683237043
815,595.4629301592337
816,595.8622733369199
817,596.2605574668114
818,596.6491303752863
819,597.0200314302646
820,597.3662553317499
821,597.6821265632489
822,597.963756907797
823,598.2095073679369
824,598.4203479388573
825,598.6000094413265
826,598.7548491668787
827,598.8933964377799
828,599.0255961079268
829,599.1618222200905
830,599.3117809462175
831,599.4834463581335
832,599.6821647778228
833,599.9100284241796
834,600.1655747888946
835,600.4438335633441
836,600.7367221154625
837,601.0337703997832
838,601.3231229875769
839,601.5927210354114
840,601.8315274509428
841,602.0306448665332
842,602.1841966706627
843,602.2898839113807
844,602.3491712826572
845,602.367080729107
846,602.3515944405511
847,602.3127126204404
848,602.2612728799467
849,602.2076851836133
850,602.1607440964584
851,602.1266569541069
852,602.1083950518387
853,602.1054440059069
854,602.1139917702947
855,602.127539234803
856,602.1378517679035
857,602.1361076580898
858,602.114063325459
859,602.065060373289
860,601.9847429291143
861,601.8714154333613
862,601.7260331779601
863,601.551873483848
864,601.3539762408875
865,601.1384601549349
866,600.9118202201195
867,600.6802992432296
868,600.4493962997333
869,600.223531469227
870,600.0058545781175
871,599.7981809996877
872,599.6010399411992
873,599.4138048029428
874,599.2348508204848
875,599.0616863033327
876,598.8910427921539
877,598.7189616051849
878,598.5409448405208
879,598.3522295676244
880,598.1481984144048
881,597.9248819718769
882,597.6794701979134
883,597.4107450633094
884,597.1193612976413
885,596.8079194610268
886,596.4807968395538
887,596.1437348342168
888,595.8032254424413
889,595.4657842911041
890,595.1372284015266
891,594.8220790807628
892,594.5231839927338
893,594.2416110566336
894,593.9768179197566
895,593.7270434352331
896,593.489813305722
897,593.262430160733
898,593.0423505747522
899,592.8274242379694
900,592.6160371381628
901,592.4072193108509
902,592.2007481220177
903,591.9972370303227
904,591.7981829887934
905,591.6059564831448
906,591.4237312028755
907,591.2553439277702
908,591.105057633313
909,590.9771983734363
910,590.8756647997534
911,590.8033626345884
912,590.7616720616401
913,590.7500816328319
914,590.7660961639139
915,590.8054571652166
916,590.8626368470782
917,590.9315106983379
