frame_number,force
0,723.5717160087527
1,723.5978769157825
2,723.6238631966374
3,723.649501538936
4,723.6746212376711
5,723.6990554488725
6,723.7226423845445
7,723.7452264312548
8,723.7666591759341
9,723.7868003238581
10,723.8055184959294
11,723.822691895371
12,723.838208837429
13,723.8519681395146
14,723.8638793734514
15,723.8738629857115
16,723.8818502946827
17,723.8877833754303
18,723.8916148424531
19,723.8933075404601
20,723.8928341528615
21,723.8901767376229
22,723.8853262002303
23,723.8782817134647
24,723.8690500932229
25,723.8576451389622
26,723.8440869473366
27,723.8284012086531
28,723.8106184972091
29,723.7907735672835
30,723.7689046661616
31,723.7450528741933
32,723.7192614798679
33,723.6915753956023
34,723.6620406172756
35,723.630703727296
36,723.5976114378333
37,723.5628101691157
38,723.5263456579938
39,723.4882625938075
40,723.4486042811061
41,723.4074123312157
42,723.3647263863558
43,723.3205838806086
44,723.2750198416468
45,723.2280667361479
46,723.1797543606572
47,723.130109778425
48,723.0791573014952
49,723.0269185163583
50,722.9734123513314
51,722.9186551844717
52,722.8626609914775
53,722.8054415329619
54,722.7470065796886
55,722.6873641732305
56,722.6265209182525
57,722.5644823011227
58,722.501253028044
59,722.4368373750407
60,722.3712395426732
61,722.3044640101338
62,722.2365158854897
63,722.1674012504022
64,722.097127498587
65,722.0257036679892
66,721.9531407675156
67,721.8794521001038
68,721.8046535844445
69,721.7287640774916
70,721.6518056992061
71,721.5738041602327
72,721.4947890925552
73,721.4147943825102
74,721.3338585049282
75,721.2520248567347
76,721.1693420881599
77,721.0858644296345
78,721.0016520123158
79,720.9167711798863
80,720.8312947888122
81,720.7453024934706
82,720.6588810110125
83,720.5721243585162
84,720.4851340527957
85,720.3980192622464
86,720.3108969005956
87,720.2238916539067
88,720.1371359341836
89,720.050769754836
90,719.9649405245061
91,719.8798027563734
92,719.7955176906647
93,719.7122528290064
94,719.6301813803223
95,719.5494816193163
96,719.4703361604824
97,719.3929311528983
98,719.3174554031976
99,719.2440994357777
100,719.173054500622
101,719.1045115401745
102,719.0386601273337
103,718.9756873864621
104,718.915776908185
105,718.8591076671388
106,718.8058529505109
107,718.7561793048238
108,718.7102455089885
109,718.6682015826439
110,718.6301878393335
111,718.5963339933902
112,718.5667583274287
113,718.5415669247162
114,718.520852968063
115,718.5046961044739
116,718.493161872895
117,718.4863011915845
118,718.4841499020978
119,718.4867283680774
120,718.4940411284
121,718.5060766055102
122,718.522806870602
123,718.5441874674577
124,718.5701572964014
125,718.6006385593188
126,718.6355367662101
127,718.6747408034331
128,718.7181230638894
129,718.7655396398038
130,718.816830579111
131,718.8718202063507
132,718.9303175082084
133,718.9921165826163
134,719.0569971493537
135,719.124725119845
136,719.1950532241245
137,719.2677216930651
138,719.3424589936866
139,719.4189826150998
140,719.4969999029025
141,719.5762089404155
142,719.6562994751648
143,719.7369538878376
144,719.8178481989562
145,719.8986531070153
146,719.9790350520259
147,720.0586573002776
148,720.1371810484928
149,720.2142665472735
150,720.2895742447155
151,720.362765951716
152,720.4335060309005
153,720.5014626108716
154,720.5663088264736
155,720.6277240843662
156,720.6853953518743
157,720.7390184660687
158,720.7882994592957
159,720.8329558964961
160,720.8727182181682
161,720.9073310808452
162,720.9365546850564
163,720.9601660792167
164,720.9779604268002
165,720.9897522235161
166,720.9953764509291
167,720.9946896530561
168,720.9875709232199
169,720.9739227901091
170,720.953671994413
171,720.9267701499635
172,720.8931942853552
173,720.8529472634169
174,720.8060580771001
175,720.7525820216903
176,720.6926007446434
177,720.6262221752622
178,720.5535803363268
179,720.4748350387453
180,720.3901714588978
181,720.29979959753
182,720.2039536195585
183,720.1028910762438
184,719.9968920142904
185,719.8862579793107
186,719.7713109223384
187,719.6523920172872
188,719.5298603952461
189,719.4040917995068
190,719.2754771636722
191,719.1444211139091
192,719.0113403953937
193,718.876662222796
194,718.740822555429
195,718.6042642991674
196,718.4674354391158
197,718.3307871092367
198,718.1947716074118
199,718.0598403663251
200,717.9264418922014
201,717.7950196850476
202,717.6660101554896
203,717.539840553848
204,717.416926926014
205,717.2976721082763
206,717.1824637708239
207,717.0716725181707
208,716.9656500539348
209,716.8647274167475
210,716.7692132936627
211,716.6793924176374
212,716.5955240564141
213,716.5178406012466
214,716.4465462652239
215,716.3818159021041
216,716.3237939569419
217,716.272593559055
218,716.2282957662499
219,716.1909489670563
220,716.1605684453579
221,716.1371361096916
222,716.120600387761
223,716.1108762850731
224,716.1078456050151
225,716.1113573265692
226,716.1212281356911
227,716.1372431070815
228,716.15915653401
229,716.1866929041519
230,716.2195480186517
231,716.2573902500899
232,716.2998619333301
233,716.3465808819878
234,716.3971420228183
235,716.4511191404179
236,716.5080667246514
237,716.5675219129827
238,716.6290065197246
239,716.6920291443372
240,716.7560873510206
241,716.8206699117455
242,716.8852591045369
243,716.949333058305
244,717.0123681346346
245,717.0738413355115
246,717.1332327242737
247,717.1900278458454
248,717.2437201320078
249,717.2938132776932
250,717.3398235741923
251,717.3812821843858
252,717.4177373442658
253,717.4487564748506
254,717.4739281889933
255,717.4928641780011
256,717.5052009634683
257,717.5106015006696
258,717.5087566213313
259,717.4993863055556
260,717.4822407751357
261,717.4571014031231
262,717.4237814366588
263,717.3821265314178
264,717.3320150968514
265,717.2733584522489
266,717.2061007946959
267,717.1302189811015
268,717.0457221274892
269,716.9526510299179
270,716.8510774132069
271,716.7411030160996
272,716.6228585239662
273,716.4965023619593
274,716.3622193627415
275,716.2202193237327
276,716.0707354691957
277,715.9140228323084
278,715.7503565720334
279,715.580030239598
280,715.4033540098975
281,715.2206528937929
282,715.0322649476416
283,714.8385394961525
284,714.6398353838034
285,714.4365192687914
286,714.2289639720093
287,714.01754689171
288,713.8026484921536
289,713.5846508718972
290,713.3639364152971
291,713.140886529935
292,712.9158804729476
293,712.6892942696612
294,712.4614997274826
295,712.2328635464202
296,712.003746525485
297,711.7745028623892
298,711.5454795427431
299,711.3170158140076
300,711.0894427380716
301,710.863082814198
302,710.6382496617126
303,710.4152477501183
304,710.1943721638643
305,709.9759083896589
306,709.7601321152803
307,709.5473090296135
308,709.3376946140784
309,709.1315339163946
310,708.929061299403
311,708.7305001601801
312,708.5360626171004
313,708.3459491642385
314,708.1603482936255
315,707.9794360869081
316,707.8033757795935
317,707.6323173035582
318,707.4663968163834
319,707.3057362284154
320,707.1504427396626
321,707.0006083987681
322,706.8563096958109
323,706.717607199902
324,706.5845452513645
325,706.4571517164946
326,706.3354378107996
327,706.219397994844
328,706.1090099456313
329,706.0042346052846
330,705.9050163073297
331,705.8112829795098
332,705.7229464212794
333,705.6399026538178
334,705.562032340194
335,705.4892012732331
336,705.4212609289136
337,705.358049083817
338,705.2993904959341
339,705.2450976485591
340,705.1949715567941
341,705.1488026353965
342,705.1063716255065
343,705.0674505763083
344,705.0318038761525
345,704.9991893264992
346,704.9693592514909
347,704.9420616361723
348,704.9170412871855
349,704.894041010766
350,704.8728028035731
351,704.8530690521166
352,704.8345837362249
353,704.8170936310514
354,704.8003495006097
355,704.7841072741401
356,704.7681291952778
357,704.7521849333791
358,704.7360526464564
359,704.7195199858171
360,704.7023850335809
361,704.684457165639
362,704.6655578340889
363,704.6455212645536
364,704.6241950651341
365,704.6014407452756
366,704.5771341446924
367,704.5511657745604
368,704.5234410751053
369,704.4938805950195
370,704.4624200984107
371,704.4290106042871
372,704.393618362586
373,704.3562247703227
374,704.3168262318812
375,704.2754339682256
376,704.2320737802168
377,704.1867857712999
378,704.139624034732
379,704.0906563101103
380,704.0399636130994
381,703.9876398412226
382,703.933791357637
383,703.8785365540139
384,703.8220053929602
385,703.7643389299154
386,703.705688814204
387,703.6462167689467
388,703.5860940496508
389,703.5255008812164
390,703.4646258727616
391,703.4036654094243
392,703.3428230204075
393,703.2823087228622
394,703.2223383414524
395,703.1631328034465
396,703.1049174089022
397,703.0479210751652
398,702.9923755548347
399,702.9385146267045
400,702.8865732597985
401,702.8367867512063
402,702.7893898389718
403,702.7446157920215
404,702.7026954800946
405,702.6638564275146
406,702.6283218548701
407,702.596309711983
408,702.568031704352
409,702.5436923145297
410,702.5234878203354
411,702.5076053134599
412,702.4962217243067
413,702.4895028610323
414,702.4876024720902
415,702.4906613422093
416,702.4988064320811
417,702.5121500724005
418,702.5307892233369
419,702.554804811126
420,702.584261154217
421,702.6192054917035
422,702.659667625759
423,702.705659687364
424,702.7571760314435
425,702.814193264342
426,702.876670403703
427,702.944549168307
428,703.017754393182
429,703.0961945633308
430,703.1797624578878
431,703.2683358953856
432,703.3617785698689
433,703.459940966853
434,703.5626613475222
435,703.6697667885345
436,703.7810742629102
437,703.8963917453681
438,704.0155193242286
439,704.1382503022451
440,704.2643722705731
441,704.3936681432555
442,704.5259171430808
443,704.6608957322154
444,704.7983784823343
445,704.9381388801187
446,705.079950065999
447,705.2235855068848
448,705.3688196063546
449,705.5154282571934
450,705.6631893407136
451,705.8118831757224
452,705.9612929187595
453,706.1112049170716
454,706.2614090163288
455,706.4116988257432
456,706.5618719439681
457,706.7117301499726
458,706.8610795638339
459,707.0097307827195
460,707.157498997085
461,707.3042040914005
462,707.4496707330622
463,707.593728453086
464,707.7362117227343
465,707.8769600307553
466,708.0158179658052
467,708.1526353079475
468,708.2872671324037
469,708.4195739283056
470,708.5494217348773
471,708.6766822968583
472,708.8012332399569
473,708.922958266144
474,709.0417473681509
475,709.1574970625344
476,709.2701106403083
477,709.3794984327145
478,709.485578087246
479,709.5882748463129
480,709.6875218190086
481,709.7832602360654
482,709.8754396794133
483,709.9640182802376
484,710.0489628820939
485,710.1302491677126
486,710.2078617494856
487,710.2817942242701
488,710.3520491928173
489,710.4186382427937
490,710.4815818928464
491,710.5409094944503
492,710.5966590885207
493,710.648877214348
494,710.69761866893
495,710.7429462154947
496,710.7849302411757
497,710.8236483651157
498,710.8591849990676
499,710.8916308625844
500,710.9210824546512
501,710.947641484044
502,710.9714142623909
503,710.9925110663089
504,711.0110454767482
505,711.0271337040298
506,711.0408939066369
507,711.0524455116699
508,711.0619085452021
509,711.0694029809104
510,711.075048114431
511,711.0789619687521
512,711.0812607336258
513,711.0820582407973
514,711.0814654771136
515,711.0795901385773
516,711.0765362293953
517,711.0724037104965
518,711.0672882015797
519,711.0612807397334
520,711.0544675965956
521,711.0469301551564
522,711.0387448464212
523,711.0299831450993
524,711.0207116225032
525,711.0109920541113
526,711.000881578681
527,710.990432905199
528,710.9796945631259
529,710.9687111902488
530,710.9575238512413
531,710.9461703791769
532,710.9346857318596
533,710.9231023545979
534,710.9114505408811
535,710.8997587828466
536,710.8880541048673
537,710.8763623757364
538,710.8647085970385
539,710.853117166795
540,710.841612118334
541,710.8302173351212
542,710.8189567433953
543,710.8078544855528
544,710.7969350776439
545,710.7862235537978
546,710.7757455990824
547,710.7655276707301
548,710.7555971064476
549,710.7459822180292
550,710.7367123686679
551,710.7278180330553
552,710.7193308405023
553,710.7112836025512
554,710.7037103272428
555,710.6966462218365
556,710.6901276845294
557,710.6841922844242
558,710.6788787284879
559,710.674226814609
560,710.6702773705433
561,710.6670721789244
562,710.6646538882986
563,710.6630659096234
564,710.6623522975337
565,710.6625576163574
566,710.6637267919107
567,710.6659049507575
568,710.6691372485792
569,710.6734686891157
570,710.6789439354401
571,710.6856071160478
572,710.693501628537
573,710.7026699426846
574,710.7131534027894
575,710.7249920275001
576,710.7382243048986
577,710.7528869812298
578,710.7690148427589
579,710.7866404915472
580,710.8057941174834
581,710.8265032704444
582,710.8487926374223
583,710.8726838295559
584,710.8981951834202
585,710.9253415799127
586,710.9541342828333
587,710.9845807980956
588,711.016684753512
589,711.0504457981917
590,711.08585951993
591,711.1229173788662
592,711.1616066562028
593,711.2019104175358
594,711.2438074910582
595,711.2872724615149
596,711.33227568154
597,711.378783302671
598,711.4267573279875
599,711.4761556862487
600,711.5269323243658
601,711.5790373126907
602,711.6324169568844
603,711.6870139106609
604,711.7427672845953
605,711.799612747018
606,711.8574826140638
607,711.9163059276159
608,711.9760085218679
609,712.0365130805925
610,712.0977391875424
611,712.1596033722245
612,712.2220191532357
613,712.2848970815605
614,712.3481447864747
615,712.4116670266941
616,712.475365748978
617,712.5391401557129
618,712.6028867825295
619,712.666499586954
620,712.7298700493101
621,712.7928872875475
622,712.8554381885336
623,712.9174075594098
624,712.9786783030746
625,713.0391316208376
626,713.0986472429692
627,713.1571036856045
628,713.2143785312173
629,713.2703487291494
630,713.3248909115631
631,713.3778817191197
632,713.4291981306664
633,713.4787177920523
634,713.5263193399187
635,713.5718827167613
636,713.6152894743242
637,713.6564230634241
638,713.6951691090422
639,713.7314156699578
640,713.7650534830908
641,713.7959761945682
642,713.8240805816231
643,713.8492667705548
644,713.8714384556719
645,713.8905031232285
646,713.9063722837521
647,713.918961715995
648,713.9281917256324
649,713.9339874216125
650,713.936279012956
651,713.9350021289313
652,713.9300981656437
653,713.9215146616162
654,713.9092057037085
655,713.8931323633062
656,713.873263162059
657,713.8495745667253
658,713.8220515130641
659,713.7906879581075
660,713.7554874580994
661,713.7164637662656
662,713.6736414413183
663,713.6270564549847
664,713.5767567851715
665,713.5228029805708
666,713.4652686824879
667,713.4042410903822
668,713.3398213587459
669,713.2721249139129
670,713.2012816798996
671,713.1274362030408
672,713.0507476669737
673,712.9713897927303
674,712.8895506225052
675,712.8054321890555
676,712.719250075375
677,712.6312328714598
678,712.5416215365301
679,712.4506686756713
680,712.35863773963
681,712.2658021559922
682,712.1724443995062
683,712.0788550088207
684,711.9853315563892
685,711.8921775780375
686,711.7997014688516
687,711.7082153520914
688,711.6180339270998
689,711.5294733005544
690,711.4428498034475
691,711.3584787943649
692,711.2766734480534
693,711.1977435269862
694,711.1219941330414
695,711.0497244368482
696,710.9812263835481
697,710.9167833750768
698,710.8566689304803
699,710.801145327913
700,710.7504622351684
701,710.704855339035
702,710.664544986015
703,710.629734847496
704,710.600610622287
705,710.5773387897325
706,710.5600654275886
707,710.5489151097348
708,710.5439898989387
709,710.5453684491196
710,710.5531052300788
711,710.5672298858003
712,710.5877467354499
713,710.6146344241798
714,710.6478457287748
715,710.6873075208758
716,710.7329208876032
717,710.7845614055357
718,710.84207955982
719,710.9053012970784
720,710.9740286996325
721,711.0480407688419
722,711.1270943058395
723,711.2109248781196
724,711.2992478608935
725,711.3917595437771
726,711.4881382963275
727,711.5880457891665
728,711.6911282694265
729,711.7970178892651
730,711.9053340848507
731,712.0156850017988
732,712.1276689623046
733,712.2408759691486
734,712.3548892419818
735,712.4692867814083
736,712.583642956096
737,712.6975301071545
738,712.8105201622088
739,712.9221862492469
740,713.0321042982457
741,713.1398546176542
742,713.2450234334907
743,713.3472043809875
744,713.445999941672
745,713.5410228215436
746,713.6318972681282
747,713.7182603258755
748,713.7997630307813
749,713.8760715460731
750,713.9468682410202
751,714.0118527144174
752,714.0707427633057
753,714.1232752964011
754,714.1692071906887
755,714.2083160886885
756,714.2404011329312
757,714.2652836333175
758,714.2828076624082
759,714.2928405733879
760,714.2952734356963
761,714.2900213845603
762,714.2770238828617
763,714.2562448959713
764,714.2276729810973
765,714.1913212918823
766,714.1472274972127
767,714.0954536117669
768,714.0360857355531
769,713.9692337004512
770,713.8950306230738
771,713.8136323649861
772,713.7252169034888
773,713.6299836183391
774,713.5281525013038
775,713.4199632960695
776,713.3056745760334
777,713.1855627671437
778,713.0599211223293
779,712.9290586531364
780,712.7932990231556
781,712.652979407003
782,712.5084493180386
783,712.3600694074961
784,712.2082102371428
785,712.0532510269005
786,711.8955783779844
787,711.7355849714786
788,711.5736682425749
789,711.410229032026
790,711.2456702179682
791,711.0803953325405
792,710.9148071685454
793,710.7493063817255
794,710.5842900942823
795,710.4201505055464
796,710.2572735166374
797,710.0960373771977
798,709.9368113630808
799,709.7799544936103
800,709.6258142958492
801,709.4747256220356
802,709.3270095255691
803,709.1829722004137
804,709.0429039877945
805,708.9070784525211
806,708.775751529912
807,708.6491607438948
808,708.5275244974788
809,708.4110414379384
810,708.2998899001877
811,708.1942274326683
812,708.094190410489
813,707.9998937405829
814,707.911430663172
815,707.8288726526608
816,707.7522694193075
817,707.6816490113384
818,707.6170180163409
819,707.5583618607717
820,707.5056452063822
821,707.4588124414744
822,707.4177882634029
823,707.3824783475361
824,707.3527700973182
825,707.3285334694589
826,707.3096218669361
827,707.2958730906608
828,707.2871103392418
829,707.2831432459316
830,707.2837689424103
831,707.288773140154
832,707.2979312214311
833,707.3110093333252
834,707.3277654792371
835,707.347950602679
836,707.3713096576873
837,707.3975826593567
838,707.4265057076759
839,707.4578119785012
840,707.4912326768886
841,707.5264979496656
842,707.5633377558513
843,707.6014826951368
844,707.6406647956694
845,707.6806182625087
846,707.7210801874644
847,707.761791220063
848,707.8024961986666
849,707.842944740623
850,707.8828917907286
851,707.9220981278313
852,707.9603308295327
853,707.9973636947573
854,708.0329776244047
855,708.0669609623052
856,708.09910980177
857,708.1292282655872
858,708.1571287682563
859,708.182632268798
860,708.2055685214532
861,708.2257763305096
862,708.2431038144553
863,708.2574086833428
864,708.2685585313022
865,708.276431143671
866,708.2809148158454
867,708.2819086791483
868,708.2793230274345
869,708.2730796365137
870,708.2631120671514
871,708.2493659423637
872,708.2317991911157
873,708.2103822524881
874,708.1850982357098
875,708.155943031746
876,708.1229253717482
877,708.0860668272285
878,708.0454017468734
879,708.0009771257663
880,707.9528524045389
881,707.9010991984429
882,707.845800958997
883,707.7870525730381
884,707.7249599053074
885,707.6596392912252
886,707.5912169865546
887,707.5198285803451
888,707.4456183769838
889,707.3687387527658
890,707.2893494924239
891,707.2076171112208
892,707.1237141679266
893,707.0378185732561
894,706.9501128975351
895,706.8607836807279
896,706.7700207474921
897,706.6780165294888
898,706.5849653966717
899,706.4910629988465
900,706.3965056188609
901,706.301489539429
902,706.2062104261503
903,706.1108627290632
904,706.0156391041959
905,705.9207298560459
906,705.8263224025637
907,705.7326007659178
908,705.6397450939735
909,705.547931217695
910,705.4573302480949
911,705.368108213535
912,705.2804257354005
913,705.1944377384875
914,705.1102931922222
915,705.02813487943
916,704.9480991898109
917,704.8703159351026
