frame_number,force
0,723.5717159843186
1,723.5977673652814
2,723.6236452722202
3,723.6491775300847
4,723.6741945418357
5,723.6985305280764
6,723.7220247087183
7,723.7445224092869
8,723.7658760756362
9,723.7859461822376
10,723.8046020213218
11,723.8217223631071
12,723.837195980786
13,723.850922037717
14,723.862810338455
15,723.8727814494024
16,723.8807666979859
17,723.8867080606656
18,723.8905579501203
19,723.8922789114906
20,723.8918432372342
21,723.8892325101065
22,723.8844370838797
23,723.8774555113699
24,723.8682939288852
25,723.8569654055633
26,723.8434892660549
27,723.8278903960653
28,723.810198541669
29,723.7904476140264
30,723.7686750107391
31,723.7449209637197
32,723.7192279214736
33,723.6916399714293
34,723.6622023053312
35,723.6309607275114
36,723.5979612027445
37,723.5632494386866
38,723.5268704981903
39,723.4888684386016
40,723.4492859776173
41,723.4081641876902
42,723.3655422226542
43,723.3214570808278
44,723.2759434084653
45,723.2290333464596
46,723.1807564220444
47,723.1311394860297
48,723.0802066948652
49,723.0279795358779
50,722.9744768938792
51,722.919715157966
52,722.8637083679797
53,722.8064684000149
54,722.7480051895801
55,722.6883269899062
56,722.6274406616417
57,722.5653519887112
58,722.5020660136032
59,722.4375873845235
60,722.3719207073646
61,722.3050708972041
62,722.2370435261168
63,722.1678451656346
64,722.0974837230998
65,722.0259687718587
66,721.9533118760971
67,721.8795269120419
68,721.8046303877819
69,721.7286417637791
70,721.651583775465
71,721.573482758579
72,721.4943689772591
73,721.414276954248
74,721.3332458019632
75,721.2513195527637
76,721.1685474865533
77,721.0849844538018
78,721.0006911919278
79,720.9157346326964
80,720.8301881978363
81,720.7441320793134
82,720.6576534991863
83,720.5708469416855
84,720.4838143480072
85,720.3966652633457
86,720.3095169261685
87,720.2224942912007
88,720.1357299795613
89,720.04936415138
90,719.9635442974499
91,719.8784249470832
92,719.7941672899408
93,719.7109387105043
94,719.628912234921
95,719.5482658912639
96,719.4691819861314
97,719.391846302798
98,719.3164472282319
99,719.2431748179451
100,719.1722198089369
101,719.1037725920474
102,719.0380221556551
103,718.9751550124853
104,718.9153541201998
105,718.8587978048384
106,718.805658694892
107,718.7561026734037
108,718.710287856059
109,718.6683636042048
110,718.6304695822606
111,718.5967348683214
112,718.5672771248032
113,718.5422018333928
114,718.5216015959712
115,718.5055555008125
116,718.4941285514807
117,718.4873711550473
118,718.4853186667143
119,718.4879909890976
120,718.4953922257729
121,718.5075103899392
122,718.5243171698771
123,718.5457677530144
124,718.5718007100647
125,718.6023379402073
126,718.6372846777874
127,718.6765295607148
128,718.7199447608206
129,718.7673861768275
130,718.8186936909364
131,718.8736914899251
132,718.9321884508876
133,718.993978590541
134,719.058841576059
135,719.1265432951442
136,719.1968364833232
137,719.2694614065609
138,719.3441465970158
139,719.4206096394914
140,719.4985580063989
141,719.5776899395973
142,719.6576953774982
143,719.7382569246514
144,719.8190508590732
145,719.8997481710935
146,719.9800156276957
147,720.0595168581569
148,720.1379134591232
149,720.2148661189544
150,720.2900357621317
151,720.3630847151553
152,720.4336778957627
153,720.5014840270649
154,720.5661768772123
155,720.6274365238138
156,720.6849506410273
157,720.7384158062447
158,720.7875388225633
159,720.8320380523772
160,720.8716447559528
161,720.9061044269041
162,720.9351781146063
163,720.9586437220885
164,720.9762972668751
165,720.9879540916199
166,720.9934500111068
167,720.9926423822849
168,720.985411084749
169,720.9716594007203
170,720.9513147859772
171,720.9243295257143
172,720.8906812713244
173,720.8503734554833
174,720.8034355841003
175,720.7499234050224
176,720.6899189547672
177,720.6235304854556
178,720.5508922740343
179,720.4721643148416
180,720.3875318952099
181,720.2972050529918
182,720.2014179154132
183,720.1004279207157
184,719.994514927123
185,719.8839802165049
186,719.7691454013514
187,719.6503512428933
188,719.5279563862422
189,719.4023360164518
190,719.2738804378951
191,719.142993578075
192,719.0100914160054
193,718.8756003350894
194,718.7399554012105
195,718.6035985681958
196,718.4669768146761
197,718.330540218561
198,718.1947399775812
199,718.0600263862395
200,717.9268467811386
201,717.7956434682366
202,717.6668516470141
203,717.5408973470743
204,717.4181953916318
205,717.2991473999666
206,717.1841398385293
207,717.0735421289211
208,716.9677048201695
209,716.8669578320665
210,716.7716087759363
211,716.681941359389
212,716.5982138823639
213,716.5206578328538
214,716.4494765919919
215,716.3848442593162
216,716.3269046093849
217,716.2757701901861
218,716.2315215721726
219,716.1942067546071
220,716.1638407335678
221,716.1404052338721
222,716.123848605464
223,716.1140858831942
224,716.1109990073422
225,716.1144372011191
226,716.1242175012122
227,716.1401254381205
228,716.1619158639353
229,716.1893139255128
230,716.2220161802439
231,716.2596918501005
232,716.3019842079572
233,716.3485120889642
234,716.3988715193032
235,716.4526374547474
236,716.5093656214625
237,716.5685944512422
238,716.6298471032185
239,716.6926335641856
240,716.7564528197967
241,716.82079508878
242,716.8851441120042
243,716.9489794877034
244,717.0117790432985
245,717.0730212328469
246,717.1321875474777
247,717.1887649249632
248,717.2422481442809
249,717.2921421912447
250,717.3379645811968
251,717.3792476239862
252,717.4155406156281
253,717.4464119408847
254,717.471451071402
255,717.4902704444519
256,717.5025072078172
257,717.5078248172896
258,717.5059144747041
259,717.4964963963749
260,717.4793209042266
261,717.4541693345102
262,717.4208547611173
263,717.3792225318333
264,717.3291506166985
265,717.2705497684811
266,717.2033634963092
267,717.1275678545984
268,717.043171050426
269,716.950212873663
270,716.8487639559629
271,716.7389248671427
272,716.6208250599183
273,716.4946216757613
274,716.3604982258296
275,716.2186631617476
276,716.0693483513859
277,715.9128074746233
278,715.7493143537446
279,715.5791612331379
280,715.402657023447
281,715.2201255259885
282,715.0319036536065
283,714.8383396638988
284,714.639791419903
285,714.4366246920919
286,714.229211514064
287,714.0179286025156
288,713.8031558497449
289,713.5852748943431
290,713.3646677736645
291,713.1417156608252
292,712.9167976892379
293,712.6902898681063
294,712.4625640918607
295,712.2339872449523
296,712.0049204013372
297,711.7757181161637
298,711.5467278059814
299,711.3182892128534
300,711.0907339463861
301,710.864385095589
302,710.6395569001427
303,710.4165544689766
304,710.1956735336166
305,709.9772002244025
306,709.761410858726
307,709.5485717311986
308,709.3389388960857
309,709.1327579331104
310,708.9302636894763
311,708.7316799934345
312,708.5372193371027
313,708.347082527954
314,708.1614583094927
315,707.9805229526572
316,707.8044398210906
317,707.6333589158834
318,707.4674164082295
319,707.3067341707367
320,707.1514193193261
321,707.0015637777792
322,706.8572438765091
323,706.7185199963541
324,706.5854362670291
325,706.4580203281034
326,706.3362831582973
327,706.2202189771513
328,706.1098052219312
329,706.0050026014841
330,705.9057552273179
331,705.8119908208216
332,705.7236209947717
333,705.6405416069626
334,705.5626331835963
335,705.4897614099792
336,705.4217776863529
337,705.3585197473599
338,705.299812344422
339,705.2454679907258
340,705.1952877683008
341,705.1490621958984
342,705.1065721552033
343,705.0675898714356
344,705.0318799429125
345,704.9992004129698
346,704.9693038771151
347,704.9419386184782
348,704.9168497654316
349,704.8937804662312
350,704.8724730762278
351,704.8526703534269
352,704.8341166578591
353,704.816559149292
354,704.7997489763285
355,704.7834424482763
356,704.7674021798582
357,704.75139819823
358,704.7352090018703
359,704.7186225615385
360,704.7014372545663
361,704.6834627251164
362,704.6645206644964
363,704.6444455069691
364,704.6230850378283
365,704.6003009120188
366,704.5759690834177
367,704.5499801469339
368,704.5222395974774
369,704.4926680111367
370,704.4612011541707
371,704.4277900247412
372,704.3924008313257
373,704.3550149113316
374,704.3156285938753
375,704.274253011435
376,704.2309138654958
377,704.1856511513807
378,704.1385188473738
379,704.08958457284
380,704.0389292192009
381,703.9866465566064
382,703.9328428182173
383,703.8776362632267
384,703.8211567190748
385,703.763545102821
386,703.7049529213896
387,703.6455417504268
388,703.5854826916294
389,703.5249558083201
390,703.4641495387184
391,703.4032600861191
392,703.3424907852966
393,703.2820514447756
394,703.2221576648599
395,703.1630301313113
396,703.1048938842948
397,703.047977561871
398,702.9925126172442
399,702.9387325093304
400,702.8868718668099
401,702.8371656264054
402,702.7898481466664
403,702.7451522992644
404,702.7033085407659
405,702.6645439687079
406,702.6290813660308
407,702.5971382372395
408,702.568925838491
409,702.5446482030839
410,702.5245011642602
411,702.5086713788615
412,702.4973353576316
413,702.490658510045
414,702.4887942128621
415,702.4918829122223
416,702.5000512694272
417,702.5134113609248
418,702.5320599434322
419,702.5560777957304
420,702.5855291494033
421,702.6204612210734
422,702.6609038576904
423,702.7068693040333
424,702.7583520984515
425,702.8153290997316
426,702.8777596451454
427,702.9455858372625
428,703.0187329548927
429,703.0971099815856
430,703.1806102436
431,703.2691121481344
432,703.3624800116851
433,703.4605649676602
434,703.5632059417853
435,703.6702306828194
436,703.781456834236
437,703.8966930304441
438,704.0157399998881
439,704.1383916576087
440,704.264436171666
441,704.3936569909466
442,704.5258338253111
443,704.6607435715363
444,704.7981611798193
445,704.937860456733
446,705.0796148025051
447,705.2231978833177
448,705.3683842420137
449,705.5149498519932
450,705.662672618637
451,705.8113328310491
452,705.9607135656835
453,706.1106010432727
454,706.2607849410017
455,706.4110586625246
456,706.5612195691232
457,706.711069176119
458,706.8604133193855
459,707.0090622971348
460,707.156830991911
461,707.3035389770223
462,707.449010610999
463,707.5930751236049
464,707.7355666974792
465,707.8763245500086
466,708.0151930199235
467,708.1520216624458
468,708.2866653561096
469,708.4189844239565
470,708.5488447714971
471,708.6761180432146
472,708.8006817983937
473,708.9224197060786
474,709.0412217585382
475,709.1569845026113
476,709.2696112879468
477,709.3790125297527
478,709.4851059812412
479,709.587817008276
480,709.6870788568259
481,709.7828329034626
482,709.8750288804515
483,709.9636250694294
484,710.0485884602875
485,710.1298948739293
486,710.2075290489053
487,710.2814846925697
488,710.3517644970758
489,710.418380119211
490,710.4813521215765
491,710.5407098719166
492,710.5964913976413
493,710.6487431931538
494,710.6975199781089
495,710.7428844054303
496,710.7849067190737
497,710.823664362811
498,710.8592415421008
499,710.8917287411252
500,710.9212221968432
501,710.947823332335
502,710.9716381533765
503,710.9927766145476
504,711.0113519629111
505,711.0274800676477
506,711.0412787436121
507,711.052867076625
508,711.0623647586403
509,711.069891441059
510,711.0755661135506
511,711.0795065136342
512,711.0818285699728
513,711.0826458811694
514,711.0820692321065
515,711.0802061508657
516,711.0771605102275
517,711.0730321781688
518,711.0679167213708
519,711.0619051647394
520,711.0550838088819
521,711.0475341066328
522,711.0393325988401
523,711.0305509085913
524,711.021255792089
525,711.0115092436623
526,711.0013686518399
527,710.9908870028204
528,710.9801131268529
529,710.9690919819169
530,710.957864967889
531,710.9464702635439
532,710.9349431783585
533,710.9233165108518
534,710.9116209050301
535,710.8998851969264
536,710.8881367446467
537,710.8764017374478
538,710.8647054814572
539,710.8530726611169
540,710.8415275762899
541,710.8300943557341
542,710.8187971487497
543,710.8076602978839
544,710.7967084959917
545,710.7859669304135
546,710.7754614157398
547,710.7652185150802
548,710.7552656485578
549,710.7456311872627
550,710.7363445310655
551,710.727436169387
552,710.7189377251383
553,710.7108819832711
554,710.7033029060614
555,710.69623563689
556,710.6897164930494
557,710.6837829468311
558,710.6784735936488
559,710.6738281063106
560,710.6698871752315
561,710.6666924347554
562,710.6642863755458
563,710.6627122424895
564,710.6620139174319
565,710.6622357867194
566,710.6634225945743
567,710.6656192839566
568,710.668870826544
569,710.6732220432732
570,710.6787174171825
571,710.6854009010091
572,710.6933157222827
573,710.7025041877009
574,710.7130074866659
575,710.724865492234
576,710.738116557291
577,710.7527973043718
578,710.7689424086243
579,710.7865843747064
580,710.8057533099284
581,710.8264766974687
582,710.8487791744411
583,710.8726823196898
584,710.8982044556149
585,710.9253604673263
586,710.9541616412083
587,710.9846155238237
588,711.0167258011138
589,711.0504921969592
590,711.0859103895074
591,711.1229719435854
592,711.1616642580121
593,711.2019705273805
594,711.2438697185745
595,711.2873365628988
596,711.3323415654337
597,711.3788510338924
598,711.4268271289042
599,711.4762279356115
600,711.5270075534692
601,711.5791161988167
602,711.6325003140838
603,711.6871026780152
604,711.7428625121812
605,711.79971557986
606,711.8575942744103
607,711.9164276959001
608,711.9761417167116
609,712.0366590381876
610,712.0978992407172
611,712.1597788294764
612,712.2222112779868
613,712.2851070718636
614,712.3483737553646
615,712.4119159833473
616,712.4756355808148
617,712.53943161156
618,712.6032004569477
619,712.6668359058252
620,712.7302292567626
621,712.7932694342759
622,712.8558431215331
623,712.9178349130965
624,712.9791274917
625,713.039601832061
626,713.0991374324412
627,713.1576125724293
628,713.2149045941989
629,713.2708902037709
630,713.3254457877084
631,713.3784477396168
632,713.4297727908086
633,713.4792983403088
634,713.5269027800949
635,713.5724658119096
636,713.6158687527319
637,713.6569948270155
638,713.6957294445327
639,713.731960463087
640,713.7655784362419
641,713.7964768480255
642,713.8245523386432
643,713.8497049263221
644,713.8718382301162
645,713.8908596975972
646,713.9066808407533
647,713.919217483251
648,713.9283900221093
649,713.9341237066199
650,713.9363489372373
651,713.9350015872934
652,713.930023350496
653,713.9213621167214
654,713.9089723773936
655,713.8928156603512
656,713.8728609934562
657,713.8490853964796
658,713.8214744011682
659,713.7900225988113
660,713.7547342125952
661,713.7156236889687
662,713.6727162990258
663,713.6260487383337
664,713.5756697119883
665,713.5216404908847
666,713.4640354251644
667,713.4029424015072
668,713.3384632320553
669,713.2707139637141
670,713.1998250970769
671,713.1259417048769
672,713.0492234416391
673,712.9698444393659
674,712.8879930878495
675,712.8038717015451
676,712.7176960775936
677,712.6296949517264
678,712.5401093603153
679,712.4491919174264
680,712.3572060155104
681,712.26442495787
682,712.1711310305891
683,712.0776145211256
684,711.9841726902614
685,711.8911087038585
686,711.7987305310265
687,711.7073498153611
688,711.617280725191
689,711.5288387871706
690,711.4423397056274
691,711.3580981682862
692,711.276426637432
693,711.1976341243189
694,711.1220249440453
695,711.049897448544
696,710.9815427365243
697,710.9172433405292
698,710.85727189267
699,710.8018897726929
700,710.7513457451981
701,710.7058745962173
702,710.6656957815668
703,710.631012099942
704,710.6020084035347
705,710.5788503592524
706,710.561683274574
707,710.5506310029457
708,710.5457949437653
709,710.547253151234
710,710.5550595648962
711,710.569243372846
712,710.5898085166284
713,710.616733344866
714,710.6499704205944
715,710.689446485022
716,710.7350625775467
717,710.7866943080521
718,710.8441922733758
719,710.9073826067773
720,710.9760676480934
721,711.0500267225381
722,711.1290170165818
723,711.2127745395042
724,711.301015159666
725,711.393435706168
726,711.4897151294664
727,711.589515717688
728,711.6924843673526
729,711.798253907214
730,711.9064444726065
731,712.0166649262765
732,712.1285143209499
733,712.2415833988201
734,712.3554561233581
735,712.4697112389604
736,712.5839238536613
737,712.6976670391601
738,712.8105134406255
739,712.9220368864214
740,713.0318139858551
741,713.1394257021361
742,713.2444588884022
743,713.3465077768138
744,713.4451754136325
745,713.5400750359305
746,713.6308313876754
747,713.7170819745871
748,713.7984782585712
749,713.87468679347
750,713.9453903041026
751,714.0102887100571
752,714.069100094732
753,714.1215616190498
754,714.1674303782728
755,714.2064841994111
756,714.2385223757697
757,714.2633663343296
758,714.2808602310452
759,714.2908714688441
760,714.2932911333697
761,714.2880343427304
762,714.2750405096937
763,714.2542735169369
764,714.2257218068688
765,714.1893983867445
766,714.145340748051
767,714.0936106977331
768,714.0342940985603
769,713.9675005166906
770,713.8933627757779
771,713.8120364186701
772,713.7236990798859
773,713.6285497741985
774,713.526808108158
775,713.4187134220106
776,713.3045238694739
777,713.184515442481
778,713.0589809473904
779,712.92822893825
780,712.792582611692
781,712.6523786672228
782,712.5079661361099
783,712.3597051815626
784,712.2079658723604
785,712.0531269314031
786,711.8955744598005
787,711.7357006364879
788,711.5739023936601
789,711.4105800696223
790,711.2461360422337
791,711.0809733473804
792,710.9154942877097
793,710.7500990371915
794,710.5851842471156
795,710.4211416594179
796,710.2583567341337
797,710.0972072990113
798,709.9380622300954
799,709.7812801718318
800,709.6272083040795
801,709.4761811621488
802,709.3285195152213
803,709.1845293079922
804,709.0445006693997
805,708.9087069907774
806,708.7774040744272
807,708.6508293532075
808,708.5292011823461
809,708.412718205803
810,708.3015588006369
811,708.1958806036458
812,708.095820124969
813,708.0014924533529
814,707.9129910573125
815,707.8303876852652
816,707.7537323659609
817,707.6830535088736
818,707.6183581033915
819,707.5596320156451
820,707.5068403817733
821,707.4599280955483
822,707.4188203868011
823,707.3834234859005
824,707.3536253689733
825,707.329296577945
826,707.3102911081527
827,707.2964473544723
828,707.2875891055103
829,707.283526575053
830,707.284057460538
831,707.2889680193754
832,707.2980341552363
833,707.3110225077488
834,707.3276915400894
835,707.347792619306
836,707.3710710837329
837,707.397267291044
838,707.4261176401733
839,707.4573555609768
840,707.4907124668827
841,707.525918667403
842,707.5627042390919
843,707.6007998551132
844,707.6399375745987
845,707.679851593105
846,707.7202789548262
847,707.7609602262726
848,707.8016401304177
849,707.8420681401701
850,707.8819990304302
851,707.9211933885275
852,707.9594180829715
853,707.996446690255
854,708.0320598799009
855,708.0660457599146
856,708.0982001878381
857,708.1283270551236
858,708.1562385534764
859,708.1817554313715
860,708.2047072479354
861,708.2249326303378
862,708.2422795398045
863,708.2566055500756
864,708.267778140215
865,708.2756750012421
866,708.2801843537363
867,708.281205271772
868,708.2786480070055
869,708.2724343051059
870,708.2624977054364
871,708.2487838148375
872,708.2312505477489
873,708.2098683268318
874,708.1846202395656
875,708.1555021465882
876,708.1225227371683
877,708.0857035267628
878,708.0450787916661
879,708.0006954365997
880,707.9526127928194
881,707.9009023467527
882,707.845647401803
883,707.786942678107
884,707.7248938563059
885,707.6596170719185
886,707.5912383669407
887,707.5198931049948
888,707.4457253557995
889,707.3688872543172
890,707.2895383399672
891,707.2078448814502
892,707.1239791924546
893,707.0381189427779
894,706.9504464686017
895,706.8611480850313
896,706.7704134035478
897,706.678434656592
898,706.5854060309987
899,706.4915230115718
900,706.3969817361642
901,706.3019783642524
902,706.2067084615479
903,706.1113664029655
904,706.0161447954056
905,705.9212339212829
906,705.8268212043648
907,705.7330907011624
908,705.6402226227436
909,705.5483928921151
910,705.4577727407483
911,705.3685283450527
912,705.280820500848
913,705.1948043322343
914,705.110629031036
915,705.0284376235868
916,704.948366762055
917,704.8705465373318
