frame_number,force
0,603.1964100000389
1,603.0446632667669
2,602.8948718525411
3,602.7490693243541
4,602.6094122719844
5,602.4781651604579
6,602.3576040064111
7,602.2498219985321
8,602.1564389349261
9,602.0782559003877
10,602.0149390034591
11,601.9648341041471
12,601.92499391324
13,601.8914464784732
14,601.8596732686129
15,601.825217735519
16,601.7843177543351
17,601.734446598775
18,601.6746602411587
19,601.6056883051745
20,601.5297689351842
21,601.4502968418456
22,601.3713989974723
23,601.2975479695115
24,601.2332680097417
25,601.1829168225665
26,601.1504836041922
27,601.139353238206
28,601.1520290563224
29,601.1898495487774
30,601.2527558628549
31,601.3391617432408
32,601.4459590011812
33,601.5686801437704
34,601.7018353464946
35,601.8394160850576
36,601.9754977694059
37,602.1048150280778
38,602.2231827766534
39,602.3277028792505
40,602.41678042926
41,602.4900219164473
42,602.5480851396837
43,602.59251790726
44,602.6255896571685
45,602.6501063697851
46,602.6692054601791
47,602.6861422278229
48,602.7040893908369
49,602.7259712656876
50,602.754347538507
51,602.7913463156711
52,602.83861998123
53,602.8972781369663
54,602.967762134856
55,603.0496611755348
56,603.1415102099941
57,603.2406426301266
58,603.3431870063529
59,603.4442847970854
60,603.5385593792018
61,603.620795348055
62,603.6867156555483
63,603.7337029842369
64,603.7613166319107
65,603.7714975520105
66,603.768411286277
67,603.7579407776826
68,603.7469044581674
69,603.7421269355929
70,603.7495155735719
71,603.7732917000508
72,603.815489201822
73,603.8757703561755
74,603.9515432098129
75,604.0383252352977
76,604.1302837774263
77,604.2208751057392
78,604.3034990590382
79,604.3720991419418
80,604.4216658396157
81,604.4486243427832
82,604.4510971963239
83,604.4290335643186
84,604.3841985683115
85,604.3200244150746
86,604.2413382366135
87,604.1539898424599
88,604.0644015938074
89,603.9790601724245
90,603.9039751233864
91,603.8441446684302
92,603.8030920292946
93,603.7825518039917
94,603.7823749264138
95,603.800673082419
96,603.8341572328993
97,603.8785760676777
98,603.9291558017877
99,603.9809809512943
100,604.0293074348955
101,604.0698311745581
102,604.0989348162572
103,604.1139127338469
104,604.113148539588
105,604.0962053965256
106,604.0637955851854
107,604.0176210194523
108,603.9601128894789
109,603.8941317724899
110,603.8226992424226
111,603.7488076870487
112,603.67531014595
113,603.60485288834
114,603.5397978594564
115,603.4820930204085
116,603.4330801408153
117,603.3932712081091
118,603.3621605971764
119,603.3381517893031
120,603.3186545836058
121,603.3003607213583
122,603.2796561500186
123,603.2530964449585
124,603.2178600433616
125,603.1720933316889
126,603.115074923155
127,603.0471662074151
128,602.9695762823432
129,602.8840215916385
130,602.7923759431382
131,602.6963847621088
132,602.5974820930633
133,602.4967202637494
134,602.3948025562612
135,602.292196956894
136,602.1893047213224
137,602.0866534905092
138,601.9850749916394
139,601.8858244780791
140,601.7906147613145
141,601.7015588615184
142,601.6210245527295
143,601.5514084219484
144,601.494851805753
145,601.4529388079966
146,601.4264173322082
147,601.414969150976
148,601.4170486649218
149,601.4298227434057
150,601.449256613665
151,601.470380748476
152,601.4877409671163
153,601.4959935406765
154,601.4905714981103
155,601.4683248348035
156,601.4280318284062
157,601.3706924003254
158,601.2995424916503
159,601.2197658489366
160,601.137923483851
161,601.0611661639609
162,600.9963342422822
163,600.9490759025326
164,600.9231229197067
165,600.9198424233275
166,600.9381307685162
167,600.9746492618364
168,601.0243487980663
169,601.0812001028752
170,601.1390259225999
171,601.1923125608125
172,601.2368665263755
173,601.270192766971
174,601.291519972647
175,601.301483200593
176,601.3015618883801
177,601.2934229330398
178,601.2783199888296
179,601.2566646498532
180,601.2278329911429
181,601.1902165133577
182,601.1414795572625
183,601.0789527789226
184,601.0000801483559
185,600.90285116422
186,600.786184782523
187,600.6502586270645
188,600.4967689341571
189,600.329070442079
190,600.1521186895972
191,599.9721532352929
192,599.7961210542317
193,599.6309172260883
194,599.4825791506705
195,599.3555859410026
196,599.2523832780299
197,599.1731945399065
198,599.1161167665706
199,599.07745306016
200,599.0522113498821
201,599.0347042784199
202,599.019203380726
203,599.0006103652696
204,598.9750955871359
205,598.9406278914358
206,598.8973045901745
207,598.8473999906981
208,598.7950826393455
209,598.7457997696645
210,598.705391295355
211,598.679065475048
212,598.6704207161827
213,598.6807087830284
214,598.7084929450356
215,598.7497688612378
216,598.7985142367884
217,598.8475515440311
218,598.8895690615476
219,598.9181449800333
220,598.9286364096143
221,598.9188158937673
222,598.8891660493806
223,598.8427877641708
224,598.7849401051493
225,598.7222989523817
226,598.6620730947247
227,598.6111274615175
228,598.5752313069582
229,598.5584986378634
230,598.5630440599388
231,598.5888487399666
232,598.6338200155228
233,598.6940310392104
234,598.7641293444146
235,598.8378900872676
236,598.9088615529889
237,598.9710236986756
238,599.0193746025866
239,599.050382075301
240,599.0622719528029
241,599.0551427004922
242,599.030892252423
243,598.9929440554786
244,598.9457901568999
245,598.8944211369846
246,598.8437510114084
247,598.7981429385604
248,598.7611016213956
249,598.7351444909953
250,598.7218193402884
251,598.721815402244
252,598.7351213528223
253,598.7612049770975
254,598.799203268565
255,598.8481068607407
256,598.9069091498027
257,598.9746881178074
258,599.0506048750036
259,599.1338286963074
260,599.2234250545687
261,599.3182630929518
262,599.416997489858
263,599.5181515133822
264,599.620290400489
265,599.7222435274423
266,599.8233118245398
267,599.9233888240661
268,600.0229400065055
269,600.122820314937
270,600.2239488275536
271,600.3268990598773
272,600.4315007919146
273,600.5365661936164
274,600.6398306202933
275,600.7381396745028
276,600.8278419260688
277,600.9052921023361
278,600.9673562787731
279,601.0118368357795
280,601.03777401907
281,601.0456067229804
282,601.0371840075233
283,601.0156255887982
284,600.9850471641065
285,600.9501919995456
286,600.9160270968587
287,600.8873574519383
288,600.8684903039643
289,600.8629599251418
290,600.8733143548366
291,600.9009654232701
292,600.9460998404217
293,601.0076376041624
294,601.0832193124811
295,601.1692232722319
296,601.2608471057106
297,601.3523055359007
298,601.4371806276522
299,601.5089270264086
300,601.5614996975327
301,601.5900367393914
302,601.5914939835267
303,601.5651032856492
304,601.5125340134788
305,601.4376923625897
306,601.3461885426769
307,601.244602137844
308,601.1397323370518
309,601.0380012706538
310,600.9450925336556
311,600.8657931066809
312,600.8039229678711
313,600.7622329513722
314,600.7422275823692
315,600.7439635094232
316,600.7659179853426
317,600.8050002240094
318,600.8567231384849
319,600.9155036661494
320,600.9750400962439
321,601.0287270628763
322,601.0700973203647
323,601.0933004588256
324,601.0936270165801
325,601.0680599464748
326,601.0157909695656
327,600.9385957196903
328,600.8409476185511
329,600.7297831577023
330,600.6138980285116
331,600.5030265365036
332,600.4067209154882
333,600.3332006817844
334,600.2883733314296
335,600.2752114112852
336,600.2935942140784
337,600.3406034492554
338,600.4111454618225
339,600.4987064047832
340,600.5960572278933
341,600.6957996409993
342,600.7907412236718
343,600.8741635735877
344,600.9400715870808
345,600.9834793300306
346,601.0007261170759
347,600.9897686177655
348,600.9503847291166
349,600.884244532785
350,600.7948297567903
351,600.6871996122126
352,600.5676118250751
353,600.4430290448198
354,600.320573516439
355,600.207014753946
356,600.1083648096586
357,600.0296151546281
358,599.9745986743491
359,599.9459246969346
360,599.9449311641181
361,599.9716254759032
362,600.0246256618922
363,600.1011438601427
364,600.1970640568466
365,600.3071565072768
366,600.4254447329166
367,600.5457011722258
368,600.6620049335353
369,600.7692669757481
370,600.863630303239
371,600.9426861624821
372,601.0054932974239
373,601.0524248810633
374,601.0848908855477
375,601.1049972539956
376,601.1152062873341
377,601.1180486938757
378,601.1159107109675
379,601.1108935967778
380,601.1047253785176
381,601.098697637298
382,601.0936097569291
383,601.089730097312
384,601.086806161537
385,601.0841498496596
386,601.0807959814317
387,601.0757066619869
388,601.0679783577121
389,601.0570012857402
390,601.0425314412686
391,601.02466950557
392,601.0037819365506
393,600.9804219346485
394,600.9552962382032
395,600.9292855230794
396,600.9034870916513
397,600.8792297610173
398,600.8580171063146
399,600.8413783045288
400,600.8306323926413
401,600.8265969731988
402,600.8293011002271
403,600.8377849767797
404,600.8500624536914
405,600.8632839365723
406,600.8740911585867
407,600.8791162477631
408,600.8755428785114
409,600.8616201652218
410,600.837016682007
411,600.8029363596787
412,600.7619832268332
413,600.717825308154
414,600.6747336677273
415,600.6370598341801
416,600.6087005799176
417,600.5926120280437
418,600.5904593387058
419,600.6024826953613
420,600.6276078158946
421,600.6637563616256
422,600.7082618303716
423,600.7582906083964
424,600.8111941815515
425,600.8647549611926
426,600.9173207861957
427,600.967844588966
428,601.0158520654236
429,601.0613565240532
430,601.1047410445892
431,601.1466409114935
432,601.1878682064635
433,601.2294028719612
434,601.2724311454373
435,601.3183702135991
436,601.3688100272536
437,601.4253423556381
438,601.4893112396146
439,601.5615650769632
440,601.6422905361408
441,601.730970137682
442,601.8264590666944
443,601.9271452197087
444,602.0311428625334
445,602.1364709767892
446,602.2411802806876
447,602.3434145930139
448,602.4414155186495
449,602.5334935138749
450,602.6179876273999
451,602.6932304333343
452,602.7575382402975
453,602.8092586007164
454,602.8469096032763
455,602.8694206222576
456,602.8764351457378
457,602.8685905102128
458,602.8476757925781
459,602.81659685951
460,602.7791381419171
461,602.7395818922062
462,602.7022912017151
463,602.6713538653181
464,602.6503296448204
465,602.642087063887
466,602.648693899437
467,602.6713377333798
468,602.7102745477042
469,602.764815498109
470,602.8333635727876
471,602.9135097407436
472,603.0021958347113
473,603.0959456163044
474,603.1911522413529
475,603.2843929993224
476,603.3727276486879
477,603.4539280280991
478,603.5265881291843
479,603.5900813432391
480,603.6443632154408
481,603.6896558810811
482,603.7260860586531
483,603.753369897445
484,603.7706346740209
485,603.77644132893
486,603.7690300964396
487,603.7467547291644
488,603.7086050198358
489,603.6546675833315
490,603.5863722684138
491,603.5064279233653
492,603.4184487383031
493,603.3263708879914
494,603.2338162341703
495,603.1435572441052
496,603.0571934793985
497,602.9750971204527
498,602.8966322839917
499,602.820589973618
500,602.7457171407708
501,602.6711920841199
502,602.5969305278687
503,602.5236726585055
504,602.4528609338378
505,602.386358466145
506,602.3260862830197
507,602.2736715465944
508,602.2301835683121
509,602.1959924187191
510,602.1707412173903
511,602.1534015453535
512,602.1423828819616
513,602.1356755010924
514,602.1310092999781
515,602.1260093370033
516,602.1183290303885
517,602.1057466957498
518,602.0862207522782
519,602.0579158154051
520,602.0192336557005
521,601.9688950958522
522,601.9061034167747
523,601.8307769112523
524,601.7437938327969
525,601.6471743499483
526,601.5441311566932
527,601.4389355606129
528,601.3365677562666
529,601.2421675274067
530,601.1603765270984
531,601.0947240769561
532,601.0472048405353
533,601.0181267091776
534,601.0062182506427
535,601.0089221937282
536,601.0227777269657
537,601.0438063673488
538,601.0678537250355
539,601.0908772299833
540,601.1091804945444
541,601.1195813726863
542,601.1194952540889
543,601.1069388700769
544,601.0804954277742
545,601.0392948811611
546,600.9830433463534
547,600.9121029822331
548,600.8275975603514
549,600.7315018212171
550,600.6266668191458
551,600.5167502044076
552,600.4060589927478
553,600.299345462863
554,600.2015929378073
555,600.1177867529042
556,600.0526236973665
557,600.01011425871
558,599.9930854329261
559,600.0026613505747
560,600.0378379497362
561,600.0952656543151
562,600.1693291810388
563,600.2525697455877
564,600.3364227092018
565,600.4121633873993
566,600.4719059591976
567,600.5094971697014
568,600.5211708815173
569,600.5058711978793
570,600.4652110882532
571,600.4031015054833
572,600.325143443106
573,600.2379049163441
574,600.1481998131023
575,600.0624545894321
576,599.9862135740403
577,599.9238094821649
578,599.8782052686305
579,599.8509853501929
580,599.8424523873309
581,599.8517950154717
582,599.8773245161151
583,599.9167944231458
584,599.9677937599962
585,600.0281616363532
586,600.0963418081418
587,600.171595144301
588,600.2540115744672
589,600.3443028009924
590,600.4434027103154
591,600.551941837509
592,600.6696923798993
593,600.7951057858445
594,600.9250777838456
595,601.055053150424
596,601.1795134359171
597,601.2927925946806
598,601.3900717925458
599,601.4683460031304
600,601.5271491670707
601,601.5688741404023
602,601.5986138772391
603,601.6235522030614
604,601.6520129835898
605,601.6923170117044
606,601.7516055244269
607,601.8347892654618
608,601.943775076926
609,602.0770897791335
610,602.2299549705592
611,602.3947843462288
612,602.5620073306625
613,602.7210906485367
614,602.8616312022822
615,602.9744063982499
616,603.0522758770987
617,603.0908410289081
618,603.0887976348342
619,603.0479544148405
620,602.9729243715852
621,602.8705284341419
622,602.7489872728617
623,602.6170142184139
624,602.4829477931312
625,602.3540561936928
626,602.236095117188
627,602.1331220707469
628,602.0475040733332
629,601.9800292527905
630,601.9300507749664
631,601.8956399987098
632,601.8737715433367
633,601.8605723244585
634,601.8516429491159
635,601.8424381857111
636,601.8286902297519
637,601.8068574416127
638,601.7745681360092
639,601.7310118680075
640,601.6772196325697
641,601.6161690096968
642,601.5526512584507
643,601.4928537791467
644,601.4436512618317
645,601.4116604674463
646,601.4021846937569
647,601.4182317145323
648,601.4598044681212
649,601.5236188995278
650,601.6033086092614
651,601.6900698651597
652,601.7736248968831
653,601.8433518103691
654,601.8894326325062
655,601.9038880527279
656,601.8813909482324
657,601.8197840401089
658,601.7202727256278
659,601.5873104962864
660,601.4282213671444
661,601.2526072981997
662,601.0715824941012
663,600.8968733309949
664,600.7398280601839
665,600.6103967224224
666,600.5161671139765
667,600.4615704611193
668,600.447385257826
669,600.4706461939492
670,600.5249990024314
671,600.601455810385
672,600.6894352215817
673,600.777936663267
674,600.8566995815921
675,600.9172203567972
676,600.9535270773953
677,600.9626437370421
678,600.944715815508
679,600.9028092418444
680,600.8424215188255
681,600.7707594994444
682,600.6958553108756
683,600.62561840575
684,600.5669521145802
685,600.5250749397961
686,600.5031553761092
687,600.5022941802357
688,600.5218015368503
689,600.5596580198929
690,600.6130354086964
691,600.6787736575
692,600.7537397068867
693,600.8350234324524
694,600.9199617443484
695,601.006024341573
696,601.0906340464657
697,601.1710171707398
698,601.2441707413712
699,601.306991812272
700,601.3565590840332
701,601.3905098002064
702,601.4074219542828
703,601.4070991482668
704,601.3906746898853
705,601.3605026184961
706,601.3198656606262
707,601.2725753632152
708,601.2225509375495
709,601.1734435394366
710,601.1283375300845
711,601.0895297849193
712,601.0583796820391
713,601.0352354052601
714,601.0194556372479
715,601.009541857112
716,601.00337607919
717,600.9985351342815
718,600.9926422420474
719,600.9837238759798
720,600.9705450487224
721,600.9528799545067
722,600.931651416867
723,600.9088790173337
724,600.8874270111381
725,600.8706060521677
726,600.861712958913
727,600.8635890705011
728,600.8782674016323
729,600.9067620883767
730,600.9490107430001
731,601.0039239359903
732,601.0694701973366
733,601.1427513834045
734,601.2200774975963
735,601.2970904423443
736,601.3689875806599
737,601.4308605219869
738,601.4781186979636
739,601.5069421789303
740,601.5147080079092
741,601.5003376473757
742,601.4645119670777
743,601.4097111301481
744,601.3400680788425
745,601.2610601615469
746,601.1790828449348
747,601.1009461749472
748,601.0333227899068
749,600.9821783172395
750,600.9522343967192
751,600.9465304841901
752,600.9661482456684
753,601.0101459494729
754,601.0757208107665
755,601.1585720474405
756,601.2533922568052
757,601.3543934644673
758,601.4557820239793
759,601.5521233325104
760,601.638572372375
761,601.7109794653841
762,601.7659048485017
763,601.8005887545459
764,601.8129240622114
765,601.8014657982923
766,601.7654936420935
767,601.7051288374687
768,601.6214935693764
769,601.516882605264
770,601.3948960993278
771,601.2604715377039
772,601.1197638479778
773,600.9798528164368
774,600.8482911366165
775,600.7325351137873
776,600.6393239243872
777,600.5740933178355
778,600.5405203933622
779,600.5402840473822
780,600.5730765312347
781,600.6368235926973
782,600.7280063980519
783,600.8419732881067
784,600.9731866237166
785,601.1154267297156
786,601.2620214126292
787,601.406165677712
788,601.5413562351239
789,601.6619133069139
790,601.7635116446265
791,601.8436052901385
792,601.9016296491064
793,601.9389156616172
794,601.9583360643456
795,601.9637813452229
796,601.959600185724
797,601.9501253438068
798,601.9393499541767
799,601.9307461575341
800,601.9271609798096
801,601.9307118394079
802,601.9426427610155
803,601.963166832883
804,601.9913697983487
805,602.0252567205532
806,602.061984907754
807,602.0982598648401
808,602.1308104538714
809,602.1568342962646
810,602.1743196999213
811,602.1821879695882
812,602.1802411281435
813,602.1689393165079
814,602.1490668187379
815,602.12136675125
816,602.0862263262281
817,602.0434805285622
818,601.992375864463
819,601.9317003849968
820,601.8600479962912
821,601.7761543306018
822,601.6792291337316
823,601.5692191594652
824,601.4469563779805
825,601.314169433156
826,601.1733596491341
827,601.0275642960529
828,600.8800474201901
829,600.7339753510057
830,600.5921473219109
831,600.4568442747903
832,600.3298181220772
833,600.2123857723449
834,600.1055516104695
835,600.0100799006347
836,599.9264719295376
837,599.8548542561999
838,599.7948290292723
839,599.7453530095707
840,599.7046989747419
841,599.6705323303577
842,599.6401194932383
843,599.6106645387333
844,599.5797394501658
845,599.5457425917152
846,599.5083031860288
847,599.4685413974466
848,599.4290895734447
849,599.3938035703426
850,599.3671667030179
851,599.3534887349053
852,599.3560748543164
853,599.3765549387439
854,599.41452707702
855,599.467598722326
856,599.531822590008
857,599.6024418597129
858,599.6747947837247
859,599.7451924450005
860,599.8115864486235
861,599.8738910930006
862,599.933905038523
863,599.9948657335784
864,600.060742239049
865,600.1354157165692
866,600.221909369901
867,600.3218121999262
868,600.4349942063718
869,600.559639866365
870,600.6925496596937
871,600.8296041788379
872,600.9662722945496
873,601.0980714345601
874,601.2209333128401
875,601.3314672583024
876,601.427131045587
877,601.5063218767002
878,601.5684040187898
879,601.6136957351661
880,601.6434317136479
881,601.6596961217881
882,601.6653066957316
883,601.6636375795688
884,601.6583872822579
885,601.6533090019684
886,601.6519216526873
887,601.6572232374596
888,601.6714389289862
889,601.6958452606387
890,601.7307074027093
891,601.7753438484759
892,601.8282948307865
893,601.8875319279638
894,601.9506335888749
895,602.0148829140788
896,602.0773041774754
897,602.1347012185491
898,602.1837611958881
899,602.2212435116538
900,602.2442200229232
901,602.2503085781857
902,602.2378617616366
903,602.2061137559531
904,602.1553098111931
905,602.0868237999521
906,602.0032294353783
907,601.9082668881971
908,601.8066535569576
909,601.703717111639
910,601.6048710864552
911,601.5149990533107
912,601.4378479849823
913,601.3755426136745
914,601.3283165440014
915,601.2945143679802
916,601.2708608089606
917,601.2529349764447
