frame_number,force
0,542.6100500000238
1,542.4637358299337
2,542.3275086555263
3,542.2108365347578
4,542.1220386043528
5,542.0679015869417
6,542.0534497902825
7,542.0818272987061
8,542.1542264020861
9,542.269805150041
10,542.4255768693497
11,542.6163153741405
12,542.8345745233647
13,543.0709272723561
14,543.3144678630528
15,543.55352572527
16,543.7764731717816
17,543.9725074703117
18,544.1323368514377
19,544.2487522086597
20,544.3170838316444
21,544.3355251983595
22,544.3052820868819
23,544.2305035325022
24,544.1179767266063
25,543.9766018075456
26,543.8166876376243
27,543.6491303440738
28,543.4845584685445
29,543.3325389082693
30,543.2009216407492
31,543.095365399643
32,543.019055195778
33,542.9726156238647
34,542.9542368285179
35,542.9600345929733
36,542.9846381102096
37,543.0219442444763
38,543.065923572146
39,543.1113368902072
40,543.1542341910545
41,543.1921622165805
42,543.2240848749974
43,543.2500910385205
44,543.2710005466502
45,543.2879759848657
46,543.3022141945444
47,543.3147450347155
48,543.326328221758
49,543.3374273952959
50,543.348247888532
51,543.3588296836951
52,543.3691782597301
53,543.3794034316727
54,543.3898326728946
55,543.4010699009087
56,543.4139774344186
57,543.4295694561606
58,543.4488243797052
59,543.4724456937203
60,543.5006118778753
61,543.5327516743444
62,543.5673754986619
63,543.6020002262823
64,543.6332171276371
65,543.6569519140612
66,543.6689356330264
67,543.6653464641839
68,543.6435164381919
69,543.6025551568162
70,543.5437481659002
71,543.4706404381166
72,543.3887913239272
73,543.3052543930111
74,543.2278735958874
75,543.164497180275
76,543.122206917194
77,543.1066514233625
78,543.1215547169069
79,543.1684390041221
80,543.2465622206815
81,543.3530436111174
82,543.4831422003274
83,543.6306564955122
84,543.7884200931987
85,543.948871682913
86,544.1046745159841
87,544.2493450894357
88,544.3778253475919
89,544.4869116250438
90,544.5754562221081
91,544.6442925693848
92,544.695895955286
93,544.7338588143043
94,544.7623007929551
95,544.7853250601804
96,544.8065859268302
97,544.8289881973724
98,544.854515178007
99,544.8841645703934
100,544.9179508114851
101,544.9549314708174
102,544.9932508347579
103,545.0302400176818
104,545.0626288661008
105,545.0868991279813
106,545.0997564226531
107,545.098641493418
108,545.0821647807614
109,545.0503559607454
110,545.0046698962846
111,544.947756565895
112,544.8830605065707
113,544.8143495506732
114,544.7452712598354
115,544.6790028424765
116,544.6180226627857
117,544.5640109860841
118,544.5178824048851
119,544.4799448121088
120,544.4501561439513
121,544.4284160003506
122,544.4148069076012
123,544.4097083368941
124,544.4137472355842
125,544.4276042780599
126,544.451735459505
127,544.4860743774227
128,544.5297628885859
129,544.5809439856972
130,544.6366490980364
131,544.6928093271806
132,544.7444079436551
133,544.7857741998151
134,544.8110014277808
135,544.8144595417264
136,544.7913651937201
137,544.7383632651876
138,544.6540527551227
139,544.539370543406
140,544.3977503092858
141,544.2350072215959
142,544.0589474502696
143,543.8787430115785
144,543.7041332571594
145,543.5445217800283
146,543.4080512678361
147,543.3007652450533
148,543.2259877092445
149,543.1840435090617
150,543.172388838979
151,543.1861292663141
152,543.2188044921552
153,543.2632617161385
154,543.3124518438528
155,543.3600473242792
156,543.4008502794853
157,543.4310032261318
158,543.4480358888916
159,543.450799873916
160,543.4393618057641
161,543.4149248338447
162,543.3798100533006
163,543.3374644818686
164,543.2924089958154
165,543.2500358413323
166,543.2162189709821
167,543.1967819326504
168,543.1969321164802
169,543.2207858634373
170,543.2710724274541
171,543.349036548734
172,543.4544945612786
173,543.5859694948485
174,543.740845955565
175,543.9155269768805
176,544.1056087416755
177,544.3060907239595
178,544.5116139896895
179,544.7166995649183
180,544.915964685795
181,545.1043191557984
182,545.2771627304037
183,545.4306039730245
184,545.5617012685041
185,545.6686941176155
186,545.7511658388423
187,545.8100835714976
188,545.8477039978338
189,545.8673817441925
190,545.8733295824915
191,545.8703502840115
192,545.8635300231657
193,545.857891120198
194,545.8580398261586
195,545.8678719522146
196,545.8903863666768
197,545.9276121511722
198,545.9806160381988
199,546.0495532694175
200,546.1337531353516
201,546.2318548464183
202,546.3419974905875
203,546.4620282656383
204,546.5896726186481
205,546.7226360527748
206,546.8586523814176
207,546.9955141833663
208,547.1311110244706
209,547.263480302933
210,547.3908617562932
211,547.5117466591458
212,547.6249236858271
213,547.7295301354842
214,547.8251055523111
215,547.9116231508594
216,547.989469056019
217,548.0593621757051
218,548.1222382118132
219,548.1791297242756
220,548.231056964344
221,548.2789255393237
222,548.3234249118021
223,548.3649334427544
224,548.4034511932554
225,548.4385897198795
226,548.4696362701068
227,548.4956792032145
228,548.5157533129001
229,548.5289591685637
230,548.5345303035797
231,548.5318512755538
232,548.5204545755953
233,548.500035985704
234,548.4705201528433
235,548.4321851193034
236,548.3858284189615
237,548.3329323714102
238,548.2757641234498
239,548.2173416517244
240,548.1612238554617
241,548.1111326329561
242,548.0704673037055
243,548.0418109556755
244,548.026540787447
245,548.0246309576438
246,548.0346853554339
247,548.0541841124485
248,548.0798904176581
249,548.1083447073611
250,548.1363671180816
251,548.1614940438512
252,548.1822897878468
253,548.1985004357582
254,548.2110509126946
255,548.2219126348344
256,548.2338731828165
257,548.2502258219822
258,548.2743885887769
259,548.3094775268333
260,548.3578876417465
261,548.4209506815853
262,548.4987232148407
263,548.5899213900584
264,548.6919882475705
265,548.8012746086804
266,548.9133270057521
267,549.0232821270848
268,549.1263530760004
269,549.2183633977548
270,549.2962566635289
271,549.3584977949531
272,549.4052911443241
273,549.4385642429282
274,549.461702090743
275,549.4790626733705
276,549.4953472005052
277,549.5149207554771
278,549.5411767190556
279,549.5760238819837
280,549.6195605851078
281,549.6699832246405
282,549.7237475128599
283,549.7759621884683
284,549.8209626189163
285,549.8529966064979
286,549.8669503029389
287,549.8590365586668
288,549.8273578950369
289,549.7722496180614
290,549.696322526586
291,549.6041742061105
292,549.5018153304559
293,549.3959272788447
294,549.2930935524187
295,549.199124681429
296,549.1185492840572
297,549.0543017531791
298,549.0076143279717
299,548.9781126162862
300,548.9640983877669
301,548.9629673151582
302,548.9716661277632
303,548.9870757492986
304,549.0062323141861
305,549.0263562172287
306,549.0447264673626
307,549.0584904880037
308,549.0645222362341
309,549.0594296000704
310,549.039769583678
311,549.0024624905234
312,548.9453170511889
313,548.8675168514616
314,548.7699074483202
315,548.6549747316263
316,548.5265011371671
317,548.388987795292
318,548.246993133654
319,548.104540741155
320,547.9647046105869
321,547.829417680413
322,547.6994958469323
323,547.5748367799828
324,547.4547371441962
325,547.338260328515
326,547.2245720326588
327,547.1131552869033
328,547.0038438161522
329,546.896672249841
330,546.7915980836892
331,546.6881775853391
332,546.5852835604525
333,546.4809470600534
334,546.3723816176121
335,546.2562077599509
336,546.1288551762293
337,545.9870942125527
338,545.8286330778794
339,545.652702687557
340,545.460538146577
341,545.2556630634543
342,545.0438976538894
343,544.833047126549
344,544.6322795117247
345,544.4512597598816
346,544.2991542442063
347,544.1836456251517
348,544.1100984644207
349,544.080991215082
350,544.0956797249172
351,544.1504872811968
352,544.2390529260587
353,544.3528473442975
354,544.4817901453273
355,544.6149418165165
356,544.741259517922
357,544.8503881441643
358,544.9334276152546
359,544.9835993309182
360,544.9967349620061
361,544.9715244871753
362,544.9094930912366
363,544.8147305669742
364,544.6934439626423
365,544.553407198169
366,544.4033458943625
367,544.252270212204
368,544.10878344341
369,543.9804234901786
370,543.8730963636114
371,543.7906384242879
372,543.734535096923
373,543.7038365365269
374,543.6953089658665
375,543.7038217577277
376,543.7229212013924
377,543.7455164260302
378,543.7646007534025
379,543.7739345147053
380,543.7686193020311
381,543.7455073429599
382,543.7034127395874
383,543.6431098930757
384,543.5671098782232
385,543.4792095672817
386,543.3838333333855
387,543.285241066186
388,543.186736542154
389,543.0900367057218
390,542.9949339589098
391,542.8993197658742
392,542.7995756107767
393,542.6912890203375
394,542.5701995859425
395,542.4332120048936
396,542.2792596619637
397,542.1098122719284
398,541.9289102282999
399,541.7427368842675
400,541.5588482324355
401,541.3852340043189
402,541.229383623184
403,541.0974876550571
404,540.9938454343281
405,540.9205037670062
406,540.8771321796171
407,540.8611305200161
408,540.8679458331227
409,540.8915518475939
410,540.9250334088315
411,540.9612216315045
412,540.9933303827916
413,541.015545711168
414,541.0235202766903
415,541.0147246255411
416,540.9886114643851
417,540.9465710228112
418,540.891691871003
419,540.8283675952197
420,540.7617909568718
421,540.6973656090295
422,540.6400605370968
423,540.593741824281
424,540.5605398368195
425,540.5403450316909
426,540.530556696254
427,540.5262044255952
428,540.5205004804554
429,540.5057751777523
430,540.4746401395132
431,540.4211633580769
432,540.3418463982325
433,540.2362510845002
434,540.107201433037
435,539.9605668783728
436,539.8047003565938
437,539.6496432107166
438,539.5062109046755
439,539.3850506162537
440,539.2957358027091
441,539.245951509233
442,539.2408320064364
443,539.2825236925263
444,539.370034771596
445,539.4993924296429
446,539.6640792794166
447,539.8556844799703
448,540.0646848623171
449,540.2812652011875
450,540.4960945169216
451,540.7009959326908
452,540.8894725264927
453,541.0570669542072
454,541.2015366597761
455,541.3228353819809
456,541.4229150659396
457,541.5053875321486
458,541.5750957120437
459,541.637638061625
460,541.6988764044986
461,541.7644483108642
462,541.8393065319912
463,541.9273146411446
464,542.0309272389932
465,542.150972077272
466,542.2865417866003
467,542.4350030413325
468,542.5921357583185
469,542.7524159675878
470,542.9094501831014
471,543.0565527363459
472,543.1874261917083
473,543.2968654406894
474,543.3813786866613
475,543.4396218424035
476,543.472577960647
477,543.4834631600754
478,543.4773858044175
479,543.4608190193658
480,543.4409657038926
481,543.4250942044846
482,543.4199052018486
483,543.4309762902428
484,543.4623336725654
485,543.5162056388009
486,543.592994520246
487,543.6914581818706
488,543.8090392917243
489,543.9422480487622
490,544.0870096871796
491,544.2389263128457
492,544.3934474496473
493,544.545975772177
494,544.6919528052724
495,544.8269731727715
496,544.946958179208
497,545.0483824428117
498,545.128510807484
499,545.1855911018941
500,545.2189686392418
501,545.2291222046395
502,545.2176422835383
503,545.1871714564227
504,545.1413158480138
505,545.0845296724491
506,545.0219712886598
507,544.9593145235284
508,544.9024743584409
509,544.8572020794766
510,544.8285456046852
511,544.8202378860504
512,544.8341308113971
513,544.8698074918509
514,544.9244742208058
515,544.9931669005513
516,545.0692368902286
517,545.1450349553814
518,545.2126938391954
519,545.2649145265675
520,545.2956815225597
521,545.3008527266965
522,545.2785770443375
523,545.2294963999557
524,545.1567045541416
525,545.0654645911602
526,544.9627192654531
527,544.8564498413009
528,544.7549412070824
529,544.6660030179179
530,544.5961991413673
531,544.5501563675854
532,544.5300408035362
533,544.5352879245999
534,544.5626448133057
535,544.606532927977
536,544.6596767531568
537,544.7138941261466
538,544.7609330629856
539,544.7932606454505
540,544.8047326178566
541,544.7910854692826
542,544.7502087710449
543,544.6821872215685
544,544.589144910143
545,544.474957764835
546,544.3449014121685
547,544.2052722057633
548,544.0629908438527
549,543.9252011520041
550,543.7989036123182
551,543.6906758057492
552,543.6065055142085
553,543.5517097228998
554,543.5308677460542
555,543.5476905936137
556,543.6047948083434
557,543.7034231341133
558,543.8431992244099
559,544.0219825831322
560,544.2358352115837
561,544.4790890261374
562,544.7445300615968
563,545.0237428194035
564,545.307636590608
565,545.587109493249
566,545.8537419111912
567,546.1003932070031
568,546.3216122957922
569,546.513835956656
570,546.6754003126589
571,546.8064090529568
572,546.9084941960091
573,546.9844974967858
574,547.0381069411933
575,547.0734894464865
576,547.0949491129863
577,547.1066151993557
578,547.1121500497571
579,547.1144797196233
580,547.1155761703866
581,547.1163314632548
582,547.1165515569838
583,547.1150779129097
584,547.1100324879797
585,547.0991673990911
586,547.0802792783372
587,547.0516315724678
588,547.0123248347401
589,546.9625626021798
590,546.903774198251
591,546.8385717230066
592,546.7705312664966
593,546.7038021279662
594,546.642578184442
595,546.5905144301757
596,546.5502102212888
597,546.5228753418023
598,546.5082437728586
599,546.5047301979884
600,546.5097624360985
601,546.5201832560984
602,546.5326098795472
603,546.5436771423745
604,546.550153669738
605,546.5489735618081
606,546.5372495753403
607,546.5123320336463
608,546.471957133428
609,546.4144933134869
610,546.3392542255579
611,546.2468104976052
612,546.1392096868873
613,546.0200228372195
614,545.8941860871064
615,545.7676705237948
616,545.6470449969094
617,545.5389768257235
618,545.4496832847573
619,545.3843546686963
620,545.3466139110044
621,545.338103605607
622,545.3582709535278
623,545.4043840358004
624,545.4717882248704
625,545.5543888249225
626,545.645311401115
627,545.737658806135
628,545.825269163534
629,545.9033796371743
630,545.9691138655178
631,546.0217393894392
632,546.0626800160518
633,546.095301339347
634,546.1245039888319
635,546.1561624874531
636,546.1964516156083
637,546.2511149649326
638,546.3247470265318
639,546.4201696703673
640,546.537982731119
641,546.6763608003394
642,546.8311497921967
643,546.9962750421612
644,547.1644117879684
645,547.3278166673045
646,547.4792002451627
647,547.6125326763512
648,547.7236949087226
649,547.8109020859831
650,547.8748427747629
651,547.9185163914353
652,547.9468116282211
653,547.9659183100011
654,547.9826702040103
655,548.003885249223
656,548.0357434330216
657,548.0832417958583
658,548.1497735518235
659,548.2368719642056
660,548.3441379634932
661,548.4693478104106
662,548.6087278729177
663,548.7573863096975
664,548.909884702365
665,549.0608982383161
666,549.2058624908823
667,549.3414731065111
668,549.4659199699734
669,549.5788017915884
670,549.6807570308833
671,549.7729257665774
672,549.8563935007612
673,549.9317517267782
674,549.9988532786634
675,550.0567703406971
676,550.1039121499458
677,550.1382483157452
678,550.1576032639578
679,550.1600030406574
680,550.1440403175114
681,550.1091888297676
682,550.0559851170542
683,549.9860277700502
684,549.901805651859
685,549.8064165788591
686,549.7032502890938
687,549.5956919751121
688,549.4868785517241
689,549.3795175615031
690,549.2757566057542
691,549.177080185748
692,549.0842241614322
693,548.9971252277999
694,548.9149359504511
695,548.8361224683333
696,548.7586362568254
697,548.6801334994727
698,548.5982139079067
699,548.510663707998
700,548.4157064156235
701,548.3122732248697
702,548.20028834948
703,548.0809290914436
704,547.9567892041593
705,547.8318694817866
706,547.7113482695632
707,547.6011356483967
708,547.5072655755552
709,547.4352122608631
710,547.3892290886209
711,547.37180395794
712,547.3832998510185
713,547.4218071674825
714,547.4831989125997
715,547.5613702435843
716,547.6486478021352
717,547.7363478658627
718,547.8154433797773
719,547.8772834040527
720,547.9143025368606
721,547.9206578041817
722,547.8927310495092
723,547.8294418988454
724,547.7323422615655
725,547.6055043347843
726,547.4552440223137
727,547.2897202778864
728,547.1184274993878
729,546.9515796687041
730,546.7993895414265
731,546.6712707355348
732,546.5750198033294
733,546.5160604395833
734,546.4968516134866
735,546.5165649080942
736,546.5711056478742
737,546.653488543216
738,546.7545091264722
739,546.8636074929603
740,546.9698119736638
741,547.0626678599612
742,547.1330822231838
743,547.1740372078445
744,547.1811360732994
745,547.152946951676
746,547.0911019424378
747,547.0001109139157
748,546.886881721402
749,546.7599981782232
750,546.6288604876212
751,546.5028079860163
752,546.3903199898958
753,546.2983537566555
754,546.2318557716135
755,546.1934783574403
756,546.1835289836918
757,546.2001511815513
758,546.2396856974765
759,546.2971227792444
760,546.3665614240565
761,546.4416314913913
762,546.5158779714168
763,546.583128078789
764,546.6378519608974
765,546.6754937001601
766,546.6927169974782
767,546.6875103241767
768,546.6591364329199
769,546.6079661253845
770,546.5352711498238
771,546.4430462198338
772,546.3338913744833
773,546.2109393775072
774,546.0777852711278
775,545.938374385778
776,545.7968213914869
777,545.6571564460809
778,545.5230232574272
779,545.3973860097889
780,545.2823240680166
781,545.1789825443125
782,545.0876948468738
783,545.008225117219
784,544.9400361582384
785,544.8824945848841
786,544.8349664068602
787,544.7968035878981
788,544.7672567445821
789,544.7453682045156
790,544.7299018494662
791,544.719345743811
792,544.7119836373496
793,544.7059943163016
794,544.6995277890871
795,544.6907262401754
796,544.6776885053819
797,544.6584071889474
798,544.6307362374768
799,544.5924640119829
800,544.5415452449362
801,544.4764718415784
802,544.3966740368255
803,544.3028051064249
804,544.1968073306122
805,544.0817532389613
806,543.9615386757935
807,543.8405298338653
808,543.7232422475435
809,543.6140877931541
810,543.5171878741762
811,543.4362276174774
812,543.3743245044615
813,543.3339006462562
814,543.3165642568381
815,543.323015234093
816,543.3529980817106
817,543.4053333194629
818,543.4780563537037
819,543.5686742397058
820,543.674517115313
821,543.7931183286637
822,543.9225236866221
823,544.0614340407535
824,544.2091363912213
825,544.3652499804039
826,544.5293658003873
827,544.7006731425953
828,544.877653914221
829,545.0579009353135
830,545.2380926085012
831,545.4141361097363
832,545.5814682371778
833,545.7354730275431
834,545.8719451735119
835,545.9875118578815
836,546.0799353303968
837,546.148256850192
838,546.1927921437255
839,546.2150208905808
840,546.2174169108443
841,546.2032554894139
842,546.1764221504686
843,546.1412314911969
844,546.1022472725316
845,546.0640877235006
846,546.0312079911506
847,546.0076650231032
848,545.9968757106526
849,546.0013766848824
850,546.0225972906978
851,546.0606724018817
852,546.1143369371952
853,546.180944859622
854,546.2566388334702
855,546.3366671504217
856,546.4158123067377
857,546.4888738731935
858,546.5511416180742
859,546.598797312645
860,546.6291927321724
861,546.6409732076596
862,546.6340507166357
863,546.609460616814
864,546.569143963886
865,546.5156871092066
866,546.4520395768129
867,546.3812302668956
868,546.3061087655743
869,546.2291421987563
870,546.1522903461869
871,546.0769681131837
872,546.0040921511785
873,545.9341925157132
874,545.8675490419552
875,545.8043020131411
876,545.7445053836732
877,545.6881308559481
878,545.6350607020067
879,545.5851033958804
880,545.5380400880917
881,545.4936883821493
882,545.4519631105381
883,545.4129158038534
884,545.3767391096377
885,545.343727758157
886,545.314194258035
887,545.2883456597228
888,545.2661360586508
889,545.2471180420923
890,545.230326463423
891,545.2142354067639
892,545.1968220461063
893,545.1757418352086
894,545.1485807422225
895,545.113127125996
896,545.067607069276
897,545.0108435884886
898,544.9423286938442
899,544.8622333806659
900,544.7714018781629
901,544.6713624692607
902,544.5643457841758
903,544.453261203269
904,544.3415685105426
905,544.2330042160654
906,544.1311716167348
907,544.0390606245556
908,543.9586020128389
909,543.8903595251156
910,543.8334217748331
911,543.7855002409896
912,543.7432001843948
913,543.7024152990286
914,543.6587920950532
915,543.6082053637591
916,543.5471798974829
917,543.4731942114126
