acceleration,velocity,displacement
0.04753645790932432,0.0,0.0
0.04029408550188512,4.391527170560472e-05,2.195763585280236e-08
0.033249287564463985,8.068695823877927e-05,8.425875082499435e-08
0.026583513798488403,0.00011060335892025547,1.799039094045117e-07
0.020448376904295098,0.00013411930427164722,3.022652410004631e-07
0.01495606026788589,0.00015182152285773772,4.4523565456515557e-07
0.01017461204749211,0.00016438685901542672,6.033398455017378e-07
0.006128143479525133,0.00017253823677893535,7.718023933989188e-07
0.00280142816250671,0.00017700302259995127,9.465730230883621e-07
0.00014789214000363992,0.00017847768275120645,1.124313375763941e-06
-0.0019005744520385708,0.00017760134159518898,1.3023528879371387e-06
-0.0034238901770607317,0.00017493910928063932,1.4786231133750529e-06
-0.004505823176949882,0.000170974252603634,1.6515797943171895e-06
-0.005228718131708186,0.00016610698194930497,1.820120411593659e-06
-0.005670900521992858,0.00016065717262245445,1.9835024888795385e-06
-0.005906076687733019,0.00015486868401759152,2.1412654171995613e-06
-0.006003803925364649,0.00014891374371104268,2.2931566310638784e-06
-0.006030179379194242,0.00014289675205876324,2.439061878948781e-06
-0.006048066832781019,0.0001368576289527756,2.5789390694545506e-06
-0.006116366116157685,0.00013077541247830625,2.7127555901700916e-06
-0.006288156424141347,0.00012457315120815673,2.840429872013323e-06
-0.006608078191994364,0.00011812503390008887,2.9617789645674457e-06
-0.007109774864712824,0.00011126610737173527,3.076474535203358e-06
-0.007814179558245486,0.00010380413016025612,3.1840096539693535e-06
-0.008728930250853474,9.553257525570664e-05,3.283678006677335e-06
-0.009848708450229417,8.62437559051652e-05,3.374566172257771e-06
-0.011156096804386211,7.574135327785739e-05,3.4555587268492822e-06
-0.012622529388469972,6.38520401814293e-05,3.5253554235789258e-06
-0.014209018685222204,5.043626614458321e-05,3.582499576741932e-06
-0.015866686616917963,3.539841349351313e-05,3.62541691656098e-06
-0.017537584104257948,1.869627813292517e-05,3.652464262374199e-06
-0.019156498304836105,3.492369283781444e-07,3.661987019904851e-06
-0.020654207844345553,-1.9556116146212684e-05,3.6523835802959335e-06
-0.021962123442183998,-4.086428178947746e-05,3.6221733813280886e-06
-0.023017816326149396,-6.335425167364415e-05,3.5700641145965276e-06
-0.02377077668825303,-8.674854818084537e-05,3.495012714669283e-06
-0.02418775211771979,-0.00011072781258383178,3.3962745342869444e-06
-0.024257048917394494,-0.0001349502131013889,3.2734355214443343e-06
-0.023991231914855297,-0.0001590743535175138,3.126423238134883e-06
-0.023427776719146736,-0.00018278385783451482,2.9554941324588685e-06
-0.022627415275615088,-0.00020581145383189573,2.7611964766256633e-06
-0.021670150075459655,-0.0002279602365074331,2.544310631455999e-06
-0.02064918475955425,-0.00024911990392494006,2.3057705612398122e-06
-0.019663310703665473,-0.00026927615165654994,2.0465725334490675e-06
-0.018808558919824393,-0.00028851208646829486,1.767678414386645e-06
-0.018170118216057164,-0.00030700142503623564,1.4699216586343797e-06
-0.017815538864302177,-0.0003249942535764153,1.1539238193280544e-06
-0.01779000063209642,-0.0003427970233246146,8.200281808775394e-07
-0.01811402226897849,-0.00036074903477515205,4.682551518276561e-07
-0.018783673870243062,-0.00037919788284476285,9.82816930176986e-08
-0.019773179523164305,-0.00039847630954146655,-2.9055540317541616e-07
-0.021039546064319004,-0.0004188826723352082,-6.992348941137535e-07
-0.02252844242872718,-0.0004406666665817313,-1.1290095635722232e-06
-0.024180256534949523,-0.00046402101606356964,-1.5813534048948738e-06
-0.025935350413007433,-0.0004890788195375482,-2.057903322695433e-06
-0.027737975813432757,-0.0005159154826507682,-2.560400473789591e-06
-0.029538851873196114,-0.0005445538964940827,-3.0906351633620162e-06
-0.03129680416897195,-0.0005749717245151667,-3.650397973866641e-06
-0.032979972148182365,-0.0006071101126737438,-4.241438892461097e-06
-0.034566900668303015,-0.0006408835490819866,-4.8654357233389615e-06
-0.0360474641704169,-0.0006761907315013465,-5.523972863630628e-06
-0.03742319832144621,-0.0007129260627472781,-6.21853126075494e-06
-0.038706422868928156,-0.0007509908733424653,-6.950489728799812e-06
-0.039917715241001205,-0.00079030294239743,-7.72113663666976e-06
-0.04108184834290811,-0.0008308027241893846,-8.531689469963168e-06
-0.04222293342539879,-0.0008724551150735381,-9.383318389594628e-06
-0.043359782289110686,-0.0009152464729307928,-1.0277169183596794e-05
-0.04450229876592617,-0.0009591775134583112,-1.1214381176791347e-05
-0.045649309488962515,-0.0010042533175857555,-1.219609659231338e-05
-0.04678795657481455,-0.0010504719506176442,-1.3223459226415079e-05
-0.04789464252356452,-0.0010978132501668336,-1.4297601826807318e-05
-0.04893742082701692,-0.0011462292818421244,-1.5419623092811796e-05
-0.04987959432378283,-0.0011956377894175242,-1.659055662844162e-05
-0.05068416099970588,-0.0012459196670792686,-1.781133535669002e-05
-0.05131865502194141,-0.0012969210750900923,-1.90827557277747e-05
-0.051759761912368384,-0.0013484602835572472,-2.0405446407098368e-05
-0.05199683703959556,-0.0014003385830332292,-2.1779845840393606e-05
-0.05203343902415249,-0.0014523537210651032,-2.320619199244277e-05
-0.05188648928847142,-0.0015043136852214152,-2.468452569558603e-05
-0.051583476185792294,-0.001556048667958547,-2.621470687217601e-05
-0.051158686549487804,-0.001607419749326187,-2.7796441080818377e-05
-0.05064943692739572,-0.0016583238110646286,-2.9429312861013784e-05
-0.05009284337294801,-0.0017086949512148005,-3.11128222421535e-05
-0.04952322141774896,-0.001758502983610149,-3.2846421209565975e-05
-0.04897000393758567,-0.0018077495962878162,-3.462954749951496e-05
-0.04845605909275325,-0.0018564626278029857,-3.646165361156036e-05
-0.04799633562604364,-0.0019046888251623843,-3.834222933804304e-05
-0.04759680273324109,-0.0019524853943420266,-4.027081644779525e-05
-0.047253723993497386,-0.001999910657705396,-4.224701447381896e-05
-0.0469534589116994,-0.0020470142491579944,-4.427047692725065e-05
-0.04667315334566257,-0.0020938275552866755,-4.6340897829472986e-05
-0.046382647921937664,-0.0021403554559204755,-4.845798933507656e-05
-0.04604757664692278,-0.0021865705682049055,-5.0621452347139254e-05
-0.04563309870264858,-0.0022324109058796913,-5.283094308418155e-05
-0.04510732672026821,-0.00227778111859115,-5.508603909641697e-05
-0.044443577222129105,-0.0023225565705623486,-5.738620794099372e-05
-0.04362113598917564,-0.002366588927168001,-5.9730780689858895e-05
-0.04262498471414745,-0.0024097119875196625,-6.211893114720272e-05
-0.04144538460445509,-0.002451747172178964,-6.454966072705203e-05
-0.040078144172146175,-0.0024925089365672648,-6.702178878142514e-05
-0.03852598005281294,-0.002531810998679744,-6.953394874904864e-05
-0.03680085447258421,-0.002569474415942443,-7.208459145635974e-05
-0.03492666298196153,-0.0026053381746697158,-7.467199775166582e-05
-0.03294127409571486,-0.0026392721432085538,-7.729430291060496e-05
-0.030896902411323923,-0.0026711912314620733,-7.994953459794027e-05
-0.028858213705561266,-0.002701068789520516,-8.263566460843157e-05
-0.026898146674299944,-0.0027289469697104464,-8.535067248804705e-05
-0.025091815093366155,-0.0027549419505942794,-8.80926169481994e-05
-0.023509022244417158,-0.002779242369263171,-9.085970910812814e-05
-0.022206195316684385,-0.002802099978043722,-9.365038028178158e-05
-0.021218983692850496,-0.0028238125675484897,-9.646333655457769e-05
-0.020556958785679463,-0.0028447005387877548,-9.929759310774581e-05
-0.0202014750884743,-0.0028650797557248316,-0.0001021524832550021
-0.02010696140898492,-0.002885233973973561,-0.0001050276401198513
-0.020205161913007055,-0.0029053900356345573,-0.00010792295212465536
-0.02041150951601095,-0.002925698371349066,-0.00011083849632814717
-0.020632937359606616,-0.002946220594786875,-0.00011377445581121515
-0.020776694180207934,-0.002966925410556782,-0.00011673102881388698
-0.020759734813277895,-0.002987693625053525,-0.00011970833833169213
-0.020517946471622292,-0.003008332465695975,-0.0001227063513770669
-0.020014076565078105,-0.0030285984772143253,-0.00012572481684852203
-0.019242992165010585,-0.0030482270115793695,-0.00012876322959291887
-0.018233031695011077,-0.0030669650235093803,-0.00013182082561046324
-0.01704284696853328,-0.0030846029628411524,-0.0001348966096036385
-0.015754104059292947,-0.0031010014383550653,-0.0001379894118042366
-0.014461243422707729,-0.0031161091120960657,-0.0001410979670794622
-0.013259908170536213,-0.0031299696878926875,-0.00014422100647945655
-0.012235757423365872,-0.0031427175206896387,-0.00014735735008374772
-0.01145533784256362,-0.0031545630683226036,-0.00015050599037825385
-0.010960379495356918,-0.003165770926991564,-0.00015366615737591094
-0.010766188508561671,-0.0031766342109935232,-0.00015683735994490348
-0.0108638854066836,-0.003187449247951146,-0.00016001940167437582
-0.011225457407166253,-0.0031984939193580707,-0.00016321237325803042
-0.011810287174748052,-0.003210011791649028,-0.00016641662611353397
-0.012572031340773424,-0.0032222029509067886,-0.0001696327334848119
-0.013465120565103647,-0.003235221526859727,-0.00017286144572369513
-0.014450307727876213,-0.003249179241006217,-0.0001761036461076281
-0.015498505518901157,-0.003264153647629606,-0.000179360312551946
-0.016592015926002797,-0.003280198908352058,-0.00018263248882993685
-0.01772264801452556,-0.003297356240322322,-0.00018592126640427405
-0.018887148672684203,-0.003315661138665927,-0.00018922777509376818
-0.02008128603676799,-0.003335145356020653,-0.00019255317834111148
-0.021294284143245062,-0.0033558331411106595,-0.00019589866758967713
-0.022505026312441147,-0.0033777327963385026,-0.00019926545055840172
-0.023680845790735643,-0.003400825732390091,-0.00020265472982276602
-0.02477918723786532,-0.0034250557489043914,-0.00020606767056341327
-0.025752048695571482,-0.00345032136687111,-0.00020950535912130102
-0.02655268846653699,-0.0034764737354521643,-0.00021296875667246265
-0.027143503932511807,-0.0035033218316516887,-0.00021645865445601458
-0.027503558853086387,-0.003530645363044488,-0.00021997563805336266
-0.027634282345962876,-0.0035582142836440124,-0.00022352006787670691
-0.0275623056360597,-0.003585812577635024,-0.00022709208130734644
-0.027338944063015434,-0.0036132632024845615,-0.00023069161919740623
-0.02703633318761169,-0.003640450841109875,-0.00023431847621920344
-0.02674068058647525,-0.003667339347996918,-0.00023797237131375685
-0.026543499442866606,-0.003693981438011589,-0.0002416530317067611
-0.026532050737845148,-0.0037205192131019448,-0.0002453602820323179
-0.026780427101481374,-0.0037471754520216082,-0.00024909412936487965
-0.02734254253662683,-0.003774236936840662,-0.00025285483555931076
-0.028247744125231643,-0.0038020320801715915,-0.0002566429700678169
-0.02949916315580551,-0.00383090553381211,-0.0002604594388748087
-0.031074591751947638,-0.0038611924112659864,-0.00026430548784734775
-0.03292959645773821,-0.0038931945053708294,-0.0002681826813056662
-0.03500250774684963,-0.003927160557473123,-0.0002720928588370882
-0.03722071295339196,-0.0039632721678232435,-0.00027603807519973635
-0.039507470350622534,-0.004001636259475251,-0.0002800205294133856
-0.04178841020883715,-0.00404228419975498,-0.0002840424896430007
-0.04399694151081502,-0.004085176875614806,-0.0002881062201806856
-0.04607788351004979,-0.004130214288125238,-0.0002922139157625556
-0.047988906588689983,-0.004177247683174608,-0.0002963676467482055
-0.04969989133685735,-0.004226092082137382,-0.0003005693166308615
-0.051190938494899224,-0.00427653749705326,-0.0003048206314204568
-0.052450119071204615,-0.004328358025836312,-0.0003091230791819016
-0.0534718763789802,-0.004381319023561404,-0.0003134779177066005
-0.05425639083817639,-0.004435183157169982,-0.0003178861687969662
-0.0548095980583519,-0.004489716151618247,-0.0003223486184513603
-0.05514326253919874,-0.004544692581917022,-0.00032686582281812795
-0.055274614637124776,-0.004599901520505183,-0.00033143811986933904
-0.05522534461336587,-0.004655151500130428,-0.00033606564637965686
-0.055019991604303035,-0.004710274168239262,-0.0003407483592138417
-0.05468397192795018,-0.004765126150005389,-0.00034548605937296406
-0.0542417072236634,-0.004819588989581196,-0.0003502784169427574
-0.05371534319472788,-0.004873567514790391,-0.0003551249951949432
-0.05312420546864156,-0.004926987289122076,-0.0003600252725968994
-0.05248464012738225,-0.004979791711920088,-0.00036497866209742047
-0.051809662877526044,-0.005031938863422542,-0.0003699845273850918
-0.05110803439515501,-0.005083397712058883,-0.0003750421956728325
-0.05038277395833286,-0.005134143116235627,-0.0003801509660869798
-0.04962945639229201,-0.00518414923141094,-0.00038531011226080307
-0.04883481072304807,-0.00523338136496861,-0.00039051887755899283
-0.04797618144002677,-0.005281786861050147,-0.0003957764616720022
-0.047022343445472584,-0.005329286123492896,-0.0004010819981642737
-0.045935937367412305,-0.005375765263899339,-0.0004064345238579698
-0.04467742128934719,-0.005421071943227719,-0.00041183294246153335
-0.04321007490336935,-0.005465015691324078,-0.00041727598627880927
-0.04150541270355649,-0.005507373435127541,-0.00042276218084203506
-0.03954835190516915,-0.005547900317431904,-0.00042828981771831476
-0.037341518352342215,-0.00558634525256066,-0.00043385694050331107
-0.03490814924537522,-0.005622470086359519,-0.00043946134817277114
-0.03229323225150721,-0.00565607077710796,-0.0004451006186045049
-0.02956275293106299,-0.005686998769699245,-0.0004507721533779085
-0.02680108263213448,-0.005715180687480843,-0.0004564732431064986
-0.024106595563406226,-0.005740634526578614,-0.00046220115071352833
-0.021585546978717438,-0.005763480597849676,-0.0004679532082757425
-0.01934411682815096,-0.00578394542975311,-0.0004737269212895439
-0.017478621901184762,-0.005802356799117778,-0.00047952007240397934
-0.016064517099238326,-0.005819128368617989,-0.00048533081498784725
-0.015145732307937136,-0.005834733493321577,-0.000491157745918817
-0.014726524275660206,-0.005849669621613375,-0.0004969999474762845
-0.01476793010353837,-0.005864416848802975,-0.0005028569907114928
-0.015190098846406725,-0.005879395863277947,-0.0005087288970675332
-0.01588054753913636,-0.005894931186470719,-0.0005146160605924075
-0.01670709686018078,-0.005911225008670378,-0.000520519138689978
-0.017533251296253452,-0.005928345182748595,-0.0005264389237856875
-0.018233387483471884,-0.005946228502138457,-0.000532376210628131
-0.01870532811990235,-0.005964697859940144,-0.0005383316738091703
-0.0188785267050108,-0.0059834897873526005,-0.0005443057676328167
-0.018717042750668527,-0.0060022875720804406,-0.0005502986563125332
-0.01821760675329075,-0.0060207548968324205,-0.0005563101775469897
-0.017403994066938634,-0.0060385656972425355,-0.0005623398378440271
-0.016319295121387183,-0.006055427341836698,-0.0005683868343635668
-0.01501751742470786,-0.0060710957481097455,-0.00057445009590854
-0.013555577640392705,-0.006085382295642296,-0.000580528334930416
-0.01198635962070732,-0.006098153264272846,-0.0005866201027103737
-0.010353212082319927,-0.006109323050124359,-0.0005927238408675723
-0.00868608624372035,-0.006118842699287379,-0.0005988379237422782
-0.00699947014502281,-0.006126685477481751,-0.0006049606878306627
-0.005292261925627169,-0.006132831343517076,-0.0006110904462411622
-0.003549610984086857,-0.006137252279971933,-0.0006172254880529067
-0.0017465209468993659,-0.0061399003459374265,-0.0006233640643658613
0.00014726872364495436,-0.0061406999720490536,-0.0006295043645248546
0.0021617952566165104,-0.006139545440058923,-0.0006356444872309085
0.004321389281619676,-0.006136303847789805,-0.0006417824118748329
0.006639493476209024,-0.00613082340641089,-0.0006479159755019332
0.009113889485837683,-0.006122946714929867,-0.0006540428605626036
0.011722729434780598,-0.006112528405469558,-0.0006601605981228033
0.014422332891606247,-0.0060994558743063644,-0.0006662665902626913
0.017147974082922395,-0.0060836707208191,-0.000672358153560254
0.01981851960074788,-0.006065187473977265,-0.0006784325826576521
0.022344844518032494,-0.006044105791917875,-0.0006844872292905998
0.024640775735512897,-0.006020612981791102,-0.0006905195886774542
0.02663442823818112,-0.005994975379804255,-0.0006965273828582519
0.028277676016982563,-0.005967519327676673,-0.0007025086302119923
0.029552073675944597,-0.00593860445283021,-0.0007084616921022457
0.030470364795223477,-0.0059085932335946265,-0.0007143852909454582
0.03107352031856418,-0.005877821291037732,-0.0007202784982077744
0.03142406985145473,-0.005846572495952723,-0.0007261406951012696
0.03159718424746902,-0.005815061868903261,-0.0007319715122836977
0.03167121652748847,-0.005783427668515782,-0.0007377707570524072
0.03171913576910702,-0.005751732492367484,-0.0007435383371328488
0.03180173306677087,-0.005719972057949546,-0.0007492741894080074
0.03196291329086869,-0.0056880897347707255,-0.0007549782203043675
0.03222699728471795,-0.005655994779482932,-0.0007606502625614943
0.032597806746047696,-0.00562358237746755,-0.0007662900511399695
0.03305931569188521,-0.005590753816248583,-0.0007718972192368276
0.03357775873216084,-0.00555743527903656,-0.0007774713137844702
0.034105242650594295,-0.005523593778345182,-0.000783011828313161
0.03458494667164853,-0.00548924868368406,-0.0007885182495441757
0.034957765671070486,-0.005454477327512701,-0.000793990112549774
0.035169873002077696,-0.005419413508176127,-0.0007994270579676185
0.035180338013779455,-0.005384238402668198,-0.0008048288839230406
0.034967611643413055,-0.005349164427839601,-0.0008101955853382945
0.03453348889407173,-0.005314413877570859,-0.0008155273744909998
0.03390344595001563,-0.005280195410148816,-0.0008208246791348596
0.03312317684785037,-0.005246682098749882,-0.000826088117889309
0.032252278440375176,-0.00521399437110577,-0.0008313184561242368
0.031356705685520424,-0.005182189879042822,-0.0008365165482493111
0.03050156245905034,-0.005151260744970537,-0.0008416832735613178
0.02974524171211792,-0.005121137342884953,-0.0008468194726052455
0.029135353167407545,-0.00509169704544519,-0.0008519258897994106
0.028706582973240632,-0.005062776077374866,-0.0008570031263608206
0.02848051837882543,-0.005034182526698833,-0.0008620516056628575
0.02846719261918257,-0.0050057086711998286,-0.0008670715512618068
0.02866756080029836,-0.004977141294490088,-0.0008720629762446518
0.02907573089256729,-0.004948269648643655,-0.0008770256817162187
0.02968008729405888,-0.004918891739550342,-0.0008819592624103157
0.030463382652715625,-0.004888820004576955,-0.0008868631182823793
0.0314026267809631,-0.004857886999860115,-0.0008917364717845979
0.032469478902101966,-0.004825950947018583,-0.0008965783907580372
0.03363109280544831,-0.004792900661164808,-0.0009013878165621289
0.03485085080723141,-0.004758659689358468,-0.0009061635967373906
0.03608868162142804,-0.004723189923144138,-0.0009109045215436419
0.03730136839009481,-0.004686494898138377,-0.0009156093639542831
0.03844366397896211,-0.004648622381953849,-0.0009202769225943292
0.03947076632092868,-0.004609665166803903,-0.0009249060663687081
0.040342049177155705,-0.004569758759054861,-0.0009294957783316375
0.04102535526918362,-0.004529075056831691,-0.0009340451952395808
0.04150084623364996,-0.004487811956080274,-0.0009385536387460368
0.041763421340618764,-0.00444617982229314,-0.0009430206346352235
0.041823072436626904,-0.004404386575404517,-0.0009474459178340724
0.041703041393294435,-0.004362623518489556,-0.0009518294228810194
0.04143601720296177,-0.0043210539891914285,-0.00095617126163486
0.041058882426361194,-0.004279806539376767,-0.0009604716918991441
0.0406068898991443,-0.004238973653214014,-0.0009647310819954394
0.04010849457305631,-0.004198615960977914,-0.0009689498768025354
0.039581998003547406,-0.004158770714689612,-0.0009731285701403691
0.03903458613524025,-0.004119462422620218,-0.000977267686709024
0.03846361292200904,-0.004080713323091594,-0.0009813677745818799
0.03785953028780117,-0.004042551751486689,-0.000985429407119169
