acceleration,velocity,displacement
0.026232768949750993,0.0,0.0
0.028670807609668492,1.3725894139854872e-05,3.4314735349637183e-09
0.031105952156996214,2.8670084081521048e-05,1.4030468090307699e-08
0.03353532926805396,4.4830404437783586e-05,3.240559022013386e-08
0.03595610684616048,6.22032634663372e-05,5.9164007196164054e-08
0.03836551378552271,8.078366862425799e-05,9.491074021881286e-08
0.040760858782690354,0.00010056526176631125,1.4024797281645517e-07
0.04313954796270822,0.00012154036345266089,1.957743791211982e-07
0.045499101122441835,0.0001437000257239484,2.6208447641535056e-07
0.04783716642311662,0.00016703409261033803,3.3976800599892215e-07
0.05015153340070514,0.00019153126756629347,4.2940934604308003e-07
0.05244014421423342,0.0002171791869700281,5.315869596771604e-07
0.05470110311486553,0.00024396449880230284,6.468728811202432e-07
0.05693268418265354,0.00027187294562668263,7.758322422274896e-07
0.059133337430697513,0.0003008894510300204,9.190228413916654e-07
0.061301693407745356,0.0003309982087396311,1.0769947563340783e-06
0.06343656643701967,0.00036218277370082233,1.2502900019441916e-06
0.06553695661723867,0.00039442615446438694,1.439442233985494e-06
0.06760205069053751,0.00042771090629133097,1.6449764991744235e-06
0.06963122185775711,0.0004620192244284046,1.8674090318543574e-06
0.07162402859943412,0.0004973330370427024,2.1072470972221344e-06
0.07358021254562061,0.0005336340973289661,2.3649888808150516e-06
0.07549969543257419,0.0005709040743235148,2.6411234237281717e-06
0.07738257518662156,0.0006091246419783138,2.936130602803629e-06
0.07922912117824153,0.0006482775660695295,3.2504811548155895e-06
0.08103976868647991,0.0006883447885357098,3.5846367434668993e-06
0.08281511260499454,0.0007293085088585784,3.939050067815471e-06
0.08455590041269705,0.0007711512621130013,4.314165010558366e-06
0.08626302443208561,0.000813855993324197,4.710416824417666e-06
0.0879375134110888,0.0008574061277849906,5.128232354694963e-06
0.08958052348461694,0.0009017856370089171,5.56803029589344e-06
0.09119332858792324,0.0009469791000270521,6.030221480152432e-06
0.09277731039644274,0.0009929717597731435,6.515209195102481e-06
0.09433394786018122,0.0010397495743372995,7.023389528630092e-06
0.09586480639547196,0.0010872992629012129,7.55515173793972e-06
0.0973715267970258,0.0011356083461993374,8.110878640214858e-06
0.09885581393593305,0.001184665181382577,8.690947022110337e-06
0.10031942531387118,0.001234458991195028,9.295728065254739e-06
0.10176415955102162,0.0012849798874112514,9.92558778490631e-06
0.10319184489224496,0.0013362188885220681,1.058088747888964e-05
0.10460432781740932,0.0013881679316994817,1.1261984183945027e-05
0.10600346183709729,0.0014408198791131083,1.1969231136648175e-05
0.10739109654969581,0.0014941685187098066,1.2702978236103903e-05
0.10876906703643408,0.001548208559606339,1.346357250568294e-05
0.11013918367822605,0.0016029356222850041,1.4251358551155776e-05
0.11150322248343117,0.0016583462238254185,1.5066679012683382e-05
0.11286291600568957,0.0017144377584476986,1.590987500825166e-05
0.11421994490103686,0.0017712084736743801,1.678128656628218e-05
0.11557593013410504,0.0018286574424331657,1.7681253045309067e-05
0.1169324258104097,0.0018867845314192943,1.861011353877218e-05
0.11829091259436078,0.001945590366020487,1.9568207263132126e-05
0.11965279167111637,0.002005076292086856,2.055587392765896e-05
0.12101937921822498,0.0020652443348091916,2.1573454084382974e-05
0.12239190136169044,0.0021260971549541706,2.2621289456823815e-05
0.12377148959612395,0.002187638002693624,2.3699723246235763e-05
0.12515917665460988,0.0022498706692563072,2.4809100414223248e-05
0.12655589282766583,0.002312799436626876,2.5949767940694042e-05
0.1279624627504384,0.002376429025521402,2.7122075056231113e-05
0.1293796026928879,0.0024407645418822337,2.832637344808202e-05
0.13080791839056513,0.002505811422153097,2.9563017439090853e-05
0.13224790344546364,0.002571575377612104,3.083236413903215e-05
0.13369993831607208,0.002638062338052488,3.21347735679483e-05
0.13516428990838983,0.0027052783951086036,3.347060875123857e-05
0.13664111177356222,0.0027732297455290915,3.4840235786397993e-05
0.13813044490919382,0.0028419226346997803,3.624402388145521e-05
0.13963221914925195,0.002911363300714392,3.7682345365308756e-05
0.14114625511422418,0.002981557919280261,3.915557567030742e-05
0.14267226668284516,0.0030525125497295282,4.066409328755986e-05
0.14420986394213495,0.0031242330823857732,4.220827969558869e-05
0.1457585565723059,0.0031967251875143834,4.378851926306373e-05
0.14731775762178562,0.003269994266062906,4.540519912645805e-05
0.148886787624086,0.003344045402374374,4.705870904356737e-05
0.15046487901035105,0.0034188833190329834,4.8749441223919214e-05
0.15205118078641713,0.003494512333982175,5.0477790137173e-05
0.15364476346592684,0.0035709363200452614,5.224415230067986e-05
0.15524462426770788,0.00364815866697867,5.4048926047435845e-05
0.15684969258988837,0.003726182246193069,5.589251127572878e-05
0.1584588357710424,0.003805009378283302,5.777530918184787e-05
0.1600708651472939,0.0038846418035128863,5.969772197729692e-05
0.16168454241108518,0.003965080655402481,6.166015259202576e-05
0.16329858626266766,0.004046326437570919,6.366300436526911e-05
0.16491167931668907,0.004128379003965758,6.570668072565328e-05
0.16652247519387914,0.0042112375425934,6.779158486229307e-05
0.16812960570465474,0.004294900562818033,6.991811938864592e-05
0.16973168802334176,0.004379365886250032,7.208668600091294e-05
0.17132733175706927,0.004464630641195135,7.429768513277423e-05
0.17291514582790954,0.00455069126059138,7.655151560822085e-05
0.17449374510516769,0.0046375434833246494,7.884857429419986e-05
0.17606175674297,0.004725182358786684,8.11892557547277e-05
0.17761782619537303,0.00481360225452127,8.357395190805468e-05
0.17916062289814877,0.00490279686679465,8.600305168838366e-05
0.18068884562585227,0.00499275923392565,8.847694071356374e-05
0.18220122755612542,0.005083481752221145,9.099600096010044e-05
0.1836965410969511,0.005174956194384414,9.356061044675183e-05
0.18517360254649295,0.005267173730295275,9.617114292792175e-05
0.18663127664938656,0.0053601249500942446,9.882796759801913e-05
0.18806848108986246,0.005453799889529057,0.00010153144880792496
0.1894841909337032,0.005548188057534948,0.00010428194579469096
0.19087744300594245,0.00564327846601986,0.00010707981242557966
0.19224734016816247,0.005739059661813386,0.00010992539695753797
0.1935930554362571,0.0058355197607144905,0.00011281904181316994
0.19491383586006883,0.005932646483538572,0.00011576108337423321
0.19620900607410494,0.006030427194022115,0.00011875185179362338
0.19747797142374485,0.0061288489383965776,0.00012179167082672806
0.19872022057531594,0.006227898486396342,0.0001248808576829263
0.19993532753382484,0.006327562373423627,0.00012801972289788128
0.20112295301902053,0.006427826943561838,0.00013120857022712765
0.20228284518418457,0.006528678393112639,0.00013444769656129627
0.20341483969430835,0.006630102814332263,0.00013773739186315748
0.20451885920066673,0.006732086239056007,0.00014107793912650454
0.2055949122498359,0.006834614681918633,0.0001444696143567482
0.20664309165209455,0.006937674182894115,0.00014791268657295137
0.20766357232490257,0.007041250848888365,0.000151407417830897
0.20865660863278868,0.0071453308941277875,0.00015495406326665104
0.20962253125695882,0.007249900679100224,0.00015855287115995804
0.21056174363166907,0.007354946747822381,0.00016220408301668868
0.21147471797862052,0.007460455863224953,0.0001659079336694505
0.21236199096579952,0.007566415040461058,0.000169664651395372
0.21322415902060027,0.007672811577957658,0.00017347445804997668
0.21406187333824936,0.007779633086047371,0.00017733756921597794
0.214875834639909,0.00788686751304191,0.00018125419436575027
0.21566678774151957,0.007994503168637267,0.00018522453703617006
0.21643551598959265,0.008102528744570046,0.00018924879501447189
0.21718283560910015,0.008210933332469719,0.00019332716053373182
0.21790958999900908,0.008319706438871746,0.00019745982047656717
0.2186166440035588,0.008428837997372388,0.00020164695658562821
0.21930487818034372,0.008538318377918363,0.0002058887456794509
0.21997518308072447,0.00864813839323363,0.0002101853598722389
0.22062845355633098,0.008758289302392893,0.00021453696679614554
0.2212655831077575,0.008868762811558914,0.0002189437298246335
0.22188745829891743,0.008979551071910584,0.00022340580829550085
0.22249495327359256,0.009090646674803712,0.00022792335773217943
0.22308892442671296,0.009202042644228789,0.00023249653006193754
0.22367020529397244,0.00931373242665896,0.00023712547382965949
0.22423960172236918,0.009425709878413045,0.0002418103344059275
0.22479788737124243,0.009537969250686448,0.00024655125418820235
0.22534579957564202,0.009650505172423168,0.00025134837279397975
0.22588403558839976,0.009763312631214178,0.0002562018272448891
0.22641324920591877,0.009876386952412757,0.00026111175214079584
0.22693404777200382,0.009989723776657237,0.0002660782798230633
0.22744698954084472,0.01010331903598545,0.000271101540526224
0.22795258136614024,0.010217168928712196,0.0002761816625173984
0.22845127667333376,0.010331269893222065,0.00028131877222288196
0.22894347366954582,0.010445618580807784,0.00028651299434138944
0.22942951375144577,0.010560211827663032,0.00029176445194350716
0.2299096800837899,0.01067504662612184,0.0002970732665569534
0.2303841963390835,0.010790120095227559,0.00030243955823729075
0.23085322560817198,0.010905429450714373,0.00030786344562377623
0.23131686950574532,0.011020971974492852,0.00031334504598007806
0.23177516749982827,0.011136744983744245,0.0003188844752196373
0.2322280964918222,0.011252745799742158,0.0003244818479155089
0.23267557066948566,0.011368971716532485,0.0003301372772945776
0.2331174416541404,0.011485419969613391,0.00033585087521611405
0.23355349896635982,0.011602087704768517,0.0003416227521347095
0.23398347083931384,0.011718971947219934,0.0003474530170477066
0.23440702541053365,0.011836069571282396,0.0003533417774273322
0.23482377231562832,0.011953377270713937,0.0003592891391378313
0.23523326468999314,0.012070891529965343,0.0003652952063380011
0.23563500156079517,0.01218860859652804,0.00037136008136962447
0.23602843058695333,0.012306524454564977,0.0003774838646323977
0.23641295108455362,0.012424634799982853,0.00038366665444603465
0.2367879172640505,0.012542935017070003,0.00038990854690029784
0.2371526416062105,0.012661420156787569,0.00039620963569376224
0.2375063983134035,0.012780084916767472,0.000402570011962151
0.237848426787336,0.012898923623042657,0.0004089897640971035
0.23817793510137047,0.013017930213514833,0.0004154689775562429
0.2384941034550977,0.01313709822315395,0.00042200773466541006
0.2387960876193465,0.013256420770922562,0.0004286061144139292
0.23908302239733872,0.013375890548426733,0.0004352641922437665
0.2393540251401104,0.013495499810311095,0.000441982039833451
0.2396081993609864,0.01361524036643637,0.00044875972487763786
0.23984463849444723,0.013735103575900229,0.000455597310863222
0.240062429838785,0.013855080342983536,0.00046249485684294293
0.24026065871067093,0.0139751611151209,0.000469452417207469
0.24043841282526043,0.014095335883004883,0.0004764700414570005
0.24059478690091535,0.014215594182936428,0.0004835477739734858
0.24072888747565768,0.014335925101530572,0.0004906856537946026
0.24083983791369812,0.01445631728287791,0.0004978837143907048
0.24092678357444727,0.014576758938249947,0.0005051419834459867
0.24098889711333069,0.014697237858421891,0.0005124604826451547
0.2410253838815775,0.014817741428670619,0.0005198392274669278
0.24103548738818312,0.014938256646488058,0.0005272782269857175
0.24101849478072485,0.015058770142030284,0.0005347774836828471
0.24097374229553953,0.01517926820129935,0.0005423369932686795
0.24090062062676418,0.015299736792029926,0.0005499567445170118
0.2407985801692477,0.015420161592228929,0.0005576367191130765
0.24066713609549653,0.015540528021295115,0.0005653768915164575
0.24050587322181674,0.015660821273624444,0.0005731772288401874
0.24031445060247172,0.015781026354580518,0.0005810376907472387
0.2400926057735856,0.015901128118674532,0.0005889582293655525
0.2398401585627685,0.016021111309758623,0.0005969387892226607
0.23955701438766888,0.016140960602996232,0.0006049793072008495
0.23924316697645764,0.016260660648337262,0.0006130797125136828
0.23889870044722616,0.016380196115193184,0.0006212399267045654
0.23852379068424107,0.016499551737976053,0.0006294598636678577
0.23811870595703644,0.016618712362136374,0.0006377394296928858
0.23768380674692138,0.016737662990312364,0.000646078523530998
0.2372195447698578,0.016856388828191557,0.000654477036485624
0.2367264612082869,0.016974875329686095,0.0006629348525250934
0.2362051841830621,0.01709310824103393,0.0006714518484177734
0.2356564255052512,0.01721107364345601,0.0006800278938888959
0.23508097674316433,0.017328757994018115,0.0006886628517982645
0.2344797046285937,0.017446148164361054,0.0006973565783378593
0.23385354581933962,0.017563231476973036,0.0007061089232481927
0.23320350103692694,0.0176799957386871,0.0007149197300521078
0.23253062860361798,0.017796429271097237,0.0007237888363045539
0.23183603740388323,0.017912520937599114,0.0007327160738567279
0.23112087928846653,0.0180282601667722,0.0007417012691328207
0.2303863409273238,0.01814363697182615,0.0007507442434174703
0.22963363510939291,0.018258641965835327,0.0007598448131518857
0.22886399148922545,0.018373266372484983,0.0007690027902364659
0.22807864679072645,0.018487502032054973,0.0007782179823376008
0.22727883449035455,0.018601341402375245,0.0007874901931962083
0.22646577401437554,0.018714777554501426,0.0007968192229354275
0.225640659501651,0.01882780416288043,0.000806204868364773
0.2248046482088562,0.018940415489808057,0.0008156469232779451
0.22395884866428592,0.019052606364026343,0.0008251451787414037
0.22310430870003423,0.019164372153367422,0.0008346994233707521
0.2222420035057449,0.019275708731418865,0.0008443094435919487
0.22137282385336832,0.019386612438258642,0.000853975023884368
0.22049756464651693,0.019497080035383613,0.0008636959470027785
0.21961691395145805,0.019607108655033106,0.0008734719941753828
0.21873144266534084,0.019716695744187305,0.0008833029452751879
0.21784159496555072,0.01982583900359503,0.0008931885789621334
0.2169476796640277,0.019934536322252422,0.0009031286727935953
0.21604986257046918,0.020042785707811046,0.0009131230033011111
0.21514815995565423,0.020150585213442578,0.0009231713460314245
0.21424243319932382,0.02025793286173132,0.000933273475550218
0.2133323847009198,0.020364826566206383,0.0009434291654072024
0.21241755512250562,0.02047126405116224,0.0009536381880615446
0.21149732202222998,0.020577242770448423,0.0009639003147669473
0.21057089992636122,0.020682759825935572,0.0009742153154160433
0.20963734187668834,0.020787811886386336,0.0009845829583441238
0.20869554247192718,0.02089239510747349,0.0009950030100925888
0.20774424239605055,0.020996505053690485,0.0010054752351328798
0.20678203440074938,0.021100136622889686,0.0010159993955520248
0.20580737068937216,0.021203283974162216,0.0010265752507012877
0.20481857163332293,0.02130594045974289,0.001037202556809764
0.20381383573656905,0.021408098561585362,0.001047881066565096
0.20279125075165186,0.021509749833207418,0.0010586105286637941
0.20174880584148075,0.0216108848473557,0.001069390687333935
0.2006844046720598,0.021711493149984086,0.00108022128183327
0.19959587930852557,0.021811563220979234,0.0010911020459260109
0.19848100477229869,0.02191108244199944,0.0011020327073417554
0.19733751410426315,0.02201003707171858,0.001113012987220185
0.19616311376883488,0.02210841222868685,0.0011240425995452863
0.19495549922771147,0.02220619188193599,0.001135121250572942
0.19371237051558263,0.022303358849371815,0.0011462486382557689
0.19243144766725354,0.022399894803917523,0.0011574244516690912
0.19111048586905674,0.0224957802873016,0.001168648370441896
0.18974729022442086,0.02259099473132497,0.0011799200641965525
0.1883397300306922,0.022685516486388748,0.0011912391920009808
0.18688575246873804,0.022779322857013607,0.0012026054018368314
0.1853833956130582,0.022872390144034055,0.0012140183300870934
0.18383080067580235,0.02296469369310627,0.0012254776010463785
0.1822262234009126,0.02305620794912545,0.0012369828264569365
0.18056804452664527,0.02314690651610734,0.0012485336050732448
0.17885477923820214,0.02323676222204855,0.0012601295222577837
0.17708508553785426,0.023325747188242565,0.0012717701496103564
0.17525777146886312,0.023413832902494245,0.0012834550446330407
0.1733718011427211,0.02350099029564714,0.001295183750432576
0.17142629953598945,0.02358718982081682,0.001306955795461692
0.16942055604304207,0.023672401534711576,0.0013187706933005742
0.1673540267955173,0.023756595180421215,0.0013306279424793574
0.16522633578795715,0.023839740271067084,0.0013425270263422294
0.16303727487739808,0.023921806173733424,0.0013544674129534295
0.16078680274647794,0.024002762193139394,0.0013664485550451478
0.15847504292922227,0.024082577654558318,0.0013784698900070722
0.1561022809952543,0.02416122198553944,0.0013905308399170967
0.1536689609784585,0.024238664796032868,0.0014026308116124897
0.15117568112959845,0.024314875956559883,0.0014147691968006378
0.1486231890725002,0.024389825674110407,0.0014269453722083054
0.14601237644723516,0.02446348456549034,0.0014391586997682057
0.1433442731244095,0.024535823727883252,0.001451408526841549
0.1406200410666683,0.02460681480643102,0.0014636941864751276
0.13784096789734407,0.024676430058672025,0.0014760149976914033
0.13500846021935403,0.0247446424157012,0.0014883702658099966
0.1321240367187621,0.02481142553993573,0.0015007592827989058
0.12918932108692727,0.02487675387938715,0.0015131813276537366
0.12620603479339398,0.02494060271835723,0.0015256356668031726
0.12317598973056679,0.02500294822448822,0.001538121554538884
0.1201010807308335,0.02506376749210357,0.0015506382334680318
0.11698327793465856,0.025123038581769945,0.0015631849349865001
0.11382461897563725,0.02518074055599752,0.001575760879770942
0.11062720095463244,0.025236853510980085,0.0015883652782876863
0.10739317219764183,0.025291358604268153,0.0016009973313164984
0.1041247238183737,0.025344238078272158,0.0016136562304871335
0.10082408112577233,0.025395475279508195,0.0016263411588265785
0.09749349492692795,0.02544505467352137,0.0016390512913148358
0.09413523277915253,0.025492961855447888,0.0016517857954470782
0.09075157024547792,0.025539183556204045,0.0016645438317999912
0.08734478221176485,0.025583707644318356,0.0016773245546001217
0.08391713433285279,0.025626523123454512,0.001690127112292065
0.08047087468357361,0.02566762012570862,0.0017029506481043557
0.07700822569083875,0.025706989900802224,0.0017157943006109835
0.07353137641575246,0.025744624801328872,0.0017286572042865163
0.07004247524709831,0.025780518264244583,0.0017415384900529097
0.06654362306747383,0.025814664788823227,0.0017544372858161767
0.06303686696095158,0.025847059911330333,0.0017673527169912151
0.05952419453575967,0.025877700176704512,0.0017802839070132238
0.05600752892362969,0.02590658310756936,0.0017932299778342922
0.052488724488258996,0.025933707170922332,0.001806190050403915
0.04896956324285383,0.02595907174285511,0.0018191632451323594
0.04545175195668982,0.025982677071654997,0.001832148682335987
0.04193691992372536,0.026004524239625102,0.001845145482663807
0.038426617359755284,0.026024615123945972,0.0018581527675046998
0.034922314377699555,0.026042952356880335,0.0018711696593749065
0.03142540046739409,0.02605953928559161,0.0018841952822855243
0.027937184389576347,0.026074379931805853,0.0018972287620898738
0.024458894390827712,0.026087478951500955,0.0019102692268107005
0.02099167865312597,0.026098841594761942,0.0019233158069472663
0.017536605896839925,0.026108473665899433,0.0019363676357624317
0.014094666052751404,0.02611638148388683,0.0019494238495498782
0.010666770912697453,0.026122571843128193,0.001962483587881632
0.007253754671705537,0.026127051974524293,0.001975545993836045
0.0038563742908958257,0.026129829506764943,0.0019886102142063675
0.00047530963369743,0.02613091242774609,0.002001675399689995
