frame_number,force
0,604.7599500000377
1,604.3064752953485
2,603.8742159316387
3,603.4822264608605
4,603.1455182410247
5,602.8736922699945
6,602.6702442774641
7,602.532597810496
8,602.4528194390235
9,602.4188786496716
10,602.4162439326827
11,602.4295759426772
12,602.4442972544906
13,602.4478690438448
14,602.4306631184654
15,602.3863728699013
16,602.311963516283
17,602.2072241706477
18,602.0740414758802
19,601.91554816658
20,601.7353033754673
21,601.5366443158307
22,601.3223158703803
23,601.094427671925
24,600.8547089672661
25,600.604956078788
26,600.3475284373105
27,600.0857574115129
28,599.8241704273267
29,599.5684767188297
30,599.325296174488
31,599.1016402564766
32,598.9041896007554
33,598.7384666851161
34,598.6080521898236
35,598.5140033499308
36,598.4545911933287
37,598.4254026194748
38,598.4197817037623
39,598.4295338374403
40,598.4457934483287
41,598.4599502855497
42,598.4645268384272
43,598.4539022250332
44,598.4247959509863
45,598.3764585420795
46,598.310554905285
47,598.2307623675877
48,598.142140729795
49,598.050370056142
50,597.9609831679203
51,597.8787211089056
52,597.8070983633937
53,597.7481975171066
54,597.702656942218
55,597.6697920113952
56,597.6477946538632
57,597.6339742916298
58,597.6250263558297
59,597.6173285892156
60,597.6072552864805
61,597.5914727180304
62,597.567162894384
63,597.5321350003653
64,597.4848171588518
65,597.4241585103716
66,597.3495000553161
67,597.2604855753968
68,597.1570764636843
69,597.0396999925649
70,596.9095009998131
71,596.7686085442845
72,596.6203110668786
73,596.469067178677
74,596.3203317577113
75,596.180210762752
76,596.0549730413238
77,595.9504671137147
78,595.8715196858356
79,595.8214109904208
80,595.8015130520799
81,595.8111397055126
82,595.8476086613157
83,595.9064844730373
84,595.9819707580392
85,596.0674317978916
86,596.1560188899088
87,596.2413495924042
88,596.3181553413692
89,596.3827956184676
90,596.433549624743
91,596.4706415004891
92,596.496015553866
93,596.5129264361792
94,596.5254264590292
95,596.5378155754257
96,596.5540872616714
97,596.5773901943011
98,596.6095482660579
99,596.6507125934168
100,596.6992162384483
101,596.7516586491024
102,596.8031962985899
103,596.8479935853504
104,596.8797928524652
105,596.8925641047668
106,596.8811778128421
107,596.842027747756
108,596.773536421682
109,596.676493182645
110,596.5541812588843
111,596.4122459320341
112,596.2582669963766
113,596.1010444147489
114,595.9496785630223
115,595.8125942999284
116,595.6966869363833
117,595.6067396907225
118,595.5451841122148
119,595.5121807394439
120,595.5059305090732
121,595.5231130808772
122,595.559375290876
123,595.6098289332222
124,595.6695372015342
125,595.7339663698916
126,595.7993589676391
127,595.8629658155046
128,595.9230831822547
129,595.9788872456298
130,596.0301235965419
131,596.0767639057912
132,596.1187540416015
133,596.1559338581686
134,596.188129040242
135,596.2153421350193
136,596.2379353531801
137,596.2567099867995
138,596.2728346553737
139,596.2876350648115
140,596.302311022665
141,596.3176744036567
142,596.3339903267023
143,596.3509594614187
144,596.3678324649879
145,596.3836217357209
146,596.3973672265058
147,596.4084062740054
148,596.4165882106698
149,596.4223739119171
150,596.4267794342586
151,596.4311623013758
152,596.4369011195212
153,596.4450646295413
154,596.4561746152259
155,596.4701255163744
156,596.4862604911998
157,596.5035611453628
158,596.5208988732242
159,596.537304115862
160,596.5522200315687
161,596.5657108464891
162,596.5785896780814
163,596.5924288600811
164,596.6094396966986
165,596.6322524526918
166,596.6636508803178
167,596.7062949243966
168,596.7624307131673
169,596.833585903594
170,596.920284062
171,597.0218429511297
172,597.1363179684108
173,597.2606195367132
174,597.3907895152048
175,597.5223813656755
176,597.6508704591571
177,597.7720326215923
178,597.882253364565
179,597.9787474759072
180,598.0596783257574
181,598.1241726034568
182,598.172228698325
183,598.204522639187
184,598.2221337102055
185,598.2262369981187
186,598.2178290518729
187,598.1975578443297
188,598.1657134634428
189,598.1223991162813
190,598.0678531293663
191,598.0028466519376
192,597.9290465310218
193,597.8492160280226
194,597.7671448753711
195,597.6872666990354
196,597.6140212014105
197,597.5511117887518
198,597.5008557783565
199,597.4638038756382
200,597.4387334133911
201,597.4230334027658
202,597.4134197273702
203,597.4068412247219
204,597.4013712946818
205,597.3968629752306
206,597.3952013408729
207,597.4000939465456
208,597.4164536569696
209,597.449513557762
210,597.5038554872244
211,597.5825325626404
212,597.6864299419908
213,597.8139493377356
214,597.961039227468
215,598.1215427082379
216,598.2878064108882
217,598.4514770594444
218,598.6043913408816
219,598.7394426226781
220,598.8513074978761
221,598.9369473196944
222,598.9958460637957
223,599.0299802932896
224,599.0435366737255
225,599.0424122562531
226,599.03355742657
227,599.0242381936365
228,599.0212948433008
229,599.0304671780773
230,599.0558517733217
231,599.0995451896016
232,599.1614974191655
233,599.2395602687134
234,599.3296879889875
235,599.4262479727583
236,599.522425040166
237,599.6107301708
238,599.6836254461977
239,599.7342470909771
240,599.7571681870995
241,599.7491096863023
242,599.7094894647871
243,599.6407035249692
244,599.5480705090118
245,599.4394343290069
246,599.3244870176026
247,599.2139191899045
248,599.1185154238323
249,599.04829211276
250,599.0117431898523
251,599.0152305227949
252,599.0625407457535
253,599.1546292467503
254,599.2895718335028
255,599.4627327009304
256,599.6671393327435
257,599.8940430516973
258,600.1336353609581
259,600.3758737123891
260,600.6113474558387
261,600.832100640336
262,601.0323309905086
263,601.2088940885324
264,601.3615469030459
265,601.4928702513159
266,601.6078351535128
267,601.7130367626979
268,601.8156970356961
269,601.9225960740301
270,602.0391055339405
271,602.1684705071515
272,602.3114398685356
273,602.4662919121479
274,602.6292416062054
275,602.7951493877508
276,602.9583935472231
277,603.1137398907545
278,603.2570570800907
279,603.3857787451697
280,603.4990803976299
281,603.5977944497249
282,603.6841196572553
283,603.7611976711061
284,603.8326363734782
285,603.9020546955403
286,603.9727034968338
287,604.0471900259995
288,604.1273103192117
289,604.2139790680067
290,604.3072424423221
291,604.406364838933
292,604.5099850955271
293,604.6163316933322
294,604.7234732277482
295,604.8295697956995
296,604.9330885859923
297,605.0329561625608
298,605.1286416130032
299,605.2201894496784
300,605.3082312071385
301,605.3939897989264
302,605.479259809804
303,605.5663236287246
304,605.6577664846831
305,605.7561811881777
306,605.8637905121013
307,605.9820486701991
308,606.1113024314881
309,606.2505861481001
310,606.39759342074
311,606.5488280454241
312,606.6999084397153
313,606.8459896680477
314,606.9822666980277
315,607.1045198626023
316,607.2096545027886
317,607.2961712803045
318,607.3644833977413
319,607.4169875938939
320,607.4578241360613
321,607.4923325958399
322,607.5262934212501
323,607.565101164477
324,607.613027910952
325,607.6727081125679
326,607.7449164178619
327,607.8286319461287
328,607.9213090750882
329,608.0192326465072
330,608.1178421108393
331,608.2119607109086
332,608.295934696027
333,608.363738890546
334,608.4091213582404
335,608.4258498734501
336,608.4081006108846
337,608.3509944528425
338,608.2512365728708
339,608.1077659460896
340,607.9222929897438
341,607.6996023087504
342,607.4475236971458
343,607.1765275592278
344,606.8989695050127
345,606.6280697830013
346,606.3767478848781
347,606.1564394349076
348,605.9760128346791
349,605.8408927335938
350,605.7524942874086
351,605.7080644319518
352,605.7009894929681
353,605.7215542527958
354,605.7580511367951
355,605.7980788810944
356,605.8298570238768
357,605.8434024316771
358,605.8314446329845
359,605.7899936237569
360,605.7185223286144
361,605.6197780867226
362,605.499276691435
363,605.3645535847315
364,605.2242579477953
365,605.0871843569676
366,604.9613425106859
367,604.853161297097
368,604.766904372463
369,604.7043438725577
370,604.6647066798679
371,604.6448820325976
372,604.6398586501922
373,604.6433359976049
374,604.6484296849382
375,604.6483806802136
376,604.6371915509586
377,604.6101422692763
378,604.5641676839921
379,604.4980960692524
380,604.4127472590396
381,604.3108754675926
382,604.1969321799382
383,604.0766330703691
384,603.9563449330711
385,603.8423596336859
386,603.7401717792515
387,603.6538908200464
388,603.5858815922801
389,603.5366681407145
390,603.5050902913637
391,603.4886710740237
392,603.4841188380942
393,603.4878600710981
394,603.4965045373775
395,603.5071860731923
396,603.5177732988673
397,603.5269818501723
398,603.5344377638645
399,603.5407336492755
400,603.5474793818776
401,603.5572968564405
402,603.5736823844647
403,603.6006814353318
404,603.6423774075549
405,603.7022611725365
406,603.7825932603714
407,603.8838788852547
408,604.0045497066762
409,604.1409017019639
410,604.2872937569085
411,604.4365801439584
412,604.5807359529097
413,604.7116249781814
414,604.8218366187289
415,604.9054836106466
416,604.958829170253
417,604.98062479566
418,604.9720968191306
419,604.936604707561
420,604.8790709310224
421,604.8053183142728
422,604.7214387383468
423,604.6332715622544
424,604.5460149068588
425,604.4639535481876
426,604.3902778688245
427,604.3269792457838
428,604.274818230663
429,604.233368561195
430,604.2011507875523
431,604.1758790783598
432,604.1548350005854
433,604.1353482285009
434,604.1153216977712
435,604.0937045268147
436,604.0708040597036
437,604.0483529110446
438,604.0293077354759
439,604.0174260883416
440,604.0167089454978
441,604.030795499702
442,604.0623727884938
443,604.1126446309861
444,604.1809070590263
445,604.2642942675493
446,604.3577687736799
447,604.4544123454795
448,604.546025948779
449,604.6239783876349
450,604.6801771462658
451,604.707999899962
452,604.7030370601199
453,604.6635445600024
454,604.5905711764334
455,604.4877892315611
456,604.3611015534213
457,604.2181026218665
458,604.0674478763445
459,603.9181703446989
460,603.778998897131
461,603.6577529344303
462,603.5608796533402
463,603.4931629304077
464,603.4575923979884
465,603.4553533474158
466,603.4858883129781
467,603.5469932461209
468,603.6349372572263
469,603.7446146946428
470,603.8697401327613
471,604.0030914023772
472,604.1368092714064
473,604.2627690616291
474,604.373027091672
475,604.4603089314569
476,604.5184728884957
477,604.5428786014094
478,604.5306162229878
479,604.4805835692761
480,604.3934221974584
481,604.271341339222
482,604.117872208574
483,603.9375961930524
484,603.735875869884
485,603.5185986743235
486,603.2919322473016
487,603.0620881616394
488,602.835088050133
489,602.6165211084885
490,602.4112827804208
491,602.2232967771113
492,602.0552409946512
493,601.908312372059
494,601.7820703211121
495,601.6743916433933
496,601.5815553028095
497,601.4984626977761
498,601.4189944872351
499,601.3365021811725
500,601.244422613112
501,601.1369847562528
502,601.0099490964182
503,600.8612788837644
504,600.6916107673578
505,600.5044037861046
506,600.305706298962
507,600.103558167006
508,599.9071083187623
509,599.7255673555579
510,599.5671312171974
511,599.4380040314753
512,599.3416273582827
513,599.278207699497
514,599.2446208267161
515,599.2347359110987
516,599.2401363378815
517,599.2511372835496
518,599.2579396982094
519,599.2517385903016
520,599.2256323961683
521,599.1752443057713
522,599.0990265919274
523,598.9982497490286
524,598.8766909245106
525,598.7400605530252
526,598.5952526375368
527,598.4495447358947
528,598.3098711993304
529,598.1822478411866
530,598.0713733858262
531,597.980399489377
532,597.910847332335
533,597.8626477789913
534,597.8342889849727
535,597.8230597176338
536,597.8253681576147
537,597.837099334221
538,597.8539639717966
539,597.8717939920349
540,597.8867543910593
541,597.8954672419931
542,597.8950757711515
543,597.8832993904217
544,597.8585289538526
545,597.8199841145354
546,597.7679154694678
547,597.70380050332
548,597.6304647469992
549,597.5520634920266
550,597.4738883673921
551,597.4020114815078
552,597.3428253580369
553,597.3025534331769
554,597.2867889540994
555,597.3000896550069
556,597.3456336016209
557,597.4249382100096
558,597.5376576380596
559,597.6814900928749
560,597.8522311655967
561,598.0439994412185
562,598.2496417161178
563,598.4612978855374
564,598.6710670255873
565,598.871672031462
566,599.0569945521659
567,599.2223775180014
568,599.3646727559457
569,599.4820989452077
570,599.5740134178578
571,599.6406809060318
572,599.6830807985212
573,599.7027657231575
574,599.7017675854066
575,599.6825257737511
576,599.6477900633943
577,599.6004545667873
578,599.5433200802934
579,599.4788333720314
580,599.4088765946827
581,599.3346702597937
582,599.2568261329124
583,599.1755541866036
584,599.0909911194626
585,599.003580687941
586,598.9144111443135
587,598.8254177269686
588,598.7393925630712
589,598.6597940784712
590,598.5903887420874
591,598.5347825934224
592,598.4959191121945
593,598.4756366765862
594,598.4743792593794
595,598.4911268820649
596,598.5235652514723
597,598.5684644404928
598,598.622194716391
599,598.6812767321339
600,598.7428519755232
601,598.8049812201375
602,598.8667333396745
603,598.928088901227
604,598.9897198357987
605,599.0527080537205
606,599.1182489260257
607,599.1873703051007
608,599.2606912121064
609,599.3382433598147
610,599.4193781233736
611,599.5027787289504
612,599.5865887318006
613,599.6686459974171
614,599.7467789364094
615,599.8190979852367
616,599.8842139256795
617,599.9413316439985
618,599.9902005711235
619,600.030951010765
620,600.063889600191
621,600.0893394970616
622,600.1075881445867
623,600.1189657909572
624,600.1240340833116
625,600.1238205132418
626,600.1200023604181
627,600.1149435749711
628,600.1115331740154
629,600.1128479105439
630,600.1217253975342
631,600.1403622204418
632,600.1700480572382
633,600.2111122305854
634,600.2630892733373
635,600.3250308469835
636,600.395852866263
637,600.4746276074509
638,600.5607770245829
639,600.6541550194913
640,600.7550208265637
641,600.8639235452729
642,600.9815408882771
643,601.1085245790829
644,601.2453912222853
645,601.3924695702099
646,601.5498851394437
647,601.71754316521
648,601.895076104804
649,602.0817545942485
650,602.2763926977294
651,602.4772761830443
652,602.6821149213271
653,602.8880102109289
654,603.0914519791684
655,603.2883870762325
656,603.4743917654854
657,603.6449432339342
658,603.7957500830271
659,603.9230932803366
660,604.0241397638456
661,604.0971978761576
662,604.1418781906563
663,604.1591219923157
664,604.1510827027595
665,604.1208870361586
666,604.0723353385089
667,604.0096052909902
668,603.937002624717
669,603.8587705239685
670,603.7789398682861
671,603.7011860043176
672,603.6286617531023
673,603.5638047626154
674,603.5081609009434
675,603.4622941686373
676,603.4258382034483
677,603.3976885259945
678,603.3762743674354
679,603.3598212472807
680,603.3465317489644
681,603.3346569056409
682,603.3224799708864
683,603.3082684928286
684,603.2902574008428
685,603.2667045580816
686,603.236024901333
687,603.1969788104005
688,603.1488749163357
689,603.0917467290756
690,603.026470868028
691,602.9548067246637
692,602.8793498450564
693,602.8034025180765
694,602.7307742740733
695,602.6655324825942
696,602.611725722151
697,602.5730957494122
698,602.5527837237273
699,602.5530348026525
700,602.5749144117111
701,602.6180626503657
702,602.6805249117248
703,602.7587025204963
704,602.8474602730237
705,602.9404022835442
706,603.0302884213754
707,603.1095317499678
708,603.1707143678804
709,603.2070820617851
710,603.2129979356598
711,603.1843281488548
712,603.1187126157805
713,603.0156759177722
714,602.8765703484084
715,602.7043876020957
716,602.5034981608346
717,602.2793707319457
718,602.0382961840374
719,601.7871055772667
720,601.5328519096504
721,601.2824388497069
722,601.0422221143851
723,600.8176504462849
724,600.6130223816505
725,600.4314043055278
726,600.2747050994899
727,600.1438629924368
728,600.0390832083137
729,599.9600649388575
730,599.9061701514081
731,599.8765129283961
732,599.869974618553
733,599.885167702567
734,599.9203817014088
735,599.9735470898801
736,600.0422419939524
737,600.1237458984875
738,600.2151335567028
739,600.3134127483919
740,600.4157240130644
741,600.5196041197119
742,600.6232603347953
743,600.725751795304
744,600.8269808584096
745,600.9274671941188
746,601.0279637640131
747,601.129028464614
748,601.2306755726238
749,601.3322036270761
750,601.4322345352191
751,601.5289192844577
752,601.6202124878628
753,601.7041274717058
754,601.7789403789133
755,601.8433590223988
756,601.8966687033794
757,601.9388268203886
758,601.9704521881085
759,601.9926767268878
760,602.0068795304169
761,602.0143655307777
762,602.0160621892413
763,602.0122958555627
764,602.0026924619914
765,601.9862327503968
766,601.9614727421256
767,601.9269072408295
768,601.8814130151501
769,601.8246741455948
770,601.7574814098757
771,601.681823775274
772,601.6007501693812
773,601.518046707927
774,601.4378200709274
775,601.3640946425863
776,601.300517891051
777,601.2502185884548
778,601.215792308086
779,601.199342833374
780,601.2025108620048
781,601.2264506472669
782,601.2717405427927
783,601.3382316051752
784,601.424858915246
785,601.5294596337588
786,601.6486499802307
787,601.7778132852494
788,601.9112521515942
789,602.0425488337713
790,602.1651335998578
791,602.272984222335
792,602.361316974899
793,602.4271206039189
794,602.4694234884626
795,602.4892432457918
796,602.4892340758236
797,602.4731133749859
798,602.4449990560906
799,602.4088042738904
800,602.3678104951084
801,602.324482536845
802,602.2805214345764
803,602.2370923757405
804,602.1951239187346
805,602.1555582589332
806,602.1194532077509
807,602.0878945874057
808,602.0617449415299
809,602.0412985717593
810,602.0259288716007
811,602.0138178173356
812,602.0018551891611
813,601.9857745811994
814,601.96054890146
815,601.9210123141161
816,601.8626223340677
817,601.7822339655334
818,601.6787405282232
819,601.553454871457
820,601.4101579963796
821,601.2548130335655
822,601.0950046055177
823,600.9391962526776
824,600.7959045234736
825,600.6728826051567
826,600.576394801188
827,600.5106438668778
828,600.4773876517116
829,600.475757619601
830,600.5022808528398
831,600.5511119091732
832,600.6144878385154
833,600.6834083669283
834,600.7485039477901
835,600.8010016427396
836,600.8336656645807
837,600.8415942263886
838,600.8227821514561
839,600.7783874565406
840,600.7126659760156
841,600.63256704798
842,600.5470208289478
843,600.4659977467578
844,600.3994735122991
845,600.3564609899146
846,600.3442503064085
847,600.3679398441626
848,600.4302752672519
849,600.5317643322534
850,600.6710040593448
851,600.8451391147908
852,601.0503618148741
853,601.2823628956365
854,601.5366558415074
855,601.8087371244299
856,602.0941024253323
857,602.3881882271162
858,602.6863266158256
859,602.9837808197786
860,603.2758766808843
861,603.5581883295336
862,603.8267111341279
863,604.0779723792002
864,604.3090670307323
865,604.51763461649
866,604.7018042904343
867,604.8601350123612
868,604.9915765024264
869,605.0954776945583
870,605.1716656457749
871,605.2205975790368
872,605.2435520994211
873,605.2427934015548
874,605.2216381345473
875,605.184380859738
876,605.1360715125091
877,605.0821653168764
878,605.0280770292297
879,604.9786786220585
880,604.9377906737491
881,604.9077284527252
882,604.8889683591839
883,604.8799954648284
884,604.8773727088824
885,604.8760400086587
886,604.8698226786573
887,604.8521056432164
888,604.8165979723074
889,604.7580772114355
890,604.6729981593265
891,604.5598894045912
892,604.4195160971457
893,604.2548253562937
894,604.0707006035594
895,603.873545176416
896,603.6707158835475
897,603.4698465899394
898,603.2781305570766
899,603.101648488941
900,602.9448309369443
901,602.8101315101136
902,602.6979568013521
903,602.6068501818511
904,602.5338801271705
905,602.4751629728713
906,602.4264532539928
907,602.3837388484383
908,602.3437691650335
909,602.3044345022927
910,602.2649221680907
911,602.2256027846761
912,602.1876437780493
913,602.1524085750102
914,602.1207729239615
915,602.0925419511611
916,602.066143567152
917,602.0386912207084
