acceleration,velocity,displacement
-0.042878760539777724,0.0,0.0
-0.04233954187526689,-2.1304575603761152e-05,-5.326143900940288e-09
-0.04178746591797011,-4.2336327552070404e-05,-2.123636968989818e-08
-0.04122372903188138,-6.308912628953328e-05,-4.7592733150299093e-08
-0.0406495736771988,-8.355745196680332e-05,-8.425437771438325e-08
-0.04006628453566223,-0.00010373641652001859,-1.3107784483608872e-07
-0.039475184252151574,-0.00012362178371697204,-1.8791739489533638e-07
-0.038877628820681964,-0.00014320998698518042,-2.546253375708745e-07
-0.038275002653082126,-0.00016249814485362144,-3.31052370530575e-07
-0.03766871337129946,-0.00018148407385971683,-4.1704792520890954e-07
-0.037060186352868486,-0.0002001662987907588,-5.124605183715284e-07
-0.036450859035931045,-0.0002185440601379587,-6.171381081037078e-07
-0.035842174967760716,-0.00023661731863888164,-7.309284527979179e-07
-0.03523557757324905,-0.0002543867567741341,-8.536794716511719e-07
-0.03463250363390745,-0.0002718537770759232,-9.852396051136861e-07
-0.03403437649941937,-0.00028902049710925493,-1.1254581736599806e-06
-0.03344259908933987,-0.00030588974100644473,-1.2741857331889055e-06
-0.03285854676666205,-0.0003224650274704452,-1.431274425308128e-06
-0.03228356017136891,-0.00033875055420495295,-1.5965783207269775e-06
-0.03171893809722812,-0.0003547511787721022,-1.7699537539712413e-06
-0.03116593048869973,-0.00037047239591858416,-1.951259647643913e-06
-0.03062573162943103,-0.00038592031144811685,-2.140357824485588e-06
-0.030099473585646058,-0.00040110161275188613,-2.337113305535589e-06
-0.02958821995703106,-0.0004160235361375554,-2.5413945927579494e-06
-0.02909295998153116,-0.00043069383112219597,-2.7530739345728874e-06
-0.028614603044475138,-0.00044512072187869757,-2.9720275728231108e-06
-0.028153973653216376,-0.00045931286605312046,-3.198135969806065e-06
-0.027711806946715593,-0.00047327931120310344,-3.431284014120121e-06
-0.027288744808013594,-0.00048702944914178576,-3.6713612042063436e-06
-0.026885332636124696,-0.0005005729685028204,-3.918261808617495e-06
-0.026502016819102532,-0.0005139198058666272,-4.171885002209857e-06
-0.026139142941248594,-0.000527080095806715,-4.432134977628192e-06
-0.02579695475727057,-0.0005400641202313448,-4.698921031637707e-06
-0.025475593964338017,-0.000552882257411747,-4.97215762604848e-06
-0.025175100784764207,-0.0005655449310990225,-5.251764423176172e-06
-0.024895415334373085,-0.0005780625601288068,-5.53766629598313e-06
-0.024636379704509184,-0.0005904455088885273,-5.829793313237463e-06
-0.0243977406439676,-0.0006027040389756465,-6.128080700203507e-06
-0.024179152704187697,-0.0006148482623126853,-6.43246877552559e-06
-0.023980181714871703,-0.0006268880959174502,-6.7429028650831236e-06
-0.023800308485484034,-0.0006388332184675392,-7.059333193679371e-06
-0.023638932668601856,-0.0006506930287560607,-7.381714755485271e-06
-0.023495376761307227,-0.000662476606113538,-7.710007164202671e-06
-0.02336889025315309,-0.000674192672867153,-8.044174483947843e-06
-0.023258653948851328,-0.0006858495589176541,-8.384185041894045e-06
-0.02316378449827099,-0.0006974551685294347,-8.730011223755818e-06
-0.02308333915636737,-0.0007090169494430943,-9.08162925324895e-06
-0.023016320773439215,-0.0007205418644255459,-9.43901895671611e-06
-0.022961682987655076,-0.0007320363653658194,-9.802163514163952e-06
-0.022918335570448346,-0.0007435063700053453,-1.0171049198006744e-05
-0.02288514987343967,-0.0007549572413663172,-1.054566510084966e-05
-0.022860964342913275,-0.0007663937699204055,-1.092600285367134e-05
-0.022844590091749963,-0.0007778201585290713,-1.1312056335783709e-05
-0.02283481653273239,-0.0007892400101851919,-1.1703821377962275e-05
-0.022830417071894787,-0.0008006563185863487,-1.210129546015516e-05
-0.022830154840816134,-0.0008120714615645264,-1.2504477405192878e-05
-0.022832788429236587,-0.0008234871973820397,-1.291336706992952e-05
-0.022837077578141334,-0.0008349046638838841,-1.3327965035246e-05
-0.02284178880662894,-0.0008463243804800767,-1.374827229633699e-05
-0.022845700961910954,-0.0008577462529222117,-1.4174289954687563e-05
-0.022847610692968583,-0.0008691695808359316,-1.4606018913127099e-05
-0.022846337852765405,-0.0008805930679723651,-1.5043459575329173e-05
-0.022840730829146096,-0.000892014835142843,-1.5486611551107976e-05
-0.022829671792517152,-0.0009034324357982588,-1.593547336884325e-05
-0.022812081838929084,-0.0009148428742061204,-1.6390042196344347e-05
-0.02278692600742746,-0.0009262426261677096,-1.6850313571437804e-05
-0.02275321815761599,-0.0009376276622089704,-1.7316281143531973e-05
-0.022710025701872444,-0.0009489934731738425,-1.7787936427377675e-05
-0.022656474195883774,-0.0009603350981482816,-1.8265268570208206e-05
-0.02259175179962503,-0.0009716471546471588,-1.8748264133407065e-05
-0.022515113625690978,-0.0009829238710034878,-1.9236906889819727e-05
-0.02242588599257815,-0.0009941591209080552,-1.9731177637797614e-05
-0.02232347059750731,-0.0010053464600555766,-2.023105403303852e-05
-0.022207348613825964,-0.00101647916485841,-2.073651043926702e-05
-0.022077084698630504,-0.001027550273186524,-2.1247517798778252e-05
-0.02193233086702223,-0.0010385526270779372,-2.1764043523844366e-05
-0.02177283015610141,-0.001049478917333718,-2.228605140994728e-05
-0.02159841997690766,-0.0010603217298669704,-2.2813501571747453e-05
-0.02140903504747543,-0.0010710735936230661,-2.334635040261996e-05
-0.021204709812648374,-0.001081727029838097,-2.3884550558485253e-05
-0.020985580269161308,-0.0010922746023585494,-2.4428050966534416e-05
-0.02075188511456788,-0.0011027089687044816,-2.4976796859300173e-05
-0.02050396613134693,-0.0011130229315159603,-2.5530729834355285e-05
-0.02024226771980318,-0.0011232094899787477,-2.6089787939728963e-05
-0.01996733551630824,-0.0011332618907877756,-2.6653905784920593e-05
-0.019679814071687007,-0.0011431736781847743,-2.722301467716373e-05
-0.019380443602203513,-0.001152938742603247,-2.7797042782360735e-05
-0.019070055848450288,-0.0011625513674659105,-2.8375915309878023e-05
-0.018749569083246615,-0.0011720062736988348,-2.8959554720169208e-05
-0.018419982307984552,-0.0011812986615466427,-2.9547880953980578e-05
-0.01808236867943432,-0.0011904242492934973,-3.0140811681690613e-05
-0.017737868220062153,-0.0011993793085183714,-3.073826257114358e-05
-0.01738767988014874,-0.001208160695543424,-3.134014757215903e-05
-0.01703305303450478,-0.0012167658787720875,-3.194637921573791e-05
-0.01667527850954328,-0.0012251929616580995,-3.255686892584545e-05
-0.016315679247840442,-0.0012334407010974454,-3.3171527341534336e-05
-0.015955600722205525,-0.0012415085210899569,-3.3790264647081186e-05
-0.015596401204622592,-0.001249396521571664,-3.441299090774659e-05
-0.015239441979975897,-0.0012571054823678136,-3.503961640873146e-05
-0.01488607758281595,-0.0012646368622585115,-3.567005199488804e-05
-0.01453764613740376,-0.0012719927931885665,-3.630420940874981e-05
-0.014195459891979826,-0.0012791760696959124,-3.694200162447093e-05
-0.013860796043451046,-0.0012861901336797702,-3.758334317531485e-05
-0.013534887942677749,-0.0012930390546763023,-3.8228150472403865e-05
-0.013218916757924441,-0.0012997275058514528,-3.88763421125358e-05
-0.012914003658047509,-0.0013062607359554457,-3.9527839172987524e-05
-0.012621202557106697,-0.0013126445375092344,-4.01825654913537e-05
-0.012341493442374478,-0.0013188852115091046,-4.084044792860828e-05
-0.01207577629764588,-0.0013249895289441098,-4.1501416613721584e-05
-0.011824865636991663,-0.0013309646894277692,-4.2165405168314555e-05
-0.01158948567469961,-0.001336818277255692,-4.283235090998542e-05
-0.011370266164431635,-0.0013425582152154748,-4.350219503310321e-05
-0.011167738940394726,-0.0013481927164916813,-4.417488276603e-05
-0.010982335188695156,-0.001353730235023954,-4.485036350390891e-05
-0.010814383471824451,-0.0013591794146890837,-4.552859091633717e-05
-0.010664108522537918,-0.0013645490376876742,-4.620952302943136e-05
-0.01053163081386785,-0.0013698479725217756,-4.6893122281983726e-05
-0.010416966900488645,-0.0013750851219503646,-4.757935555560176e-05
-0.01032003051538298,-0.0013802693713043325,-4.826819417891543e-05
-0.010240634394021904,-0.0013854095375316837,-4.895961390612444e-05
-0.010178492787556486,-0.0013905143193270783,-4.965359487033913e-05
-0.010133224625047298,-0.0013955922486802292,-5.035012151234096e-05
-0.010104357299965899,-0.0014006516441614826,-5.104918248555139e-05
-0.010091331079419862,-0.001405700566256329,-5.175077053815584e-05
-0.01009350414524542,-0.0014107467750624951,-5.2454882373485547e-05
-0.010110158262796785,-0.0014157976906645057,-5.3161518489917296e-05
-0.010140505042544818,-0.001420860356490841,-5.3870683001706134e-05
-0.010183692724817681,-0.0014259414059326818,-5.4582383442312014e-05
-0.01023881338744781,-0.0014310470324607482,-5.529663055191037e-05
-0.01030491045304278,-0.001436182963420871,-5.601343805088077e-05
-0.010380986359983633,-0.0014413544376241274,-5.6732822401142024e-05
-0.01046601025780835,-0.0014465661867785755,-5.74548025572427e-05
-0.010558925588372412,-0.0014518224207401207,-5.8179399709122375e-05
-0.010658657418556204,-0.0014571268164918529,-5.890663701843037e-05
-0.01076411940436399,-0.001462482510697583,-5.963653935022773e-05
-0.01087422029148722,-0.0014678920956215458,-6.0369133001807515e-05
-0.010987869885089435,-0.0014733576181656899,-6.110444543025433e-05
-0.011103984443813055,-0.0014788805817479156,-6.184250498023273e-05
-0.011221491472701397,-0.0014844619507270443,-6.258334061335147e-05
-0.011339333914943758,-0.0014901021570739555,-6.332698164030172e-05
-0.011456473774033075,-0.0014958011089961998,-6.407345745681926e-05
-0.01157189522762694,-0.001501558201246615,-6.482279728437997e-05
-0.011684607314181776,-0.001507372326882067,-6.557502991641214e-05
-0.011793646281092182,-0.0015132418902808855,-6.633018347070289e-05
-0.01189807767961403,-0.001519164821271062,-6.708828514859088e-05
-0.011996998277923039,-0.0015251385902604463,-6.784936100147376e-05
-0.012089537842142702,-0.0015311602242904627,-6.861343570511149e-05
-0.012174860813331157,-0.001537226323954331,-6.938053234217269e-05
-0.012252167892034961,-0.0015433330811306725,-7.015067219344394e-05
-0.012320697531252721,-0.0015494762974864944,-7.092387453809824e-05
-0.012379727332453263,-0.0015556514037024208,-7.170015646339547e-05
-0.012428575339472817,-0.0015618534793704023,-7.247953268416367e-05
-0.012466601233167505,-0.0015680772735135625,-7.326201537238467e-05
-0.012493207440111983,-0.0015743172256818822,-7.404761399718353e-05
-0.01250784017371241,-0.0015805674875853384,-7.483633517550034e-05
-0.012509990425387389,-0.0015868219452351132,-7.562818253370545e-05
-0.01249919492363367,-0.0015930742415723685,-7.642315658040733e-05
-0.012475037084174384,-0.0015993177995743207,-7.7221254590694e-05
-0.012437147981634282,-0.0016055458458407727,-7.802247050204777e-05
-0.012385207377641325,-0.0016117514346805917,-7.88267948221781e-05
-0.012318944838454887,-0.0016179274727346157,-7.96342145490319e-05
-0.01223814096320335,-0.0016240667441850302,-8.044471310326182e-05
-0.012142628717767103,-0.0016301619366052727,-8.125827027345939e-05
-0.012032294834313532,-0.0016362056674932928,-8.207486217448403e-05
-0.011907081206034162,-0.0016421905115033798,-8.28944612192332e-05
-0.011766986189537816,-0.0016481090283522728,-8.371703610419712e-05
-0.011612065721339753,-0.0016539537913299923,-8.454255180911768e-05
-0.011442434153873086,-0.0016597174162987956,-8.537096961102487e-05
-0.01125826472114541,-0.0016653925910175501,-8.620224711285395e-05
-0.01105978956061475,-0.0016709721045879901,-8.703633828675534e-05
-0.01084729924804807,-0.0016764488767901558,-8.787319353209987e-05
-0.010621141838966173,-0.0016818159870619093,-8.871275974806288e-05
-0.010381721444486364,-0.0016870667028827725,-8.955498042054906e-05
-0.010129496394833456,-0.0016921945073426023,-9.039979572310541e-05
-0.00986497705629503,-0.0016971931257053845,-9.12471426313674e-05
-0.009588723365283403,-0.0017020565508107791,-9.209695505049644e-05
-0.00930134213238064,-0.0017067790671851952,-9.294916395499543e-05
-0.009003484156979324,-0.0017113552737575352,-9.380369754023111e-05
-0.0086958411806356,-0.001715780105091939,-9.466048138494348e-05
-0.008379142694212456,-0.0017200488510606508,-9.551943862398162e-05
-0.008054152603943448,-0.00172415717488519,-9.638049013046808e-05
-0.0077216657602690785,-0.001728101129476243,-9.724355470655844e-05
-0.007382504360763715,-0.0017318771720065012,-9.810854928192912e-05
-0.0070375142485969745,-0.0017354821766588414,-9.897538911909546e-05
-0.006687561131972186,-0.0017389134455039837,-9.984398802463617e-05
-0.00633352674271372,-0.0017421687174726552,-0.00010071425856538033
-0.005976304936805506,-0.001745246175392535,-0.00010158611228859662
-0.005616797726559819,-0.0017481444510583763,-0.00010245945994520935
-0.005255911232912658,-0.0017508626282982443,-0.00010333421171504851
-0.004894551556919665,-0.0017534002439957023,-0.000104210277433122
-0.004533620583678455,-0.001755757287030852,-0.00010508756681587864
-0.004174011742854054,-0.001757934195112485,-0.00010596598968641446
-0.003816605757972545,-0.0017599318494876917,-0.0001068454561975645
-0.003462266423678637,-0.0017617515675331045,-0.00010772587705181971
-0.0031118364568179604,-0.0017633950932532286,-0.00010860716371701629
-0.0027661334733608206,-0.0017648645857357734,-0.00010948922863676354
-0.0024259461476376144,-0.001766162605641023,-0.00011037198543460774
-0.002092030607726025,-0.001767292099829864,-0.00011125534911097546
-0.0017651071076253899,-0.0017682563842587018,-0.0001121392362319976
-0.0014458569972255616,-0.0017690591252849145,-0.00011302356510938351
-0.0011349199932335905,-0.0017697043195325293,-0.00011390825597058787
-0.0008328917437541622,-0.0017701962724667763,-0.0001147932311185877
-0.0005403216766123168,-0.0017705395758218678,-0.00011567841508065987
-0.00025771112288620467,-0.0017707390840217424,-0.00011656373474562077
1.4488291628504639e-05,-0.0017707998897295567,-0.00011744911948905859
0.0002758759944701417,-0.001770727298658032,-0.00011833450128615548
0.0005261035607284368,-0.0017705268037692325,-0.0001192198148117623
0.0007648755559672267,-0.0017702040589900585,-0.00012010499752745212
0.0009919501226165032,-0.0017697648525704125,-0.00012098998975534224
0.0012071392949975542,-0.001769215080216009,-0.00012187473473853884
0.001410309022294146,-0.001768560718136686,-0.00012275917868812702
0.0016013788814052035,-0.0017678077961607612,-0.0001236432708167014
0.001780321470540976,-0.0017669623710727747,-0.00012452696335850977
0.0019471614807558674,-0.0017660305003349504,-0.0001254102115763617
0.0021019744401713936,-0.0017650182163547186,-0.0001262929737555341
0.0022448851181679497,-0.0017639315014651338,-0.00012717521118498905
0.0023760655737483554,-0.0017627762637921548,-0.00012805688812630338
0.0024957328374879493,-0.0017615583141893456,-0.00012893797177079876
0.00260414622465114,-0.001760283344423811,-0.00012981843218545205
0.002701604283932392,-0.001758956906796665,-0.00013069824224825718
0.0027884413953647644,-0.0017575843953768406,-0.00013157737757380056
0.0028650240469385736,-0.0017561710290162648,-0.00013245581642989883
0.0029317468389422215,-0.0017547218362947946,-0.0001333335396462266
0.002989028280970211,-0.0017532416425148165,-0.000134210530515929
0.003037306453951679,-0.001751735058831086,-0.00013508677469126546
0.0030770346048228795,-0.0017502064735663923,-0.00013596226007436482
0.003108676724438835,-0.0017486600457340769,-0.00013683697670418993
0.0031327031398695453,-0.0017470997007679998,-0.00013771091664081545
0.0031495861424838617,-0.0017455291284474116,-0.0001385840738481193
0.0031597956741350737,-0.001743951782993257,-0.00013945644407597945
0.0031637950941701284,-0.0017423708853011807,-0.00014032802474305307
0.003162037041642503,-0.0017407894272672276,-0.00014119881482119518
0.003154959393360197,-0.001739210178158477,-0.0001420688147225516
0.00314298130633763,-0.0017376356929835527,-0.0001429380261903371
0.0031264993259297737,-0.0017360683228254859,-0.00014380645219428935
0.00310588354086036,-0.0017345102271087882,-0.00014467409683177292
0.0030814737782177736,-0.0017329633877790187,-0.00014554096523549488
0.0030535758542413367,-0.001731429625370904,-0.00014640706348878236
0.0030224579198988334,-0.0017299106169273689,-0.00014727239854935692
0.002988346953160247,-0.0017284079157091042,-0.00014813697818251605
0.002951425450611373,-0.0017269229726081612,-0.00014900081090459536
0.0029118283667108457,-0.0017254571591538306,-0.00014986390593753587
0.0028696403468444344,-0.0017240117919754417,-0.0001507262731753182
0.0028248933013864212,-0.001722588158563384,-0.0001515879231629529
0.002777564367813205,-0.001721187544146084,-0.00015244886708863027
0.0027275743047887133,-0.0017198112594779334,-0.00015330911678953629
0.002674786359535311,-0.0017184606693118525,-0.00015416868477173372
0.002619005651604596,-0.0017171372213090675,-0.00015502758424438894
0.002559979121121993,-0.0017158424751158858,-0.00015588582916849518
0.002497396089882709,-0.0017145781313131347,-0.00015674343432010244
0.0024308894745854095,-0.0017133460599220176,-0.00015760041536791122
0.002360037675457299,-0.001712148328134507,-0.00015845678896492536
0.002284367147452309,-0.0017109872269287796,-0.00015931257285369118
0.0022033556500553786,-0.0017098652962294026,-0.00016016778598448072
0.002116436166639421,-0.001708785348275229,-0.0001610224486456069
0.0020230014820343993,-0.0017077504888630606,-0.00016187658260489147
0.0019224094006865973,-0.0017067641361423803,-0.00016273021126114284
0.0018139885738246086,-0.0017058300366487526,-0.00016358335980434061
0.0016970448892092793,-0.0017049522782829941,-0.00016443605538307354
0.0015708683743045086,-0.0017041352999671157,-0.00016528832727763607
0.0014347405761884347,-0.0017033838977294925,-0.00016614020707706023
0.0012879423946114289,-0.0017027032269867925,-0.0001669917288582393
0.001129762339833621,-0.0017020988008031813,-0.00016784292936518677
0.0009595051595104795,-0.0017015764839283453,-0.00016869384818636964
0.000776500742867107,-0.0017011424824527508,-0.00016954452792796492
0.0005801131847825322,-0.0017008033289708385,-0.00017039501438082083
0.0003697498847235483,-0.001700565863203462,-0.0001712453566788644
0.00014487055802217793,-0.0017004372080927756,-0.00017209560744668847
-9.500395894243781e-05,-0.0017004247414430056,-0.00017294582293407243
-0.0003502832233171872,-0.0017005360632385705,-0.00017379606313524282
-0.0006212991266519272,-0.0017007789588260628,-0.00017464639189075897
-0.0009082983629669967,-0.0017011613581984675,-0.0001754968769700151
-0.0012114355249857034,-0.0017016912916704558,-0.00017634759013248233
-0.0015307669340472439,-0.001702376842285214,-0.00017719860716597125
-0.0018662453149348999,-0.0017032260953474595,-0.00017805000790037942
-0.002217715431334984,-0.001704247085534027,-0.0001789018761955998
-0.0025849107967386323,-0.0017054477420910454,-0.00017975429990250605
-0.002967451562721627,-0.0017068358326809104,-0.00018060737079619906
-0.003364843659309195,-0.0017084189064864182,-0.0001814611844809909
-0.0037764792259296315,-0.001710204237207728,-0.00018231584026691443
-0.004201638335136628,-0.0017121987665979946,-0.00018317144101786585
-0.00463949198244614,-0.0017144090491773903,-0.0001840280929718097
-0.005089106297875711,-0.0017168411987474707,-0.0001848859055337909
-0.005549447925625627,-0.0017195008373033461,-0.00018574499104280362
-0.006019390509721384,-0.001722393046912183,-0.0001866054645138575
-0.006497722209147567,-0.0017255223250919002,-0.00018746744335685852
-0.006983154147115418,-0.001728892544180966,-0.00018833104707417675
-0.007474329680877116,-0.001732506915137964,-0.00018919639693900647
-0.007969834364559433,-0.0017363679561493233,-0.00019006361565682828
-0.008468206469528158,-0.0017404774663578452,-0.00019093282701245507
-0.008967947925380745,-0.0017448365049565725,-0.00019180415550528368
-0.009467535544140432,-0.0017494453758239528,-0.0001926777259754788
-0.009965432383454235,-0.0017543036178058514,-0.00019355366322388625
