frame_number,force
0,735.0356828827888
1,735.0762623892344
2,735.1178094856947
3,735.160234138453
4,735.2034428447712
5,735.2473389244815
6,735.2918228404574
7,735.3367925458457
8,735.3821438551788
9,735.4277708362855
10,735.4735662207779
11,735.5194218326336
12,735.5652290360806
13,735.6108792045569
14,735.6562642114556
15,735.7012769409969
16,735.7458118148935
17,735.7897653286581
18,735.8330365909223
19,735.8755278595021
20,735.9171450684225
21,735.957798340526
22,735.9974024808968
23,736.0358774471455
24,736.0731487930591
25,736.1091480818229
26,736.1438132642097
27,736.177089016511
28,736.2089270330973
29,736.2392862693531
30,736.2681331318438
31,736.2954416132345
32,736.3211933694909
33,736.3453777370331
34,736.3679916888859
35,736.3890397317002
36,736.4085337490693
37,736.4264927996971
38,736.4429428807033
39,736.4579166660614
40,736.4714532280384
41,736.4835977464543
42,736.4944012075523
43,736.5039200918394
44,736.5122160487774
45,736.519355555873
46,736.5254095604636
47,736.5304531041704
48,736.5345649321288
49,736.5378270907144
50,736.5403245176291
51,736.5421446269029
52,736.5433768895717
53,736.5441124097368
54,736.5444434961053
55,736.5444632305997
56,736.5442650369441
57,736.5439422522242
58,736.543587703431
59,736.5432932897896
60,736.5431495708332
61,736.5432453598528
62,736.5436673227151
63,736.5444995829422
64,736.5458233346629
65,736.5477164650268
66,736.5502531871374
67,736.553503683924
68,736.5575337626758
69,736.5624045193262
70,736.5681720112136
71,736.5748869369967
72,736.5825943226232
73,736.5913332129759
74,736.601136370274
75,736.6120299825122
76,736.6240333877222
77,736.6371588217188
78,736.6514111973697
79,736.6667879224896
80,736.6832787624912
81,736.7008657539221
82,736.7195231755578
83,736.739217583554
84,736.7599079154326
85,736.7815456647969
86,736.8040751258404
87,736.8274337049903
88,736.8515522965938
89,736.8763557196787
90,736.9017632126265
91,736.9276889817656
92,736.9540427987456
93,736.9807306404613
94,737.0076553643206
95,737.0347174107936
96,737.0618155248123
97,737.0888474880925
98,737.1157108556106
99,737.1423036903471
100,737.1685252902574
101,737.1942769006257
102,737.2194624045637
103,737.2439889848667
104,737.2677677513899
105,737.2907143293112
106,737.3127494051439
107,737.3337992288448
108,737.3537960711221
109,737.3726786348044
110,737.3903924183317
111,737.4068900288845
112,737.4221314426821
113,737.4360842103297
114,737.4487236054877
115,737.4600327156401
116,737.4700024744535
117,737.4786316360874
118,737.4859266926629
119,737.4919017369828
120,737.4965782733975
121,737.4999849798289
122,737.5021574228123
123,737.5031377256753
124,737.502974189165
125,737.5017208648367
126,737.4994370838301
127,737.4961869462765
128,737.4920387788785
129,737.4870645699427
130,737.4813393920896
131,737.4749408231288
132,737.4679483755307
133,737.4604429445949
134,737.4525062843594
135,737.4442205183933
136,737.4356676905339
137,737.4269293589548
138,737.4180862354689
139,737.4092178700741
140,737.400402378364
141,737.3917162071901
142,737.383233932477
143,737.3750280825096
144,737.3671689802783
145,737.3597245995087
146,737.352760430629
147,737.3463393545662
148,737.3405215234988
149,737.3353642485018
150,737.3309218944886
151,737.3272457828364
152,737.3243841014818
153,737.3223818214843
154,737.3212806186764
155,737.3211187990706
156,737.3219312266846
157,737.323749252036
158,737.3266006390186
159,737.3305094875308
160,737.3354961493676
161,737.3415771357882
162,737.3487650171328
163,737.3570683174995
164,737.3664914097815
165,737.3770344176539
166,737.3886931315516
167,737.4014589457536
168,737.41531882334
169,737.4302552945458
170,737.4462464917649
171,737.4632662216882
172,737.4812840724794
173,737.5002655519826
174,737.5201722520093
175,737.5409620339157
176,737.5625892314896
177,737.5850048680916
178,737.6081568859336
179,737.631990386361
180,737.6564478807521
181,737.6814695517438
182,737.7069935239339
183,737.7329561424442
184,737.7592922574313
185,737.785935513176
186,737.812818641542
187,737.8398737605792
188,737.8670326791384
189,737.8942272075668
190,737.9213894734879
191,737.9484522408485
192,737.97534922981
193,738.002015434536
194,738.0283874354234
195,738.0544037018636
196,738.0800048812839
197,738.1051340704162
198,738.1297370657364
199,738.1537625914932
200,738.1771625050869
201,738.1998919803502
202,738.2219096694748
203,738.2431778442271
204,738.2636625170005
205,738.2833335422642
206,738.3021646989102
207,738.3201337536881
208,738.3372225053346
209,738.3534168082814
210,738.3687065743837
211,738.3830857513108
212,738.39655227691
213,738.4091080093345
214,738.420758632538
215,738.4315135361802
216,738.4413856687548
217,738.4503913631416
218,738.4585501344022
219,738.465884450154
220,738.4724194745421
221,738.478182788032
222,738.4832040867117
223,738.487514865991
224,738.4911480941424
225,738.4941378807735
226,738.4965191440372
227,738.4983272789257
228,738.4995978282566
229,738.5003661580321
230,738.5006671388804
231,738.5005348346622
232,738.5000021982885
233,738.4991007738914
234,738.4978604039372
235,738.4963089398686
236,738.494471955755
237,738.492372466141
238,738.490030651029
239,738.4874635919011
240,738.4846850227431
241,738.4817050997042
242,738.4785301928681
243,738.4751627036859
244,738.4716009116127
245,738.4678388532526
246,738.4638662371218
247,738.4596683972732
248,738.4552262894015
249,738.4505165330694
250,738.4455115030106
251,738.4401794712605
252,738.4344848006547
253,738.4283881893963
254,738.421846966012
255,738.414815433842
256,738.4072452637383
257,738.3990859325949
258,738.3902852042152
259,738.3807896488183
260,738.3705451984225
261,738.3594977363305
262,738.3475937185824
263,738.334780823182
264,738.3210086201899
265,738.3062292538518
266,738.2903981273488
267,738.2734745809511
268,738.255422554662
269,738.2362112267983
270,738.2158156204886
271,738.194217170497
272,738.1714042427747
273,738.1473725987958
274,738.1221257963099
275,738.0956755178003
276,738.0680418180085
277,738.0392532828546
278,738.0093470941296
279,737.9783689970637
280,737.946373170606
281,737.9134220024201
282,737.879585771941
283,737.8449422455204
284,737.8095761883427
285,737.7735787988651
286,737.7370470729584
287,737.7000831062969
288,737.6627933445941
289,737.6252877918806
290,737.5876791871278
291,737.5500821595583
292,737.5126123734957
293,737.4753856743563
294,737.4385172474156
295,737.4021207998916
296,737.3663077753813
297,737.3311866087458
298,737.2968620292227
299,737.2634344191587
300,737.2309992347299
301,737.1996464933623
302,737.1694603306224
303,737.1405186275282
304,737.1128927076988
305,737.0866471023219
306,737.0618393794834
307,737.0385200335743
308,737.016732430893
309,736.9965128093324
310,736.9778903325108
311,736.9608872004519
312,736.9455188184323
313,736.9317940227222
314,736.9197153582752
315,736.9092794008388
316,736.9004771150119
317,736.8932942398241
318,736.8877116937936
319,736.8837059919252
320,736.8812496677667
321,736.8803116946127
322,736.8808579014402
323,736.8828513809532
324,736.8862528885854
325,736.8910212320453
326,736.8971136510988
327,736.9044861872339
328,736.913094043035
329,736.9228919314426
330,736.933834415201
331,736.945876236595
332,736.9589726373479
333,736.9730796686041
334,736.9881544911842
335,737.004155666251
336,737.0210434356889
337,737.0387799900144
338,737.0573297201607
339,737.0766594483941
340,737.0967386329315
341,737.1175395406981
342,737.1390373832118
343,737.1612104113727
344,737.1840399654258
345,737.20751047677
346,737.2316094192939
347,737.2563272095721
348,737.2816570569626
349,737.3075947660531
350,737.334138494954
351,737.3612884734675
352,737.3890466852902
353,737.4174165187452
354,737.4464023914129
355,737.4760093550234
356,737.5062426876536
357,737.5371074807404
358,737.5686082290149
359,737.6007484321333
360,737.6335302171472
361,737.6669539908071
362,737.7010181300026
363,737.7357187176244
364,737.7710493301055
365,737.807000881977
366,737.8435615318231
367,737.8807166527778
368,737.9184488692256
369,737.9567381601044
370,737.995562028579
371,738.0348957374152
372,738.0747126081824
373,738.11498438016
374,738.1556816222983
375,738.1967741896628
376,738.2382317144967
377,738.2800241208419
378,738.3221221505373
379,738.3644978879407
380,738.4071252712145
381,738.4499805789662
382,738.4930428817814
383,738.5362944487383
384,738.5797210998013
385,738.6233124962159
386,738.6670623624123
387,738.710968634199
388,738.755033529524
389,738.7992635402927
390,738.8436693464237
391,738.888265655493
392,738.9330709724377
393,738.9781073040839
394,739.02339980335
395,739.068976358407
396,739.1148671330951
397,739.1611040661523
398,739.2077203378088
399,739.254749812688
400,739.3022264675637
401,739.350183811601
402,739.3986543061433
403,739.4476687916757
404,739.497255931052
405,739.547441679352
406,739.5982487910967
407,739.6496963749054
408,739.701799504099
409,739.7545688890762
410,739.8080106138444
411,739.8621259359716
412,739.916911147465
413,739.9723574936594
414,740.0284511472315
415,740.0851732342842
416,740.1424999091109
417,740.2004024741749
418,740.2588475419043
419,740.3177972346963
420,740.3772094191155
421,740.4370379700534
422,740.4972330606063
423,740.557741473515
424,740.6185069301997
425,740.6794704336247
426,740.7405706213661
427,740.8017441253725
428,740.8629259349028
429,740.9240497588399
430,740.9850483830896
431,741.0458540182738
432,741.1063986325009
433,741.1666142639306
434,741.226433308595
435,741.2857887804527
436,741.344614542166
437,741.4028455059595
438,741.4604178042333
439,741.5172689302133
440,741.573337850508
441,741.6285650938557
442,741.6828928225565
443,741.7362648942792
444,741.7886269220679
445,741.8399263395469
446,741.8901124764445
447,741.9391366469032
448,741.9869522505836
449,742.0335148851175
450,742.0787824679619
451,742.1227153657682
452,742.1652765297385
453,742.2064316358058
454,742.2461492284604
455,742.2844008667016
456,742.3211612700653
457,742.3564084618736
458,742.3901239056918
459,742.4222926299411
460,742.4529033352785
461,742.4819484797439
462,742.5094243373708
463,742.5353310266482
464,742.559672506154
465,742.5824565361848
466,742.6036946070045
467,742.6234018355296
468,742.6415968323913
469,742.6583015408036
470,742.6735410484578
471,742.6873433742949
472,742.699739233394
473,742.7107617849437
474,742.720446369721
475,742.7288302439132
476,742.7359523151879
477,742.7418528853451
478,742.7465734025286
479,742.7501562251334
480,742.7526443991379
481,742.7540814504636
482,742.7545111938227
483,742.7539775588558
484,742.7525244330751
485,742.7501955201133
486,742.7470342123178
487,742.7430834790595
488,742.7383857750019
489,742.7329829745404
490,742.7269163391186
491,742.720226523257
492,742.7129536228568
493,742.7051372657903
494,742.6968167406402
495,742.6880311559112
496,742.6788196201657
497,742.6692214335621
498,742.6592762825621
499,742.6490244312963
500,742.6385069046754
501,742.6277656593412
502,742.6168437388003
503,742.6057854088599
504,742.5946362693672
505,742.5834433386854
506,742.5722551083046
507,742.5611215662688
508,742.55009418946
509,742.539225905946
510,742.5285710290611
511,742.5181851644963
512,742.5081250908303
513,742.4984486131175
514,742.4892143885236
515,742.4804817225681
516,742.4723103342998
517,742.4647600887639
518,742.4578906956881
519,742.4517613745743
520,742.446430488109
521,742.441955147468
522,742.4383907943039
523,742.4357907646811
524,742.4342058399395
525,742.4336837887774
526,742.4342689043666
527,742.4360015406423
528,742.4389176533549
529,742.4430483538279
530,742.4484194857184
531,742.4550512362405
532,742.462957792635
533,742.4721470524158
534,742.4826203928761
535,742.4943725021993
536,742.5073912715509
537,742.5216577449692
538,742.5371461220853
539,742.5538238080128
540,742.5716515051487
541,742.5905833428541
542,742.6105670425206
543,742.6315441167872
544,742.6534501023121
545,742.67621482566
546,742.699762701701
547,742.7240130634175
548,742.7488805211041
549,742.774275347815
550,742.8001038869368
551,742.8262689774064
552,742.852670392644
553,742.8792052904922
554,742.9057686728036
555,742.9322538544826
556,742.9585529427227
557,742.9845573277607
558,743.0101581865995
559,743.0352470008545
560,743.0597160892013
561,743.0834591536978
562,743.1063718376118
563,743.1283522906849
564,743.149301736523
565,743.1691250362126
566,743.1877312420709
567,743.2050341351488
568,743.2209527396817
569,743.2354118075295
570,743.2483422661355
571,743.2596816246365
572,743.2693743343139
573,743.277372101417
574,743.2836341522946
575,743.2881274523886
576,743.2908268816493
577,743.2917153691051
578,743.2907839886361
579,743.2880320165597
580,743.2834669497399
581,743.277104481276
582,743.2689684301587
583,743.2590906218818
584,743.2475107183478
585,743.234275996842
586,743.2194410789765
587,743.2030676112677
588,743.1852238994447
589,743.1659844988934
590,743.1454297640715
591,743.1236453603402
592,743.10072174218
593,743.0767536018199
594,743.0518392917218
595,743.0260802234513
596,742.9995802448516
597,742.9724449975738
598,742.9447812580544
599,742.91669626657
600,742.8882970502668
601,742.8596897463863
602,742.8309789315507
603,742.8022669626791
604,742.7736533351612
605,742.7452340638051
606,742.7171010913191
607,742.6893417281166
608,742.6620381269705
609,742.6352667966366
610,742.6090981591024
611,742.5835961548967
612,742.5588179002859
613,742.5348133998384
614,742.5116253178106
615,742.4892888116476
616,742.4678314302561
617,742.4472730784893
618,742.4276260474843
619,742.4088951083758
620,742.3910776650176
621,742.374163960289
622,742.358137330518
623,742.3429745032028
624,742.3286459339088
625,742.3151161785678
626,742.3023442973777
627,742.2902842864158
628,742.2788855333249
629,742.2680932940895
630,742.2578491886462
631,742.2480917134876
632,742.2387567693829
633,742.2297782018754
634,742.2210883516877
635,742.2126186120237
636,742.2042999900128
637,742.1960636698223
638,742.1878415750559
639,742.1795669280015
640,742.1711748030988
641,742.1626026717921
642,742.1537909357029
643,742.1446834446932
644,742.1352279958068
645,742.125376808444
646,742.1150869704855
647,742.1043208493435
648,742.0930464613672
649,742.0812377933886
650,742.0688750717687
651,742.0559449764506
652,742.0424407990838
653,742.028362544585
654,742.0137169749852
655,741.9985175941733
656,741.9827845728728
657,741.966544614547
658,741.9498307641413
659,741.9326821622175
660,741.9151437470675
661,741.8972659068447
662,741.8791040829902
663,741.8607183259195
664,741.8421728046418
665,741.8235352737444
666,741.8048765034292
667,741.7862696803095
668,741.7677897877668
669,741.749512974424
670,741.7315159178344
671,741.713875188576
672,741.6966666184163
673,741.6799646755007
674,741.6638418495372
675,741.6483680504035
676,741.6336100241192
677,741.6196307904524
678,741.6064891066973
679,741.5942389625782
680,741.5829291116839
681,741.5726026449927
682,741.5632966118907
683,741.5550416936994
684,741.5478619338958
685,741.5417745276784
686,741.5367896716673
687,741.5329104730439
688,741.5301329165004
689,741.5284458865364
690,741.5278312417206
691,741.5282639368753
692,741.5297121889153
693,741.5321376819355
694,741.535495806918
695,741.5397359314672
696,741.5448016956016
697,741.550631330594
698,741.5571579987543
699,741.5643101526334
700,741.5720119123371
701,741.5801834595852
702,741.5887414472755
703,741.5975994239693
704,741.6066682735919
705,741.6158566708781
706,741.6250715521987
707,741.6342185998285
708,741.6432027363165
709,741.6519286247265
710,741.660301169793
711,741.6682260144245
712,741.6756100260715
713,741.682361768733
714,741.6883919582563
715,741.6936139003004
716,741.6979439117915
717,741.7013017280838
718,741.7036108989931
719,741.7047991768369
720,741.7047988987105
721,741.7035473639613
722,741.7009872063943
723,741.6970667591427
724,741.6917404085283
725,741.6849689321382
726,741.6767198162261
727,741.666967548396
728,741.6556938827165
729,741.6428880751075
730,741.6285470867268
731,741.6126757527123
732,741.5952869137576
733,741.5764015086219
734,741.5560486262085
735,741.5342655158677
736,741.5110975543777
737,741.4865981682068
738,741.4608287100909
739,741.433858288859
740,741.4057635503144
741,741.37662840534
742,741.3465437003482
743,741.3156068254864
744,741.2839212577351
745,741.2515960386552
746,741.2187451891297
747,741.1854870651117
748,741.1519436589917
749,741.1182398513598
750,741.084502618525
751,741.0508602026565
752,741.0174412536229
753,740.984373953592
754,740.9517851363679
755,740.9197994132198
756,740.8885383162958
757,740.8581194701799
758,740.828655801871
759,740.8002547992544
760,740.7730178276544
761,740.7470395130133
762,740.7224071987284
763,740.6992004815837
764,740.6774908304423
765,740.6573412890147
766,740.6388062612433
767,740.6219313754908
768,740.6067534223937
769,740.5933003608188
770,740.5815913865723
771,740.5716370592662
772,740.5634394838216
773,740.5569925439838
774,740.5522821855475
775,740.5492867466972
776,740.5479773321423
777,740.5483182269073
778,740.5502673450628
779,740.5537767085095
780,740.558792951024
781,740.5652578427943
782,740.5731088305025
783,740.5822795877114
784,740.5927005697528
785,740.6042995663424
786,740.6170022440685
787,740.6307326706776
788,740.6454138145153
789,740.6609680154565
790,740.6773174270236
791,740.6943844318985
792,740.7120920341458
793,740.7303642314538
794,740.7491263701044
795,740.7683054845587
796,740.7878306224371
797,740.8076331541878
798,740.8276470652909
799,740.8478092282073
800,740.8680596517611
801,740.8883417065047
802,740.9086023248776
803,740.9287921744739
804,740.9488658021079
805,740.9687817460291
806,740.98850261354
807,741.00799512129
808,741.0272300955191
809,741.0461824293775
810,741.0648309943066
811,741.0831585027544
812,741.1011513202074
813,741.1187992253382
814,741.1360951181698
815,741.1530346780313
816,741.1696159757323
817,741.1858390472515
818,741.2017054388377
819,741.2172177353427
820,741.2323790844301
821,741.2471927289687
822,741.2616615587691
823,741.2757876910586
824,741.2895720866022
825,741.3030142053103
826,741.3161117020451
827,741.3288601607746
828,741.3412528636301
829,741.3532805910879
830,741.3649314505398
831,741.3761907325434
832,741.3870407962094
833,741.3974609865712
834,741.4074275870244
835,741.416913809298
836,741.4258898226454
837,741.4343228232925
838,741.442177144243
839,741.4494144037337
840,741.4559936881119
841,741.4618717627347
842,741.4670033037945
843,741.4713411450462
844,741.4748365355887
845,741.4774394071679
846,741.4790986510966
847,741.4797624053892
848,741.4793783522078
849,741.477894024723
850,741.475257121538
851,741.471415826127
852,741.4663191284346
853,741.4599171459951
854,741.4521614426079
855,741.4430053433915
856,741.4324042454275
857,741.4203159229955
858,741.4067008258645
859,741.3915223688671
860,741.3747472113508
861,741.3563455257313
862,741.3362912546972
863,741.3145623563311
864,741.2911410356252
865,741.2660139601288
866,741.2391724574456
867,741.2106126934134
868,741.1803358314435
869,741.1483481744933
870,741.1146612910228
871,741.0792921258429
872,741.0422630969593
873,741.0036021800478
874,740.9633429818906
875,740.9215248023232
876,740.8781926815225
877,740.8333974268552
878,740.7871956117474
879,740.7396495384033
880,740.6908271567029
881,740.6408019330349
882,740.5896526647526
883,740.5374632377454
884,740.4843223259306
885,740.4303230324235
886,740.3755624732202
887,740.320141305692
888,740.2641632060638
889,740.2077343020846
890,740.1509625687607
891,740.0939571958003
892,740.0368279355731
893,739.9796844405366
894,739.9226355992903
895,739.8657888801758
896,739.8092496906177
897,739.7531207596891
898,739.6975015509748
899,739.6424877123244
900,739.5881705679595
901,739.5346366563274
902,739.4819673146756
903,739.4302383097189
904,739.3795195137798
905,739.3298746271863
906,739.281360949511
907,739.2340292034658
908,739.1879234155845
909,739.1430808573498
910,739.0995320492124
911,739.057300828055
912,739.0164044763494
913,738.9768539090813
914,738.9386539129832
915,738.901803431988
916,738.8662958930744
917,738.8321195676787
