acceleration,velocity,displacement
-0.044861012845644865,0.0,0.0
-0.044364412656104184,-2.2306356375437264e-05,-5.576589093859316e-09
-0.04382823709434996,-4.4354518813050805e-05,-2.2241807890981334e-08
-0.0432532210224147,-6.612488334224197e-05,-4.986165842980453e-08
-0.04264042880883603,-8.759829580005465e-05,-8.829245321537869e-08
-0.041991248420564134,-0.0001087562151074047,-1.3738108094224353e-07
-0.041307388035392044,-0.00012958087422139375,-1.9696535327444315e-07
-0.04059087693971919,-0.00015005544046517156,-2.668744319460845e-07
-0.039844073298179766,-0.00017016417802464631,-3.4692933656853897e-07
-0.039069681070464594,-0.0001898926166168074,-4.369435352289024e-07
-0.038270775876078696,-0.00020922773085344323,-5.367236220964651e-07
-0.037450835358918945,-0.00022815813366219265,-6.46070088225374e-07
-0.03661376552146541,-0.0002466742838822887,-7.647781926114944e-07
-0.03576391279645111,-0.00026476870346176786,-8.926389394475085e-07
-0.034906053350103,-0.00028243619499840637,-1.0294401640625522e-06
-0.03404535562378335,-0.00029967404724187794,-1.1749677246226232e-06
-0.033187317343413084,-0.00031648221548367705,-1.329006790304012e-06
-0.03233768176827771,-0.00033286346526159973,-1.4913432104903311e-06
-0.03150233883109822,-0.0003488234704114437,-1.661764944408592e-06
-0.03068721604375362,-0.00036437085913015665,-1.840063526793992e-06
-0.029898163136155148,-0.00037951720392513384,-2.0260355425578145e-06
-0.029140833732002654,-0.0003942769531421733,-2.2194840818246415e-06
-0.028420566373668035,-0.00040866730316859096,-2.4202201459023326e-06
-0.02774226591127897,-0.0004227080112398277,-2.628063974504437e-06
-0.027110285765125097,-0.0004364211491589287,-2.842846264604126e-06
-0.026528312727149967,-0.00044983079878199744,-3.0644092515893575e-06
-0.025999258252255963,-0.00046296269152684894,-3.292607624166569e-06
-0.025525162136009298,-0.00047584379662391526,-3.5273092462042603e-06
-0.025107114966794634,-0.0004885018658996162,-3.768395661835143e-06
-0.02474520472421126,-0.0005009649458223677,-4.015762364765639e-06
-0.024438491379970992,-0.0005132608698484132,-4.269318818683334e-06
-0.02418501278734593,-0.0005254167458902425,-4.528988222617998e-06
-0.023981825916999773,-0.0005374584555663289,-4.794707022982141e-06
-0.023825087977766935,-0.0005494101840400206,-5.066424182883728e-06
-0.023710179889227936,-0.0005612940010067693,-5.3441002291454255e-06
-0.023631869421352952,-0.0005731295133344145,-5.6277061077307215e-06
-0.023584504654380254,-0.0005849336068533478,-5.917221887777662e-06
-0.023562222535144787,-0.000596720288650729,-6.212635361653681e-06
-0.023559154267083986,-0.0006085006328512862,-6.513940592029185e-06
-0.02356961032729618,-0.0006202828239998812,-6.821136456241977e-06
-0.02358823268013838,-0.0006320722847517399,-7.1342252334298825e-06
-0.023610108352722876,-0.0006438718700099552,-7.453211272120306e-06
-0.023630845008967144,-0.0006556821083503777,-7.77809976671039e-06
-0.023646614333836153,-0.0006675014731860786,-8.108895662094504e-06
-0.023654172156915607,-0.0006793266698087665,-8.445602697843215e-06
-0.023650864935502346,-0.0006911529290818709,-8.788222597565874e-06
-0.0236346306136902,-0.000702974302969169,-9.136754405578634e-06
-0.023603998306802706,-0.0007147839601992922,-9.491193971370749e-06
-0.0235580866822868,-0.0007265744814465646,-9.851533581782214e-06
-0.023496597401114466,-0.0007383381524674149,-1.021776174026071e-05
-0.02341979947501471,-0.0007500672516864473,-1.0589863091299175e-05
-0.023328502864073897,-0.0007617543272712195,-1.096781848603859e-05
-0.023224023118167104,-0.0007733924587667797,-1.135160518254809e-05
-0.02310814082897346,-0.0007849754997535649,-1.1741197172178177e-05
-0.022983058628936875,-0.0007964982996180425,-1.2136565622021078e-05
-0.022851355214141385,-0.000807956903078812,-1.2537679422695292e-05
-0.02271593300298137,-0.0008193487251330927,-1.2944505829748267e-05
-0.02257995573019379,-0.0008306726973163865,-1.3357011185360637e-05
-0.02244677425868803,-0.0008419293798136069,-1.3775161704643136e-05
-0.022319841359762754,-0.0008531210337182196,-1.4198924308026092e-05
-0.022202617982841264,-0.0008642516485538706,-1.4628267478594115e-05
-0.022098474292031184,-0.0008753269216225886,-1.506316212113823e-05
-0.022010588140619482,-0.0008863541872307513,-1.5503582398351564e-05
-0.021941841961496674,-0.0008973422947562803,-1.594950651884832e-05
-0.021894717796178013,-0.0009083014346956991,-1.6400917451211314e-05
-0.021871190491964412,-0.0009192429117677347,-1.6857803537827173e-05
-0.021872620473988223,-0.0009301788645092228,-1.732015898189641e-05
-0.021899649137091762,-0.0009411219319119928,-1.7787984181001714e-05
-0.02195210165121602,-0.0009520848696090698,-1.826128588138198e-05
-0.022028903607436208,-0.0009630801209237329,-1.874007712901518e-05
-0.022128018978463317,-0.0009741193515702078,-1.9224376997138664e-05
-0.022246417252235313,-0.0009852129606278824,-1.9714210075188186e-05
-0.022380077363123342,-0.0009963695842817222,-2.0209605711415587e-05
-0.02252403475036052,-0.001007595612310093,-2.071059701056354e-05
-0.022672474973720626,-0.0010188947397411134,-2.1217219598576343e-05
-0.022818872813561483,-0.001030267576687934,-2.1729510177683606e-05
-0.022956170566061435,-0.0010417113375328399,-2.22475049062388e-05
-0.023076985224075256,-0.001053219626480374,-2.2771237647242105e-05
-0.023173833213069154,-0.0010647823310896603,-2.3300738136634613e-05
-0.023239362936100637,-0.0010763856301269528,-2.3836030126938765e-05
-0.023266586922614126,-0.0010880121175916315,-2.437712956386841e-05
-0.023249104821136225,-0.001099641040527569,-2.492404285339821e-05
-0.023181306664112188,-0.0011112486433988813,-2.547676527437982e-05
-0.023058545430142897,-0.0011228086064224451,-2.6035279586835153e-05
-0.02287727061933065,-0.0011342925604348134,-2.6599554878549467e-05
-0.022635119565079083,-0.001145670657980916,-2.7169545683153398e-05
-0.02233096805079616,-0.0011569121798848847,-2.7745191392619848e-05
-0.021964944289025796,-0.0011679861579698403,-2.8326415977083528e-05
-0.021538410131912676,-0.0011788619965750749,-2.8913128015719755e-05
-0.021053912012095537,-0.0011895100771110768,-2.9505221034141293e-05
-0.02051510340343941,-0.0011999023309649606,-3.0102574136160303e-05
-0.01992664121968628,-0.001210012767120742,-3.070505291068173e-05
-0.0192940598946729,-0.0012198179423993317,-3.131251058806175e-05
-0.018623628145548302,-0.001229297364409387,-3.1924789414763926e-05
-0.017922194526832087,-0.0012384338200774822,-3.2541722210885644e-05
-0.01719702881600646,-0.0012472136259131918,-3.316313407238331e-05
-0.0164556663213896,-0.0012556267996975407,-3.378884417878599e-05
-0.015705760556889093,-0.0012636671564171104,-3.441866766781465e-05
-0.014954946851050881,-0.0012713323332690953,-3.505241754023621e-05
-0.014210717303623837,-0.001278623749307764,-3.5689906560880425e-05
-0.013480307616053202,-0.0012855465055376834,-3.6330949124591786e-05
-0.012770597923392588,-0.0012921092319225448,-3.6975363058956845e-05
-0.01208803066864108,-0.0012983238890705532,-3.762297133920512e-05
-0.011438547859771784,-0.0013042055337026564,-3.8273603694898424e-05
-0.010827548464116956,-0.0013097720577836286,-3.892709809276999e-05
-0.01025986472917485,-0.0013150439110819515,-3.958330208498639e-05
-0.009739753763138645,-0.00132004381570503,-4.0242074016683135e-05
-0.00927089841736596,-0.001324796478750156,-4.090328409029693e-05
-0.00885641080972328,-0.0013293283060569283,-4.15668152864987e-05
-0.008498833318530971,-0.001333667117088992,-4.223256414228518e-05
-0.008200134567673434,-0.001337841859060543,-4.2900441386322565e-05
-0.007961700188487424,-0.0013418823177495831,-4.35703724305251e-05
-0.007784319284659169,-0.0013458188226178698,-4.424229771561696e-05
-0.007668168039179679,-0.0013496819444488296,-4.491617290738363e-05
-0.007612792326867075,-0.0013535021845403413,-4.559196893963092e-05
-0.00761709141588542,-0.0013573096554760295,-4.626967189963501e-05
-0.007679304594566223,-0.0013611337544786424,-4.694928275212368e-05
-0.007797001999799545,-0.0013650028311272338,-4.7630816898525146e-05
-0.007967080333715905,-0.0013689438517106127,-4.831430356923461e-05
-0.008185763460138797,-0.0013729820626590763,-4.899978504782703e-05
-0.008448607245047606,-0.001377140655335373,-4.968731572732564e-05
-0.008750508739415335,-0.0013814404343314888,-5.0376960999742355e-05
-0.009085723024406444,-0.0013858994922724443,-5.106879598139334e-05
-0.009447895396116134,-0.001390532896877575,-5.1762904078680846e-05
-0.009830118859473883,-0.0013953524004414724,-5.2459375403010605e-05
-0.010225025330332324,-0.001400366186488924,-5.3158305049743205e-05
-0.01062491453299812,-0.0014055786714547566,-5.385979126422913e-05
-0.011021919406001057,-0.0014109903799395063,-5.4563933527077695e-05
-0.01140820215171718,-0.0014165979103289358,-5.5270830599644806e-05
-0.011776171436447344,-0.001422394003725977,-5.598057857815854e-05
-0.012118709089449118,-0.001428367723857451,-5.669326901005439e-05
-0.012429393795138076,-0.0014345047495785978,-5.74089871284134e-05
-0.012702708940097049,-0.0014407877752624066,-5.812781025962365e-05
-0.012934221900414666,-0.0014471970079725344,-5.884980645543239e-05
-0.01312072358965346,-0.0014537107443450515,-5.957503339351178e-05
-0.013260320268913176,-0.0014603060053096932,-6.030353758092547e-05
-0.013352473121868753,-0.0014669592036573886,-6.103535388316724e-05
-0.013397983700192084,-0.0014736468178629038,-6.177050538854731e-05
-0.013398925519658168,-0.0014803460451678664,-6.2509003604305e-05
-0.01335852511530391,-0.001487035407826607,-6.325084896755361e-05
-0.013280999894155482,-0.0014936952890789719,-6.399603164178e-05
-0.013171363888119176,-0.0015003083800245406,-6.474453255905588e-05
-0.013035214757818513,-0.001506860024686025,-6.549632466023352e-05
-0.012878515828325736,-0.001513338457332561,-6.625137428073817e-05
-0.012707385710138165,-0.001519734932717177,-6.70096426282506e-05
-0.012527905280755825,-0.0015260437554649004,-6.777108730029613e-05
-0.012345947946282918,-0.00153226221877166,-6.853566379385527e-05
-0.012167035282287167,-0.0015383904645788025,-6.930332696469288e-05
-0.01199621728786145,-0.0015444312777213396,-7.007403240026791e-05
-0.011837974602702512,-0.0015503898256939805,-7.084773767612175e-05
-0.011696138945250015,-0.0015562733540809687,-7.162440347106548e-05
-0.011573828053926174,-0.0015620908458307628,-7.240399452104342e-05
-0.011473392731769255,-0.0015678526510271866,-7.31864803952579e-05
-0.01139637536799442,-0.0015735700930521275,-7.397183608127772e-05
-0.011343480335513748,-0.0015792550569780045,-7.476004236878526e-05
-0.011314556844332186,-0.001584919566272966,-7.5551086024598e-05
-0.011308595205721089,-0.0015905753542854793,-7.634495975473761e-05
-0.011323738674587632,-0.0015962334377555565,-7.714166195274786e-05
-0.011357314587341195,-0.0016019037010710387,-7.794119623745451e-05
-0.011405889610998985,-0.0016075945021206237,-7.874357078825243e-05
-0.011465354072471958,-0.0016133123130414914,-7.954879749204295e-05
-0.011531038874180985,-0.0016190614112781545,-8.035689092312286e-05
-0.011597864827205323,-0.001624843637203501,-8.116786718524327e-05
-0.011660519137923176,-0.0016306582331947833,-8.198174265284284e-05
-0.01171364934661751,-0.0016365017753159185,-8.279853265497052e-05
-0.01175206260840807,-0.001642368203304675,-8.361825014962568e-05
-0.011770917451524176,-0.001648248948319658,-8.444090443753176e-05
-0.011765895120116816,-0.0016541331514625683,-8.526649996247731e-05
-0.01173333838886358,-0.0016600079598398133,-8.60950352403029e-05
-0.011670348291229518,-0.0016658588815098366,-8.692650195064031e-05
-0.011574833826085545,-0.0016716701770391653,-8.776088421527756e-05
-0.011445515297648236,-0.0016774252643200988,-8.859815807561738e-05
-0.011281887068841825,-0.0016831071149117213,-8.943829117042534e-05
-0.011084149241304048,-0.0016886986239892578,-9.028124260515058e-05
-0.010853119421264322,-0.0016941829411549,-9.112696299643662e-05
-0.01059013509304802,-0.001699543754783478,-9.197539467042121e-05
-0.01029695509909385,-0.0017047655273315135,-9.282647199094995e-05
-0.00997566644579493,-0.0017098336827177357,-9.368012179346226e-05
-0.009628600340732065,-0.0017147347494143675,-9.453626390149529e-05
-0.00925825894468228,-0.0017194564642357211,-9.539481170490781e-05
-0.008867252402108537,-0.001723987842072419,-9.625567278148485e-05
-0.00845824513214171,-0.0017283192164559815,-9.711874954611695e-05
-0.008033911165365762,-0.0017324422555303584,-9.798393991411353e-05
-0.007596899541288975,-0.001736349958207022,-9.885113796754787e-05
-0.007149811086910053,-0.0017400366358640718,-9.972023461606564e-05
-0.006695186478442181,-0.0017434978852554099,-0.00010059111824634551
-0.00623550283565146,-0.0017467305575839334,-0.00010146367535705534
-0.0057731738418979025,-0.0017497327267533207,-0.00010233779117813965
-0.005310548004710136,-0.0017525036572149726,-0.00010321335027413172
-0.004849901169966917,-0.0017550437695086419,-0.00010409023713081263
-0.004393421486476582,-0.0017573546001727527,-0.00010496833672323297
-0.003943186647354062,-0.0017594387522062104,-0.00010584753506132771
-0.0035011344346486347,-0.001761299832476711,-0.00010672771970749844
-0.0030690286982274317,-0.00176294237325993,-0.0001076087802589326
-0.0026484239581650044,-0.0017643717364240281,-0.00010849060878635359
-0.002240632857389921,-0.0017655940006279169,-0.00010937310022061658
-0.0018467014790293646,-0.0017666158342120218,-0.00011025615267932656
-0.001467397262475741,-0.001767444358897398,-0.00011113966772760392
-0.001103212361434898,-0.0017680870113033758,-0.0001120235505701541
-0.0007543824125294591,-0.001768551409996867,-0.00011290771017547917
-0.000420918107771887,-0.0017688452351269422,-0.00011379205933676013
-0.00010264556136068416,-0.0017689761260442254,-0.00011467651467705291
0.00020074872267115734,-0.0017689516002538977,-0.00011556099660862745
0.0004896720101031696,-0.0017687789950707042,-0.0001164454292574586
0.000764581910234037,-0.00176846543159062,-0.00011732974036412393
0.0010259484155584146,-0.0017680177990091717,-0.00011821386117177388
0.0012742240740880946,-0.00176744275588676,-0.00011909772631049786
0.0015098240616902522,-0.0017667467438528155,-0.00011998127368543276
0.001733116435501749,-0.0017659360087285175,-0.0001208644443735781
0.0019444211001930242,-0.001765016624344594,-0.00012174718253184638
0.0021440148419103145,-0.0017639945153590682,-0.0001226294353167723
0.002332139927095199,-0.0017628754766668168,-0.00012351115281477877
0.002509014880712611,-0.001761665187964865,-0.00012439228798093668
0.002674846786850829,-0.001760369222547974,-0.00012527279658356487
0.002829843813852619,-0.0017589930498977983,-0.00012615263715167632
0.002974225237095546,-0.0017575420326350613,-0.00012703177092230952
0.00310822550191967,-0.0017560214199503076,-0.00012791016178545587
0.003232089416112369,-0.0017544363412207995,-0.00012878777622574863
0.003346056575078246,-0.0017527918047230018,-0.00012966458326223458
0.0034503339251851827,-0.001751092707097936,-0.00013054055439018982
0.003545056527879726,-0.0017493438594846698,-0.00013141566353183548
0.003630238805470225,-0.0017475500356513324,-0.0001322898870056195
0.00370572131784571,-0.0017457160456205035,-0.00013316320352593745
0.0037711203244204096,-0.0017438468352099369,-0.00013403559424614506
0.0038257882702945807,-0.0017419476080612582,-0.00013490704285696285
0.003868792320308877,-0.0017400239629136074,-0.00013577753574970657
0.003898915151320713,-0.0017380820360457,-0.0001366470622494464
0.003914678901061409,-0.0017361286375326044,-0.00013751561491784099
0.003914391385832334,-0.001734171369960881,-0.00013838318991971435
0.003896213555396232,-0.0017322187187255738,-0.00013924978744188596
0.0038582469330249625,-0.0017302801036034685,-0.0001401154121474682
0.003798638222849011,-0.0017283658823145,-0.0001409800736439477
0.0037156958581039488,-0.0017264872987942618,-0.0001418437869392249
0.0036080111310556897,-0.0017246563720469718,-0.00014270657285693519
0.0034745751697354147,-0.001722885725471774,-0.00014356845838131487
0.0033148828038135885,-0.0017211883609783867,-0.00014442947690292742
0.0031290160141627596,-0.0017195773862738926,-0.00014528966833974048
0.00291770304049699,-0.0017180657065102277,-0.0001461490791129365
0.002682352723199437,-0.0017166656925693036,-0.0001470077619627064
0.0024250656025666182,-0.001715388837987862,-0.0001478657755953457
0.00214862342327846,-0.0017142454157314008,-0.00014872318415877552
0.0018564580817610032,-0.001713244145355141,-0.00014958005654904714
0.0015526008823105145,-0.001712391880614123,-0.00015043646555553945
0.001241613357885089,-0.0017116933270540742,-0.0001512924868574565
0.0009285012089603848,-0.0017111507984123627,-0.00015214819788882312
0.0006186128480956481,-0.0017107640198980988,-0.00015300367659340074
0.00031752413989754756,-0.0017105299856511006,-0.00015385900009478803
3.09118281564259e-05,-0.001710442876659087,-0.00015471424331036559
-0.0002355803952234385,-0.001710494043800854,-0.00015556947754048056
-0.000476478352978624,-0.0017106720584879045,-0.00015642476906605276
-0.0006866120790393979,-0.001710962831095909,-0.00015728017778844872
-0.0008612459567164349,-0.0017113497956048479,-0.0001581357559451239
-0.0009962029468644246,-0.0017118141578307431,-0.0001589915469334828
-0.0010879821681288786,-0.0017123352041094914,-0.00015984758427396787
-0.0011338687033588262,-0.0017128906668273634,-0.0001607038907417021
-0.0011320336507474541,-0.0017134571424158899,-0.00016156047769401292
-0.0010816221827356213,-0.0017140105563742607,-0.00016241734461871045
-0.000982828308793228,-0.001714526668997143,-0.0001632744789250533
-0.0008369561249767711,-0.0017149816151055854,-0.00016413185599607898
-0.0006464665736787121,-0.0017153524707802493,-0.00016498943951755044
-0.0004150056777922676,-0.001715617838843117,-0.00016584718209495627
-0.0001474071210446276,-0.0017157584420428261,-0.00016670502616517776
0.00015033815151043974,-0.0017157577092852096,-0.00016756290520300978
0.0004711492241950351,-0.0017156023374412831,-0.0001684207452146914
0.0008069583962108129,-0.0017152828105361816,-0.00016927846650168578
0.0011488458252125523,-0.0017147938594808257,-0.00017013598566919004
0.0014872003623478053,-0.0017141348479339357,-0.00017099321784604373
0.0018119019098878444,-0.0017133100723658768,-0.00017185007907611868
0.0021125212512481104,-0.0017123289665755927,-0.00017270648883585405
0.0023785338471122492,-0.0017112062028010026,-0.0001735623726281982
0.0025995447900761573,-0.0017099616831417056,-0.0001744176645996839
0.0027655223799694763,-0.0017086204163491942,-0.00017527231012455662
0.0028670369640179474,-0.0017072122765131974,-0.0001761262682977722
0.0028954999707116584,-0.001705771642279515,-0.0001769795142774704
0.0028433959986753207,-0.0017043369182871682,-0.00017783204141761207
0.0027044987705739983,-0.001702949944594856,-0.00017868386313333259
0.0024740604043215625,-0.001701655304801132,-0.00017953501444568158
0.0021489638300300185,-0.001700499548742544,-0.0001803855531590675
0.0017278306755214056,-0.0016995303501161562,-0.00018123556063378218
0.00121108075990762,-0.001698795622257299,-0.00018208514212687555
0.0006009431226488658,-0.0016983426162866598,-0.00018293442668651153
-9.857888430150898e-05,-0.001698217025227073,-0.00018378356659688996
-0.0008817850343458321,-0.0016984621162067347,-0.0001846327363822484
-0.0017413951885183892,-0.001699117911262451,-0.0001854821313891157
-0.0026687032075708257,-0.0017002204358614731,-0.00018633196597589669
-0.003653764689102428,-0.0017018010528356414,-0.00018718247134807096
-0.0046856140106632605,-0.0017038858975105828,-0.00018803389308565753
-0.0057525047286760425,-0.0017064954271954176,-0.00018888648841683403
-0.006842166438405623,-0.001709644094987188,-0.00018974052329737967
-0.007942071011623192,-0.0017133401543496952,-0.00019059626935971388
-0.009039701741581085,-0.0017175855975379963,-0.0001914540007976858
-0.01012281947677147,-0.0017223762278425845,-0.00019231399125403095
-0.01117971917279128,-0.001727701862504975,-0.00019317651077661784
-0.012199468930725871,-0.0017335466595308543,-0.0001940418229071268
