frame_number,force
0,734.8834838346592
1,734.9208558862182
2,734.9612062146272
3,735.004479517245
4,735.0505956941511
5,735.0994502927622
6,735.1509147627679
7,735.2048363885688
8,735.261037704566
9,735.3193152220716
10,735.3794374828356
11,735.4411427739343
12,735.5041371459707
13,735.5680935046104
14,735.6326524155754
15,735.6974249236039
16,735.7619972928568
17,735.8259373096819
18,735.888801722398
19,735.9501444512742
20,736.0095252701252
21,736.0665187108982
22,736.1207230172428
23,736.171769070671
24,736.2193292509962
25,736.2631261056906
26,736.3029405308463
27,736.338619019988
28,736.3700794999992
29,736.3973153499035
30,736.4203973122947
31,736.4394730501214
32,736.4547640434519
33,736.4665594846633
34,736.4752069864129
35,736.4811003044304
36,736.484664778538
37,736.4863416375738
38,736.4865725425996
39,736.4857856632923
40,736.4843842229852
41,736.4827379514518
42,736.4811773975188
43,736.4799906641501
44,736.4794218940308
45,736.4796707816768
46,736.4808925087834
47,736.4831977679744
48,736.486652884649
49,736.4912803105544
50,736.4970598009955
51,736.5039304017675
52,736.5117931100941
53,736.5205139260994
54,736.5299270888862
55,736.5398385365812
56,736.5500298453253
57,736.5602629256857
58,736.5702856057471
59,736.5798380443943
60,736.5886597850608
61,736.5964972033033
62,736.6031111471857
63,736.6082846968732
64,736.6118310643097
65,736.6136016307534
66,736.6134940163023
67,736.6114599522649
68,736.6075125956194
69,736.6017328018842
70,736.5942737939504
71,736.5853636354705
72,736.5753049350118
73,736.5644713046368
74,736.5533003147788
75,736.5422830261546
76,736.5319505720114
77,736.5228585665626
78,736.5155701923023
79,736.510638699643
80,736.5085899363694
81,736.509905566142
82,736.5150077716362
83,736.52424626823
84,736.5378882516834
85,736.5561115263945
86,736.5790006961984
87,736.606546112356
88,736.638645287576
89,736.675106587997
90,736.7156550684692
91,736.7599402691577
92,736.8075456917383
93,736.8579995787981
94,736.910786536791
95,736.9653594726939
96,737.0211513107444
97,737.0775860795225
98,737.1340891761623
99,737.1900967765979
100,737.2450643522267
101,737.2984741328842
102,737.349841287278
103,737.3987186447611
104,737.4446999016519
105,737.4874214032316
106,737.5265627773581
107,737.5618468680551
108,737.5930394703598
109,737.6199492555224
110,737.6424280731504
111,737.6603716464302
112,737.6737205907223
113,737.6824616472327
114,737.686628991522
115,737.6863054600608
116,737.6816235566394
117,737.6727661425842
118,737.659966759103
119,737.6435095823973
120,737.6237290593906
121,737.6010092166661
122,737.5757823927671
123,737.5485268161087
124,737.5197622782274
125,737.4900432702933
126,737.4599492828216
127,737.4300723579271
128,737.4010023354502
129,737.3733105073882
130,737.3475325574748
131,737.3241517270419
132,737.3035831733237
133,737.2861604770413
134,737.2721251406075
135,737.2616196788848
136,737.2546846409343
137,737.251259705332
138,737.2511888279598
139,737.2542291932963
140,737.2600634169421
141,737.2683141638441
142,737.278560177495
143,737.2903526830115
144,737.3032312193791
145,737.3167381652106
146,737.3304315125483
147,737.3438957307281
148,737.3567507779577
149,737.3686594600497
150,737.3793334179146
151,737.38853802361
152,737.3960963655398
153,737.4018923699483
154,737.4058730286788
155,737.4080496895554
156,737.4084983375251
157,737.4073587034515
158,737.4048319208085
159,737.4011763678642
160,737.3967013214117
161,737.3917581581896
162,737.3867291166948
163,737.3820140155364
164,737.3780156584282
165,737.3751248371399
166,737.3737059005714
167,737.3740838602102
168,737.3765339435256
169,737.3812743146045
170,737.3884623334397
171,737.3981943045793
172,737.4105082801523
173,737.4253892013462
174,737.4427755385376
175,737.4625666382541
176,737.4846301373759
177,737.5088089765375
178,737.534927718814
179,737.562798062059
180,737.5922235777257
181,737.6230037527831
182,737.654937350882
183,737.6878250163971
184,737.7214710219752
185,737.7556841669597
186,737.7902780336867
187,737.8250709784508
188,737.8598862624065
189,737.8945526149204
190,737.9289053650735
191,737.96278815438
192,737.9960551534746
193,738.0285736224004
194,738.0602265744841
195,738.0909152257142
196,738.120560852254
197,738.149105699828
198,738.1765127310092
199,738.2027642127722
200,738.2278593404808
201,738.2518112000523
202,738.2746433838804
203,738.2963865410828
204,738.3170751094196
205,738.3367444585587
206,738.3554286453682
207,738.3731589142453
208,738.3899629636282
209,738.4058648682023
210,738.4208854577332
211,738.4350429641785
212,738.448353832812
213,738.4608336479155
214,738.4724980753671
215,738.4833636169137
216,738.4934479159299
217,738.5027693956247
218,738.5113460869451
219,738.5191935638087
220,738.5263219903748
221,738.532732452006
222,738.5384129499076
223,738.54333460537
224,738.5474486861222
225,738.5506849908949
226,738.5529519090442
227,738.5541382228424
228,738.5541165856283
229,738.5527485981795
230,738.5498913890847
231,738.5454054870553
232,738.5391635918581
233,738.5310596900468
234,738.5210178581407
235,738.5090000791357
236,738.4950125225702
237,738.4791099927168
238,738.4613985130052
239,738.4420361613049
240,738.4212322800759
241,738.3992451394766
242,738.3763781185932
243,738.3529744993009
244,738.3294109896632
245,738.3060900888204
246,738.2834314130022
247,738.2618621701835
248,738.2418070809923
249,738.2236781090947
250,738.2078643244955
251,738.1947221098837
252,738.1845658117408
253,738.1776588917431
254,738.1742056631912
255,738.174343761579
256,738.1781375176511
257,738.1855723310672
258,738.1965500610172
259,738.2108855072773
260,738.2283042854262
261,738.2484426326598
262,738.2708496955313
263,738.2949925939672
264,738.3202641865765
265,738.3459932033621
266,738.3714563494926
267,738.3958920287746
268,738.4185153820239
269,738.4385343764667
270,738.4551667348848
271,738.4676575135157
272,738.4752970761639
273,738.4774390828893
274,738.473517956044
275,738.4630651320591
276,738.4457233052034
277,738.4212578978453
278,738.3895651794649
279,738.3506767438915
280,738.304760339305
281,738.2521172412157
282,738.193176424817
283,738.1284857628933
284,738.0587004430407
285,737.9845688393568
286,737.9069161786856
287,737.8266264492004
288,737.744623070198
289,737.6618488561666
290,737.5792457620606
291,737.4977348551893
292,737.4181970081967
293,737.3414549100344
294,737.2682569997128
295,737.1992637765992
296,737.1350367423097
297,737.0760301312863
298,737.0225856015345
299,736.9749300716202
300,736.9331768159396
301,736.8973297675349
302,736.8672907772451
303,736.8428694018525
304,736.8237946669591
305,736.8097281372796
306,736.8002775179817
307,736.7950099908869
308,736.7934646606119
309,736.7951638637636
310,736.7996235759741
311,736.8063635139492
312,736.8149175368205
313,736.8248445777714
314,736.8357398330794
315,736.8472455920796
316,736.8590609937038
317,736.8709500439743
318,736.8827473196209
319,736.8943608855119
320,736.905772071968
321,736.9170319179578
322,736.92825432078
323,736.9396062087434
324,736.9512952730963
325,736.963555896402
326,736.976633914809
327,736.9907708226139
328,737.0061880317833
329,737.0230718258678
330,737.0415596377059
331,737.0617282166978
332,737.0835841805331
333,737.107057416317
334,737.1319977959342
335,737.1581756197858
336,737.1852860250292
337,737.2129573134497
338,737.2407628707573
339,737.268236121836
340,737.2948877979944
341,737.3202247067195
342,737.343769210767
343,737.36507867481
344,737.3837641400651
345,737.3995074751327
346,737.412076331534
347,737.4213364138758
348,737.4272607660811
349,737.429935922913
350,737.4295648725088
351,737.4264667976033
352,737.4210735300072
353,737.4139226604865
354,737.4056473467533
355,737.3969629943567
356,737.3886510787967
357,737.3815404520738
358,737.376486585666
359,737.3743493350347
360,737.3759699128578
361,737.3821477922359
362,737.3936182256803
363,737.4110309920923
364,737.4349309188714
365,737.4657406892359
366,737.5037464102888
367,737.5490863453217
368,737.6017431068759
369,737.6615395376938
370,737.7281385341025
371,737.8010471203955
372,737.8796250128681
373,737.9630976711304
374,738.0505735403003
375,738.1410649752592
376,738.2335122084964
377,738.3268095939644
378,738.4198332229627
379,738.5114689553982
380,738.6006399882683
381,738.6863332130541
382,738.7676236939589
383,738.8436966307171
384,738.9138662226
385,738.9775909544227
386,739.034484938831
387,739.0843250337973
388,739.1270535624916
389,739.1627766771377
390,739.191758689592
391,739.2144128919117
392,739.2312894259468
393,739.2430606729455
394,739.2505045180723
395,739.2544857920171
396,739.2559362386594
397,739.2558334555756
398,739.2551793250085
399,739.2549784442367
400,739.2562169507848
401,739.2598419597658
402,739.2667417244625
403,739.2777267191992
404,739.2935120864472
405,739.3147021228305
406,739.341777581832
407,739.3750865346216
408,739.4148393592703
409,739.4611080983568
410,739.5138299836455
411,739.5728145440314
412,739.6377535452864
413,739.7082330518538
414,739.7837470164865
415,739.8637118822871
416,739.94748173395
417,740.034363621046
418,740.1236327773028
419,740.2145475094543
420,740.3063635387907
421,740.3983476061919
422,740.4897902006151
423,740.5800173229951
424,740.668401253634
425,740.7543703379415
426,740.8374178299672
427,740.9171098435438
428,740.9930924424193
429,741.0650978287749
430,741.1329494791755
431,741.1965659565714
432,741.2559630127699
433,741.3112535345809
434,741.3626449486611
435,741.4104338789108
436,741.4549980320772
437,741.49678536773
438,741.5363006088227
439,741.5740891963648
440,741.6107189989069
441,741.6467604273821
442,741.6827659213812
443,741.7192499376514
444,741.7566705778933
445,741.7954138581665
446,741.8357813291087
447,741.8779813494962
448,741.9221239451683
449,741.9682189742225
450,742.0161772614103
451,742.065814395706
452,742.1168569644846
453,742.1689510767814
454,742.221673049768
455,742.2745420981299
456,742.3270348025445
457,742.378601020934
458,742.428680734522
459,742.4767211630334
460,742.5221934282056
461,742.5646080973472
462,742.6035290319497
463,742.6385850543313
464,742.6694790639685
465,742.6959944394613
466,742.7179988060442
467,742.7354453972093
468,742.7483722170659
469,742.7568990892607
470,742.7612226036389
471,742.761609029393
472,742.7583854394094
473,742.7519295229932
474,742.7426587591544
475,742.7310196584773
476,742.7174776165751
477,742.7025076624576
478,742.6865861661531
479,742.6701834388847
480,742.6537571027137
481,742.6377461017454
482,742.6225652269687
483,742.6085999544298
484,742.596201233486
485,742.5856797465498
486,742.5772992948445
487,742.5712693806875
488,742.5677375618455
489,742.5667825191557
490,742.5684089196909
491,742.5725450847035
492,742.5790441821326
493,742.5876891723196
494,742.5982011497784
495,742.6102502279887
496,742.6234678725804
497,742.6374596359841
498,742.6518174831006
499,742.6661311946492
500,742.6799986024105
501,742.6930345800406
502,742.7048787541298
503,742.7152018584044
504,742.7237106212784
505,742.7301511190332
506,742.7343106449332
507,742.7360183023133
508,742.735144694818
509,742.7316012124006
510,742.7253394238076
511,742.7163509605081
512,742.7046680771336
513,742.6903648749095
514,742.6735590045407
515,742.6544135247339
516,742.6331384827116
517,742.6099917177219
518,742.5852784076634
519,742.5593490109752
520,742.5325954638929
521,742.5054456987075
522,742.4783566886824
523,742.4518062603263
524,742.42628383742
525,742.4022801497393
526,742.3802758511023
527,742.3607290359405
528,742.3440618711655
529,742.33064693812
530,742.3207942647264
531,742.3147402364027
532,742.3126395046326
533,742.3145607025941
534,742.320486351623
535,742.3303169053682
536,742.3438784737095
537,742.3609334281838
538,742.3811928735777
539,742.4043299237815
540,742.4299928433682
541,742.4578173663773
542,742.4874378013394
543,742.5184967827468
544,742.5506536823316
545,742.5835917660517
546,742.6170242048514
547,742.6506990115156
548,742.6844028728711
549,742.7179637059588
550,742.7512516466038
551,742.7841781506978
552,742.8166929984474
553,742.8487792035426
554,742.8804460574978
555,742.9117207369162
556,742.942639059994
557,742.9732360809261
558,743.0035372398953
559,743.0335507493786
560,743.0632617968706
561,743.0926289621676
562,743.1215829936834
563,743.1500278253459
564,743.1778435202964
565,743.2048907332055
566,743.2310162465674
567,743.2560590838407
568,743.2798566246224
569,743.3022501103519
570,743.3230889881215
571,743.3422336926191
572,743.359556685631
573,743.3749418340311
574,743.3882824747911
575,743.3994787365117
576,743.4084348088293
577,743.4150568416957
578,743.4192520108684
579,743.4209290198727
580,743.4199999707649
581,743.4163832309688
582,743.4100067726827
583,743.4008115038938
584,743.3887542700857
585,743.3738103756068
586,743.3559755967163
587,743.3352677236085
588,743.3117276836373
589,743.2854202933975
590,743.2564347035275
591,743.2248846451874
592,743.1909086220048
593,743.1546701555391
594,743.1163580599454
595,743.0761865426116
596,743.0343947977583
597,742.9912457536055
598,742.9470237693315
599,742.9020313002309
600,742.8565847326804
601,742.8110096349208
602,742.7656356121273
603,742.7207909152149
604,742.6767969734964
605,742.6339630216254
606,742.5925808988068
607,742.5529199775146
608,742.5152221740684
609,742.4796971274291
610,742.4465177622694
611,742.4158164689218
612,742.3876820923755
613,742.3621579276706
614,742.3392409748976
615,742.3188827443647
616,742.300991867829
617,742.2854386465212
618,742.2720614518466
619,742.2606746283823
620,742.2510773180071
621,742.2430625195609
622,742.2364257508486
623,742.2309728348387
624,742.226526493621
625,742.2229315367927
626,742.2200584725318
627,742.2178053981116
628,742.2160981036366
629,742.214888459891
630,742.2141513046738
631,742.2138801346457
632,742.2140819271347
633,742.214771364785
634,742.2159646700754
635,742.2176732476161
636,742.2198973810807
637,742.2226202806901
638,742.225802794088
639,742.2293790813804
640,742.2332535208963
641,742.2372990685169
642,742.241357244545
643,742.245239845727
644,742.2487323661074
645,742.2515989836447
646,742.2535888375129
647,742.2544431681995
648,742.2539027642662
649,742.251715167696
650,742.2476412831263
651,742.2414613134249
652,742.2329801255223
653,742.2220321341541
654,742.2084856438355
655,742.1922464831066
656,742.1732608070432
657,742.1515170826791
658,742.1270473878366
659,742.0999281830202
660,742.0702806489948
661,742.0382705294189
662,742.0041072332257
663,741.9680418406075
664,741.9303637092646
665,741.8913955978679
666,741.8514875284618
667,741.8110098832566
668,741.7703463685833
669,741.7298874151443
670,741.6900243406764
671,741.6511442942932
672,741.6136257644894
673,741.5778343290194
674,741.5441183432428
675,741.5128043576714
676,741.4841921661634
677,741.4585494752661
678,741.4361062709535
679,741.4170490746338
680,741.4015154050511
681,741.389588847552
682,741.3812951705465
683,741.376599934565
684,741.3754079773795
685,741.3775649889341
686,741.382861167425
687,741.391036783665
688,741.4017893997406
689,741.4147824196284
690,741.429654563705
691,741.446029809633
692,741.4635273546296
693,741.481771175514
694,741.5003987645945
695,741.5190686569377
696,741.5374664853472
697,741.5553094687431
698,741.5723493928032
699,741.5883742418328
700,741.603208675795
701,741.6167135371156
702,741.6287845863221
703,741.63935075927
704,741.6483723637494
705,741.6558396571269
706,741.6617720931115
707,741.666218265668
708,741.6692563460132
709,741.6709946545568
710,741.6715718849204
711,741.6711563893431
712,741.669943939305
713,741.668153562968
714,741.6660213501303
715,741.6637923806477
716,741.6617111607362
717,741.6600111729153
718,741.6589043007995
719,741.658570896114
720,741.6591511282091
721,741.6607380733308
722,741.663372795972
723,741.6670414419073
724,741.6716741290603
725,741.6771452669828
726,741.6832749306488
727,741.6898310562086
728,741.696532418555
729,741.7030524607894
730,741.7090240241046
731,741.7140449601163
732,741.7176846101642
733,741.7194912104928
734,741.71900033439
735,741.7157444472655
736,741.7092635734524
737,741.6991170432625
738,741.6848962944565
739,741.6662386195098
740,741.6428415007705
741,741.6144768422112
742,741.5810041599099
743,741.5423817530602
744,741.4986750567149
745,741.4500616975829
746,741.3968330893156
747,741.3393925790522
748,741.2782501710191
749,741.2140138053097
750,741.147377195024
751,741.0791044023912
752,741.0100116308155
753,740.9409469845255
754,740.8727690654988
755,740.8063252332724
756,740.7424302527054
757,740.6818459884885
758,740.6252627907975
759,740.5732832260277
760,740.5264087863712
761,740.4850301140534
762,740.4494211172919
763,740.4197371903279
764,740.3960175662043
765,740.3781915626936
766,740.3660881516147
767,740.3594480199295
768,740.3579371888007
769,740.3611612948987
770,740.3686797723426
771,740.3800193890048
772,740.3946868503181
773,740.4121804093137
774,740.4320005518646
775,740.4536598513604
776,740.4766920380757
777,740.5006602555324
778,740.5251644311977
779,740.5498476992201
780,740.5744018543468
781,740.598571837605
782,740.6221592379082
783,740.6450247489021
784,740.667089428853
785,740.6883344472748
786,740.7087988178605
787,740.7285745588782
788,740.7477989183833
789,740.7666437326504
790,740.7853024760128
791,740.8039759131759
792,740.8228573999905
793,740.8421188371972
794,740.8618981493203
795,740.8822889909779
796,740.903333169165
797,740.9250159978051
798,740.9472645321191
799,740.9699484890391
800,740.9928836907767
801,741.0158379579175
802,741.0385393734864
803,741.0606867172158
804,741.0819617241425
805,741.1020427212353
806,741.1206191323765
807,741.1374062949228
808,741.1521599820713
809,741.1646899520371
810,741.1748717742814
811,741.1826561795316
812,741.188075244185
813,741.191244803093
814,741.1923626146342
815,741.1917020573999
816,741.1896015172578
817,741.1864500431519
818,741.1826702337767
819,741.1786996020976
820,741.174971785101
821,741.1718989137486
822,741.1698562871992
823,741.1691702348086
824,741.1701096847099
825,741.1728815081453
826,741.1776292570554
827,741.1844345528135
828,741.1933201807914
829,741.2042539422354
830,741.2171525272652
831,741.2318850422481
832,741.2482762155247
833,741.266109577563
834,741.2851310029465
835,741.305052959311
836,741.3255597381628
837,741.3463138912405
838,741.3669639957839
839,741.3871536326218
840,741.4065311070038
841,741.4247591370029
842,741.441523654899
843,741.4565410567849
844,741.4695635929982
845,741.4803829657213
846,741.4888324632393
847,741.4947880449355
848,741.4981687146989
849,741.4989363664765
850,741.4970951334682
851,741.4926901592155
852,741.4858056549507
853,741.4765621332627
854,741.4651128058744
855,741.4516392472232
856,741.4363464801573
857,741.41945760033
858,741.4012079684812
859,741.381838959995
860,741.3615913159083
861,741.3406982382867
862,741.319378425536
863,741.2978292015284
864,741.2762197760586
865,741.2546845627396
866,741.2333164849542
867,741.2121603782414
868,741.1912068583672
869,741.1703871833429
870,741.1495696192554
871,741.128557750058
872,741.1070911969073
873,741.084849286912
874,741.0614581493365
875,741.0365014216247
876,741.0095343006448
877,740.9801002374732
878,740.947749263536
879,740.9120567952524
880,740.8726417924074
881,740.8291833130615
882,740.7814347476094
883,740.7292352320464
884,740.6725178759352
885,740.6113145199361
886,740.5457568334338
887,740.4760737198966
888,740.4025852187668
889,740.3256933429079
890,740.2458704855519
891,740.1636460951402
892,740.0795922879415
893,739.9943090491034
894,739.908409669933
895,739.8225070059801
896,739.7372010119219
897,739.6530678945736
898,739.5706511654254
899,739.4904548170688
900,739.4129386981831
901,739.3385158776382
902,739.2675514596033
903,739.2003621185685
904,739.1372156900425
905,739.0783304439617
906,739.023874026869
907,738.9739623358043
908,738.928658726831
909,738.8879739798014
910,738.8518673497848
911,738.8202488372187
912,738.792982547023
913,738.7698907642053
914,738.7507582270935
915,738.7353360699245
916,738.7233450294161
917,738.7144777437543
