frame_number,force
0,734.8834838348013
1,734.9208558863248
2,734.9612062147008
3,735.0044795172888
4,735.050595694168
5,735.0994502927557
6,735.1509147627415
7,735.2048363885256
8,735.2610377045086
9,735.3193152220028
10,735.3794374827588
11,735.441142773854
12,735.5041371458922
13,735.5680935045397
14,735.632652415519
15,735.6974249235682
16,735.7619972928475
17,735.825937309704
18,735.8888017224563
19,735.9501444513724
20,736.0095252702658
21,736.0665187110828
22,736.1207230174713
23,736.171769070942
24,736.2193292513072
25,736.2631261060378
26,736.3029405312252
27,736.3386190203935
28,736.370079500426
29,736.3973153503463
30,736.4203973127485
31,736.4394730505819
32,736.454764043915
33,736.4665594851252
34,736.4752069868697
35,736.4811003048786
36,736.4846647789747
37,736.4863416379966
38,736.4865725430072
39,736.4857856636842
40,736.4843842233614
41,736.4827379518131
42,736.4811773978666
43,736.4799906644865
44,736.4794218943582
45,736.4796707819979
46,736.4808925091015
47,736.4831977682927
48,736.4866528849702
49,736.4912803108805
50,736.4970598013268
51,736.5039304021036
52,736.511793110434
53,736.5205139264418
54,736.5299270892293
55,736.5398385369235
56,736.5500298456654
57,736.560262926022
58,736.5702856060772
59,736.5798380447161
60,736.5886597853726
61,736.5964972036031
62,736.6031111474717
63,736.6082846971448
64,736.6118310645675
65,736.6136016309986
66,736.6134940165373
67,736.6114599524926
68,736.607512595843
69,736.6017328021067
70,736.5942737941747
71,736.5853636356993
72,736.5753049352478
73,736.5644713048821
74,736.5533003150347
75,736.5422830264216
76,736.5319505722894
77,736.5228585668508
78,736.5155701925995
79,736.510638699948
80,736.5085899366811
81,736.5099055664592
82,736.5150077719575
83,736.5242462685542
84,736.5378882520095
85,736.5561115267213
86,736.5790006965246
87,736.60654611268
88,736.6386452878957
89,736.6751065883104
90,736.7156550687745
91,736.7599402694532
92,736.8075456920228
93,736.8579995790712
94,736.910786537053
95,736.9653594729457
96,737.0211513109876
97,737.0775860797594
98,737.1340891763956
99,737.1900967768307
100,737.2450643524622
101,737.2984741331259
102,737.3498412875292
103,737.3987186450252
104,737.444699901932
105,737.4874214035307
106,737.5265627776785
107,737.5618468683984
108,737.5930394707271
109,737.6199492559144
110,737.6424280735673
111,737.6603716468716
112,737.6737205911869
113,737.6824616477189
114,737.6866289920279
115,737.6863054605841
116,737.6816235571775
117,737.6727661431346
118,737.6599667596627
119,737.6435095829637
120,737.6237290599612
121,737.6010092172382
122,737.5757823933385
123,737.5485268166774
124,737.5197622787916
125,737.4900432708517
126,737.4599492833735
127,737.430072358472
128,737.4010023359879
129,737.3733105079184
130,737.3475325579974
131,737.3241517275565
132,737.3035831738291
133,737.2861604775362
134,737.27212514109
135,737.261619679353
136,737.2546846413863
137,737.2512597057665
138,737.2511888283759
139,737.2542291936937
140,737.260063417321
141,737.268314164205
142,737.2785601778386
143,737.290352683339
144,737.3032312196925
145,737.3167381655126
146,737.3304315128415
147,737.3438957310152
148,737.3567507782409
149,737.3686594603307
150,737.3793334181943
151,737.3885380238886
152,737.3960963658174
153,737.4018923702246
154,737.4058730289534
155,737.4080496898275
156,737.4084983377943
157,737.4073587037171
158,737.4048319210702
159,737.4011763681222
160,737.3967013216667
161,737.391758158443
162,737.3867291169482
163,737.3820140157911
164,737.378015658685
165,737.3751248373984
166,737.3737059008308
167,737.3740838604693
168,737.3765339437828
169,737.3812743148576
170,737.388462333686
171,737.3981943048159
172,737.410508280377
173,737.4253892015578
174,737.4427755387358
175,737.4625666384393
176,737.4846301375488
177,737.5088089766994
178,737.5349277189666
179,737.5627980622045
180,737.5922235778665
181,737.6230037529222
182,737.6549373510229
183,737.6878250165441
184,737.7214710221328
185,737.7556841671324
186,737.7902780338782
187,737.8250709786641
188,737.8598862626444
189,737.8945526151847
190,737.9289053653652
191,737.9627881546991
192,737.9960551538209
193,738.0285736227729
194,738.0602265748815
195,738.0909152261346
196,738.1205608526948
197,738.1491057002859
198,738.1765127314801
199,738.2027642132516
200,738.2278593409643
201,738.2518112005357
202,738.27464338436
203,738.2963865415551
204,738.3170751098811
205,738.3367444590059
206,738.3554286457985
207,738.3731589146568
208,738.3899629640201
209,738.405864868575
210,738.4208854580882
211,738.4350429645178
212,738.4483538331382
213,738.4608336482308
214,738.4724980756739
215,738.4833636172144
216,738.4934479162273
217,738.5027693959219
218,738.5113460872453
219,738.5191935641151
220,738.5263219906902
221,738.5327324523333
222,738.538412950249
223,738.5433346057272
224,738.5474486864966
225,738.5506849912881
226,738.5529519094575
227,738.5541382232768
228,738.5541165860842
229,738.552748598657
230,738.5498913895835
231,738.5454054875745
232,738.539163592396
233,738.5310596906007
234,738.5210178587074
235,738.5090000797117
236,738.4950125231508
237,738.4791099932972
238,738.461398513581
239,738.442036161872
240,738.4212322806306
241,738.3992451400162
242,738.3763781191152
243,738.3529744998037
244,738.329410990146
245,738.3060900892831
246,738.283431413445
247,738.2618621706068
248,738.2418070813972
249,738.2236781094822
250,738.2078643248672
251,738.1947221102411
252,738.1845658120851
253,738.1776588920756
254,738.1742056635127
255,738.1743437618908
256,738.1781375179537
257,738.1855723313608
258,738.1965500613019
259,738.2108855075537
260,738.2283042856955
261,738.2484426329233
262,738.2708496957904
263,738.294992594223
264,738.3202641868301
265,738.3459932036146
266,738.3714563497458
267,738.3958920290307
268,738.4185153822854
269,738.4385343767359
270,738.4551667351636
271,738.4676575138059
272,738.4752970764669
273,738.477439083206
274,738.473517956375
275,738.4630651324043
276,738.4457233055625
277,738.4212578982178
278,738.3895651798499
279,738.3506767442877
280,738.3047603397105
281,738.2521172416283
282,738.1931764252341
283,738.1284857633123
284,738.0587004434591
285,737.9845688397726
286,737.9069161790968
287,737.8266264496054
288,737.7446230705956
289,737.6618488565557
290,737.5792457624414
291,737.4977348555626
292,737.4181970085646
293,737.3414549103992
294,737.268257000077
295,737.1992637769653
296,737.1350367426793
297,737.0760301316604
298,737.0225856019138
299,736.9749300720047
300,736.933176816329
301,736.8973297679283
302,736.8672907776423
303,736.8428694022532
304,736.8237946673634
305,736.8097281376874
306,736.8002775183929
307,736.7950099913014
308,736.7934646610295
309,736.7951638641841
310,736.7996235763975
311,736.8063635143751
312,736.8149175372482
313,736.8248445781998
314,736.8357398335069
315,736.8472455925045
316,736.8590609941239
317,736.8709500443873
318,736.8827473200247
319,736.894360885905
320,736.9057720723492
321,736.917031918326
322,736.9282543211342
323,736.9396062090829
324,736.9512952734201
325,736.9635558967099
326,736.9766339151012
327,736.9907708228907
328,737.0061880320458
329,737.0230718261173
330,737.041559637944
331,737.0617282169261
332,737.0835841807526
333,737.1070574165291
334,737.1319977961402
335,737.1581756199873
336,737.1852860252283
337,737.2129573136477
338,737.2407628709557
339,737.2682361220363
340,737.2948877981978
341,737.3202247069264
342,737.3437692109775
343,737.3650786750238
344,737.3837641402826
345,737.3995074753542
346,737.4120763317597
347,737.4213364141062
348,737.4272607663169
349,737.4299359231551
350,737.4295648727588
351,737.4264667978642
352,737.4210735302826
353,737.41392266078
354,737.4056473470687
355,737.3969629946972
356,737.388651079165
357,737.3815404524721
358,737.3764865860958
359,737.3743493354962
360,737.3759699133508
361,737.3821477927588
362,737.3936182262303
363,737.4110309926654
364,737.4349309194629
365,737.4657406898413
366,737.5037464109038
367,737.549086345942
368,737.6017431074973
369,737.6615395383125
370,737.7281385347152
371,737.8010471209991
372,737.8796250134596
373,737.9630976717069
374,738.0505735408593
375,738.1410649757986
376,738.233512209015
377,738.3268095944611
378,738.4198332234367
379,738.5114689558487
380,738.6006399886948
381,738.6863332134558
382,738.7676236943353
383,738.8436966310678
384,738.913866222925
385,738.9775909547225
386,739.0344849391064
387,739.0843250340496
388,739.1270535627227
389,739.16277667735
390,739.1917586897888
391,739.2144128920967
392,739.231289426124
393,739.2430606731191
394,739.2505045182464
395,739.2544857921962
396,739.2559362388475
397,739.2558334557766
398,739.2551793252261
399,739.2549784444742
400,739.2562169510444
401,739.259841960048
402,739.2667417247663
403,739.277726719523
404,739.2935120867885
405,739.3147021231866
406,739.3417775822006
407,739.3750865350002
408,739.4148393596563
409,739.4611080987473
410,739.5138299840374
411,739.5728145444212
412,739.63775354567
413,739.7082330522269
414,739.783747016845
415,739.8637118826274
416,739.947481734269
417,740.0343636213418
418,740.123632777574
419,740.2145475097007
420,740.3063635390121
421,740.3983476063887
422,740.4897902007881
423,740.5800173231456
424,740.6684012537637
425,740.7543703380527
426,740.8374178300628
427,740.9171098436265
428,740.9930924424918
429,741.0650978288401
430,741.1329494792361
431,741.19656595663
432,741.2559630128293
433,741.3112535346436
434,741.3626449487296
435,741.4104338789878
436,741.4549980321657
437,741.4967853678323
438,741.5363006089409
439,741.5740891965007
440,741.6107189990622
441,741.6467604275581
442,741.6827659215791
443,741.7192499378717
444,741.7566705781365
445,741.7954138584331
446,741.8357813293991
447,741.8779813498112
448,741.9221239455095
449,741.9682189745917
450,742.0161772618093
451,742.0658143961359
452,742.116856964946
453,742.168951077274
454,742.2216730502907
455,742.2745420986809
456,742.3270348031211
457,742.378601021533
458,742.42868073514
459,742.4767211636669
460,742.5221934288509
461,742.5646080980003
462,742.6035290326063
463,742.6385850549864
464,742.6694790646168
465,742.6959944400971
466,742.7179988066621
467,742.7354453978037
468,742.7483722176315
469,742.7568990897935
470,742.7612226041358
471,742.7616090298521
472,742.7583854398297
473,742.7519295233743
474,742.7426587594966
475,742.7310196587811
476,742.7174776168414
477,742.7025076626876
478,742.686586166349
479,742.6701834390495
480,742.6537571028514
481,742.6377461018604
482,742.622565227066
483,742.6085999545146
484,742.5962012335634
485,742.5856797466248
486,742.5772992949217
487,742.5712693807706
488,742.5677375619375
489,742.5667825192595
490,742.5684089198089
491,742.5725450848378
492,742.5790441822849
493,742.5876891724907
494,742.5982011499688
495,742.6102502281977
496,742.6234678728067
497,742.6374596362257
498,742.6518174833548
499,742.6661311949129
500,742.6799986026804
501,742.6930345803137
502,742.704878754403
503,742.7152018586745
504,742.7237106215424
505,742.7301511192882
506,742.7343106451765
507,742.7360183025422
508,742.7351446950299
509,742.7316012125935
510,742.725339423981
511,742.7163509606629
512,742.7046680772711
513,742.6903648750312
514,742.6735590046487
515,742.6544135248309
516,742.6331384828005
517,742.609991717805
518,742.5852784077425
519,742.559349011052
520,742.5325954639688
521,742.5054456987842
522,742.4783566887617
523,742.4518062604093
524,742.426283837508
525,742.4022801498339
526,742.380275851205
527,742.3607290360535
528,742.3440618712914
529,742.3306469382617
530,742.320794264887
531,742.3147402365852
532,742.3126395048395
533,742.3145607028273
534,742.3204863518836
535,742.3303169056567
536,742.3438784740257
537,742.3609334285264
538,742.3811928739444
539,742.4043299241685
540,742.4299928437712
541,742.457817366792
542,742.4874378017615
543,742.5184967831719
544,742.5506536827559
545,742.5835917664715
546,742.6170242052641
547,742.6506990119195
548,742.6844028732658
549,742.7179637063444
550,742.7512516469815
551,742.7841781510687
552,742.8166929988122
553,742.848779203902
554,742.8804460578527
555,742.9117207372674
556,742.9426390603422
557,742.9732360812725
558,743.0035372402414
559,743.0335507497263
560,743.0632617972219
561,743.0926289625248
562,743.1215829940487
563,743.1500278257208
564,743.1778435206818
565,743.204890733601
566,743.2310162469716
567,743.2560590842517
568,743.2798566250373
569,743.3022501107674
570,743.3230889885343
571,743.3422336930253
572,743.359556686027
573,743.3749418344141
574,743.3882824751593
575,743.3994787368636
576,743.408434809164
577,743.4150568420129
578,743.4192520111678
579,743.4209290201541
580,743.4199999710273
581,743.4163832312113
582,743.4100067729044
583,743.4008115040941
584,743.3887542702647
585,743.3738103757652
586,743.355975596855
587,743.3352677237285
588,743.3117276837394
589,743.285420293482
590,743.256434703595
591,743.2248846452386
592,743.1909086220412
593,743.1546701555624
594,743.1163580599571
595,743.0761865426131
596,743.0343947977506
597,742.9912457535894
598,742.9470237693075
599,742.9020313001998
600,742.8565847326439
601,742.8110096348809
602,742.7656356120864
603,742.7207909151756
604,742.6767969734609
605,742.6339630215954
606,742.5925808987832
607,742.5529199774979
608,742.5152221740586
609,742.4796971274262
610,742.4465177622739
611,742.4158164689344
612,742.3876820923974
613,742.3621579277035
614,742.339240974943
615,742.3188827444241
616,742.3009918679033
617,742.2854386466117
618,742.2720614519545
619,742.2606746285087
620,742.2510773181535
621,742.2430625197286
622,742.2364257510385
623,742.2309728350509
624,742.2265264938557
625,742.2229315370497
626,742.2200584728114
627,742.2178053984139
628,742.216098103962
629,742.2148884602402
630,742.2141513050472
631,742.2138801350432
632,742.214081927556
633,742.2147713652299
634,742.2159646705436
635,742.2176732481063
636,742.2198973815912
637,742.2226202812184
638,742.2258027946316
639,742.2293790819368
640,742.2332535214631
641,742.2372990690919
642,742.2413572451259
643,742.2452398463107
644,742.2487323666907
645,742.2515989842246
646,742.2535888380867
647,742.2544431687645
648,742.2539027648202
649,742.2517151682368
650,742.2476412836523
651,742.2414613139355
652,742.2329801260172
653,742.2220321346338
654,742.2084856443008
655,742.1922464835594
656,742.173260807486
657,742.1515170831146
658,742.1270473882681
659,742.0999281834518
660,742.0702806494307
661,742.0382705298637
662,742.0041072336836
663,741.9680418410826
664,741.9303637097605
665,741.8913955983872
666,741.8514875290058
667,741.8110098838251
668,741.7703463691753
669,741.7298874157583
670,741.6900243413102
671,741.6511442949437
672,741.6136257651525
673,741.5778343296906
674,741.544118343917
675,741.5128043583435
676,741.4841921668284
677,741.458549475919
678,741.43610627159
679,741.4170490752501
680,741.401515405644
681,741.3895888481189
682,741.3812951710858
683,741.3765999350753
684,741.3754079778604
685,741.3775649893855
686,741.3828611678474
687,741.3910367840595
688,741.4017894001086
689,741.4147824199715
690,741.4296545640249
691,741.4460298099318
692,741.4635273549096
693,741.481771175778
694,741.500398764845
695,741.519068657177
696,741.5374664855764
697,741.5553094689631
698,741.5723493930144
699,741.5883742420352
700,741.6032086759888
701,741.6167135373008
702,741.6287845864993
703,741.6393507594398
704,741.6483723639128
705,741.6558396572847
706,741.6617720932644
707,741.6662182658164
708,741.6692563461576
709,741.6709946546983
710,741.6715718850608
711,741.6711563894844
712,741.6699439394491
713,741.6681535631169
714,741.6660213502862
715,741.6637923808129
716,741.6617111609135
717,741.660011173108
718,741.658904301011
719,741.6585708963477
720,741.6591511284678
721,741.660738073617
722,741.6633727962873
723,741.6670414422518
724,741.671674129434
725,741.6771452673851
726,741.6832749310786
727,741.6898310566651
728,741.6965324190377
729,741.7030524612978
730,741.7090240246382
731,741.714044960675
732,741.7176846107478
733,741.7194912111014
734,741.7190003350227
735,741.7157444479204
736,741.7092635741267
737,741.6991170439516
738,741.6848962951544
739,741.6662386202103
740,741.642841501467
741,741.614476842898
742,741.5810041605816
743,741.5423817537123
744,741.4986750573428
745,741.4500616981825
746,741.3968330898833
747,741.3393925795845
748,741.2782501715119
749,741.2140138057596
750,741.1473771954286
751,741.079104402749
752,741.0100116311256
753,740.9409469847877
754,740.8727690657138
755,740.8063252334416
756,740.7424302528314
757,740.6818459885748
758,740.625262790848
759,740.573283226047
760,740.5264087863643
761,740.4850301140249
762,740.4494211172465
763,740.4197371902707
764,740.3960175661405
765,740.3781915626288
766,740.3660881515541
767,740.3594480198774
768,740.3579371887605
769,740.3611612948731
770,740.3686797723341
771,740.3800193890156
772,740.3946868503506
773,740.4121804093703
774,740.4320005519471
775,740.4536598514701
776,740.4766920382128
777,740.5006602556961
778,740.5251644313863
779,740.549847699431
780,740.5744018545766
781,740.5985718378504
782,740.622159238165
783,740.6450247491656
784,740.667089429119
785,740.688334447539
786,740.7087988181195
787,740.7285745591292
788,740.7477989186247
789,740.7666437328814
790,740.7853024762334
791,740.803975913386
792,740.8228574001903
793,740.8421188373874
794,740.8618981495027
795,740.882288991155
796,740.903333169339
797,740.9250159979786
798,740.9472645322941
799,740.9699484892172
800,740.9928836909595
801,741.0158379581062
802,741.0385393736825
803,741.0606867174213
804,741.0819617243598
805,741.1020427214676
806,741.120619132627
807,741.1374062951946
808,741.1521599823677
809,741.1646899523611
810,741.1748717746359
811,741.1826561799187
812,741.1880752446064
813,741.1912448035494
814,741.1923626151253
815,741.1917020579245
816,741.1896015178143
817,741.1864500437375
818,741.1826702343878
819,741.1786996027305
820,741.1749717857514
821,741.1718989144119
822,741.1698562878707
823,741.1691702354835
824,741.1701096853837
825,741.1728815088137
826,741.1776292577148
827,741.184434553461
828,741.1933201814246
829,741.2042539428527
830,741.2171525278654
831,741.2318850428308
832,741.2482762160897
833,741.2661095781109
834,741.2851310034774
835,741.3050529598245
836,741.3255597386581
837,741.3463138917164
838,741.3669639962401
839,741.3871536330587
840,741.406531107422
841,741.4247591374033
842,741.4415236552829
843,741.4565410571537
844,741.4695635933538
845,741.4803829660658
846,741.4888324635746
847,741.4947880452631
848,741.4981687150203
849,741.4989363667928
850,741.4970951337797
851,741.492690159522
852,741.4858056552512
853,741.4765621335556
854,741.4651128061573
855,741.4516392474939
856,741.4363464804136
857,741.41945760057
858,741.4012079687029
859,741.3818389601968
860,741.3615913160893
861,741.3406982384469
862,741.3193784256763
863,741.2978292016506
864,741.2762197761654
865,741.2546845628345
866,741.2333164850415
867,741.2121603783254
868,741.1912068584526
869,741.1703871834344
870,741.1495696193574
871,741.1285577501739
872,741.1070911970396
873,741.0848492870626
874,741.0614581495066
875,741.0365014218145
876,741.0095343008536
877,740.9801002376998
878,740.9477492637791
879,740.9120567955097
880,740.8726417926766
881,740.8291833133409
882,740.781434747898
883,740.7292352323435
884,740.67251787624
885,740.6113145202479
886,740.5457568337523
887,740.4760737202223
888,740.4025852191004
889,740.3256933432501
890,740.2458704859038
891,740.1636460955027
892,740.0795922883156
893,739.9943090494896
894,739.9084096703319
895,739.8225070063922
896,739.7372010123471
897,739.6530678950115
898,739.5706511658755
899,739.4904548175305
900,739.4129386986557
901,739.3385158781207
902,739.2675514600942
903,739.2003621190659
904,739.137215690544
905,739.0783304444655
906,739.023874027373
907,738.9739623363074
908,738.9286587273319
909,738.8879739802995
910,738.85186735028
911,738.8202488377108
912,738.7929825475115
913,738.7698907646895
914,738.7507582275722
915,738.7353360703967
916,738.7233450298806
917,738.7144777442101
918,738.708400293385
