frame_number,force
0,735.0507400844306
1,735.0847415208772
2,735.1194748242299
3,735.1548696778474
4,735.1908550489962
5,735.227359408927
6,735.2643109546652
7,735.3016378317092
8,735.3392683567463
9,735.3771312394858
10,735.4151558028024
11,735.4532722005868
12,735.4914116328943
13,735.5295065580549
14,735.5674909013126
15,735.6053002593158
16,735.6428720995146
17,735.6801459533413
18,735.7170636020202
19,735.7535692539224
20,735.7896097124554
21,735.8251345335557
22,735.860096171943
23,735.8944501154238
24,735.928155006605
25,735.9611727513939
26,735.9934686135928
27,736.0250112948809
28,736.0557729995162
29,736.0857294832279
30,736.1148600859281
31,736.1431477479856
32,736.1705790098407
33,736.1971439948039
34,736.2228363750631
35,736.2476533212765
36,736.2715954365526
37,736.2946666759977
38,736.3168742532399
39,736.3382285353413
40,736.3587429273169
41,736.3784337471811
42,736.3973200921442
43,736.4154236963507
44,736.4327687804183
45,736.4493818930296
46,736.4652917449334
47,736.4805290359213
48,736.4951262755927
49,736.5091175989211
50,736.5225385776632
51,736.5354260285231
52,736.5478178187976
53,736.5597526701256
54,736.5712699610085
55,736.5824095289324
56,736.5932114730658
57,736.6037159585145
58,736.6139630229967
59,736.6239923866615
60,736.6338432656721
61,736.6435541901197
62,736.6531628268577
63,736.662705807921
64,736.6722185652501
65,736.6817351724108
66,736.6912881939143
67,736.7009085426408
68,736.7106253457624
69,736.7204658194545
70,736.7304551526119
71,736.7406163997385
72,736.7509703831655
73,736.7615356047884
74,736.7723281676314
75,736.7833617077424
76,736.794647337149
77,736.8061935987674
78,736.8180064341522
79,736.8300891648246
80,736.8424424877734
81,736.8550644856695
82,736.8679506523574
83,736.8810939341232
84,736.8944847870054
85,736.9081112500688
86,736.9219590342088
87,736.9360116258284
88,736.9502504046518
89,736.964654774917
90,736.9792023091356
91,736.9938689034932
92,737.0086289438084
93,737.0234554808318
94,737.0383204135353
95,737.0531946789346
96,737.0680484469315
97,737.0828513187059
98,737.0975725273075
99,737.112181139187
100,737.1266462553882
101,737.1409372110377
102,737.1550237717273
103,737.1688763254463
104,737.1824660688308
105,737.1957651866435
106,737.2087470235788
107,737.221386247667
108,737.2336590046576
109,737.2455430627574
110,737.2570179470446
111,737.268065062845
112,737.2786678073915
113,737.2888116691598
114,737.2984843143521
115,737.3076756600867
116,737.3163779339751
117,737.3245857198937
118,737.3322959898918
119,737.3395081223151
120,737.3462239063485
121,737.3524475332387
122,737.3581855743681
123,737.3634469462062
124,737.368242862112
125,737.3725867711139
126,737.3764942840778
127,737.3799830879974
128,737.3830728494282
129,737.3857851083055
130,737.3881431635252
131,737.3901719517261
132,737.3918979207309
133,737.3933488990984
134,737.3945539631432
135,737.3955433025993
136,737.3963480858982
137,737.3970003258619
138,737.3975327464705
139,737.3979786511686
140,737.3983717929278
141,737.3987462460416
142,737.3991362794785
143,737.399576231557
144,737.4001003857333
145,737.4007428474088
146,737.4015374218334
147,737.402517493353
148,737.4037159063776
149,737.4051648485207
150,737.4068957364021
151,737.4089391045866
152,737.4113244980504
153,737.4140803684634
154,737.417233974515
155,737.4208112864922
156,737.4248368952973
157,737.4293339260264
158,737.4343239561389
159,737.4398269381923
160,737.4458611271015
161,737.4524430119519
162,737.45958725258
163,737.4673066213969
164,737.4756119511471
165,737.4845120894068
166,737.4940138606473
167,737.5041220366658
168,737.5148393161212
169,737.5261663137505
170,737.5381015595618
171,737.5506415079759
172,737.5637805565816
173,737.577511073934
174,737.5918234357006
175,737.6067060684527
176,737.6221455004699
177,737.6381264189988
178,737.6546317334987
179,737.6716426444898
180,737.6891387176901
181,737.7070979631204
182,737.7254969187844
183,737.7443107384386
184,737.763513282925
185,737.7830772145905
186,737.8029740944393
187,737.8231744817707
188,737.8436480360621
189,737.8643636207665
190,737.8852894085909
191,737.9063929877245
192,737.9276414684368
193,737.9490015894083
194,737.9704398231164
195,737.9919224795567
196,738.0134158075583
197,738.0348860929848
198,738.0562997532367
199,738.0776234276483
200,738.0988240635374
201,738.1198689977674
202,738.1407260337229
203,738.1613635136092
204,738.181750385996
205,738.201856268548
206,738.2216515058993
207,738.241107222618
208,738.2601953711622
209,738.2788887746742
210,738.2971611644316
211,738.3149872118174
212,738.3323425547613
213,738.3492038186788
214,738.3655486319332
215,738.3813556358006
216,738.3966044889124
217,738.4112758662051
218,738.4253514524887
219,738.4388139308186
220,738.4516469659372
221,738.4638351831948
222,738.4753641435252
223,738.4862203151953
224,738.4963910431054
225,738.5058645163901
226,738.5146297349247
227,738.5226764751902
228,738.5299952558647
229,738.5365773035129
230,738.5424145187467
231,738.5474994431534
232,738.5518252271678
233,738.5553855989581
234,738.5581748343205
235,738.5601877275687
236,738.561419563486
237,738.5618660905808
238,738.5615234960603
239,738.560388383023
240,738.5584577503616
241,738.555728975815
242,738.5521998025699
243,738.5478683298045
244,738.5427330075421
245,738.5367926361419
246,738.530046370709
247,738.522493730708
248,738.5141346150779
249,738.5049693231393
250,738.4949985814874
251,738.4842235769165
252,738.4726459952805
253,738.46026806608
254,738.4470926125196
255,738.4331231067423
256,738.4183637298938
257,738.4028194365393
258,738.3864960228323
259,738.3694001978059
260,738.3515396572571
261,738.3329231597992
262,738.3135606046228
263,738.2934631102816
264,738.2726430935284
265,738.2511143470291
266,738.2288921147224
267,738.205993163629
268,738.1824358509582
269,738.1582401854124
270,738.1334278816686
271,738.1080224070736
272,738.0820490196134
273,738.0555347961979
274,738.028508650278
275,738.0010013377976
276,737.9730454505126
277,737.9446753958409
278,737.915927362653
279,737.886839272733
280,737.8574507179678
281,737.8278028835723
282,737.7979384578413
283,737.767901529008
284,737.7377374698857
285,737.7074928111108
286,737.6772151039777
287,737.6469527740304
288,737.6167549667018
289,737.5866713863805
290,737.556752130308
291,737.5270475187295
292,737.4976079227894
293,737.4684835917527
294,737.4397244811461
295,737.4113800832979
296,737.3834992616006
297,737.3561300897145
298,737.3293196968978
299,737.3031141206035
300,737.2775581673718
301,737.2526952828521
302,737.2285674315763
303,737.2052149868923
304,737.1826766312903
305,737.160989267181
306,737.1401879380173
307,737.120305759541
308,737.1013738609618
309,737.0834213360499
310,737.0664752043717
311,737.0505603830672
312,737.0356996694908
313,737.0219137347008
314,737.0092211273613
315,736.9976382873133
316,736.987179567947
317,736.9778572664914
318,736.9696816613474
319,736.9626610556311
320,736.9568018261378
321,736.9521084770239
322,736.9485836976393
323,736.9462284241248
324,736.9450419045243
325,736.9450217672223
326,736.9461640925157
327,736.9484634871029
328,736.9519131612803
329,736.956505008657
330,736.9622296882022
331,736.9690767084053
332,736.9770345132918
333,736.9860905700382
334,736.9962314579487
335,737.0074429585445
336,737.0197101464208
337,737.0330174803613
338,737.0473488940394
339,737.062687885515
340,737.0790176046602
341,737.0963209376366
342,737.1145805876074
343,737.1337791509571
344,737.1538991883517
345,737.1749232900185
346,737.1968341347435
347,737.2196145422713
348,737.2432475189826
349,737.267716296892
350,737.2930043661247
351,737.3190955011047
352,737.3459737807077
353,737.3736236026814
354,737.4020296927378
355,737.4311771088456
356,737.4610512413344
357,737.4916378094831
358,737.5229228553451
359,737.5548927356436
360,737.5875341126251
361,737.6208339447529
362,737.6547794780611
363,737.6893582388891
364,737.7245580286199
365,737.760366920953
366,737.7967732621547
367,737.8337656746049
368,737.8713330638093
369,737.9094646289238
370,737.9481498767792
371,737.987378639358
372,738.0271410945619
373,738.0674277898676
374,738.1082296682157
375,738.1495380952748
376,738.1913448870944
377,738.2336423370473
378,738.2764232408491
379,738.3196809184032
380,738.3634092312875
381,738.4076025948151
382,738.4522559836897
383,738.4973649303569
384,738.5429255152427
385,738.5889343482229
386,738.6353885408206
387,738.6822856687862
388,738.7296237248795
389,738.7774010619255
390,738.82561632652
391,738.8742683840002
392,738.9233562354251
393,738.9728789273512
394,739.022835455197
395,739.0732246610473
396,739.124045126857
397,739.1752950641519
398,739.2269722014352
399,739.2790736705483
400,739.3315958931893
401,739.3845344686893
402,739.4378840640785
403,739.4916383075295
404,739.5457896864183
405,739.6003294513728
406,739.6552475277048
407,739.7105324355445
408,739.7661712198069
409,739.8221493908186
410,739.8784508760414
411,739.935057982976
412,739.9919513731173
413,740.0491100467733
414,740.1065113385406
415,740.1641309231954
416,740.2219428316994
417,740.2799194769954
418,740.3380316892519
419,740.3962487601713
420,740.4545384959131
421,740.5128672781399
422,740.5712001326693
423,740.6295008052061
424,740.6877318436274
425,740.7458546862966
426,740.8038297558787
427,740.8616165581203
428,740.919173785043
429,740.9764594219456
430,741.0334308575448
431,741.0900449965114
432,741.1462583735994
433,741.2020272685436
434,741.257307820971
435,741.3120561447215
436,741.3662284411288
437,741.4197811109017
438,741.4726708642645
439,741.524854829082
440,741.5762906568557
441,741.6269366267398
442,741.6767517479608
443,741.7256958611547
444,741.7737297391486
445,741.820815187622
446,741.8669151458829
447,741.911993787708
448,741.9560166219293
449,741.9989505923027
450,742.0407641761383
451,742.0814274811908
452,742.1209123403532
453,742.1591924037476
454,742.1962432278129
455,742.2320423609665
456,742.2665694253645
457,742.2998061942187
458,742.3317366640075
459,742.3623471208249
460,742.3916262000845
461,742.4195649388554
462,742.4461568201975
463,742.4713978089541
464,742.495286378577
465,742.5178235287428
466,742.5390127937249
467,742.5588602416381
468,742.577374464703
469,742.5945665606329
470,742.6104501052461
471,742.625041116491
472,742.6383580102384
473,742.6504215483981
474,742.6612547800953
475,742.6708829767027
476,742.67933356144
477,742.6866360340932
478,742.692821891279
479,742.6979245426014
480,742.701979223018
481,742.7050229017339
482,742.707094187941
483,742.708233233664
484,742.7084816338411
485,742.7078823236781
486,742.706479473381
487,742.7043183806412
488,742.7014453615661
489,742.6979076409804
490,742.6937532430802
491,742.6890308833456
492,742.683789862371
493,742.6780799619037
494,742.6719513429333
495,742.6654544452996
496,742.6586398880906
497,742.6515583701117
498,742.6442605698527
499,742.6367970445766
500,742.6292181283287
501,742.6215738287802
502,742.613913722855
503,742.606286851061
504,742.5987416104421
505,742.5913256461125
506,742.5840857414427
507,742.5770677071016
508,742.5703162693176
509,742.5638749578279
510,742.5577859940489
511,742.5520901799458
512,742.5468267879821
513,742.5420334524385
514,742.537746062311
515,742.5339986559427
516,742.5308233175111
517,742.5282500754807
518,742.5263068031825
519,742.5250191218036
520,742.5244103062428
521,742.5245011944543
522,742.5253101010121
523,742.5268527356617
524,742.5291421275745
525,742.5321885559238
526,742.5359994873253
527,742.5405795206991
528,742.5459303402391
529,742.5520506774092
530,742.5589362831143
531,742.5665799112913
532,742.5749713150664
533,742.5840972563494
534,742.5939415293764
535,742.604484998337
536,742.6157056488805
537,742.6275786529733
538,742.6400764463689
539,742.6531688178418
540,742.6668230093494
541,742.6810038263978
542,742.6956737580251
543,742.7107931059248
544,742.726320122281
545,742.7422111558735
546,742.7584208059791
547,742.7749020835128
548,742.7916065787391
549,742.8084846347421
550,742.8254855257182
551,742.8425576391112
552,742.8596486606468
553,742.8767057614592
554,742.893675786632
555,742.910505444607
556,742.9271414970104
557,742.9435309485078
558,742.9596212363214
559,742.9753604190124
560,742.9906973640684
561,743.0055819337122
562,743.0199651681884
563,743.0337994656109
564,743.0470387573386
565,743.0596386778033
566,743.0715567277123
567,743.0827524295478
568,743.0931874742612
569,743.1028258580737
570,743.1116340083779
571,743.1195808978886
572,743.1266381463917
573,743.1327801096775
574,743.1379839554853
575,743.1422297265012
576,743.1455003905971
577,743.1477818785548
578,743.1490631094855
579,743.1493360040336
580,743.1485954852868
581,743.1468394671718
582,743.1440688300787
583,743.140287383559
584,743.1355018161295
585,743.129721632395
586,743.1229590778667
587,743.1152290519625
588,743.1065490097546
589,743.0969388530873
590,743.0864208117649
591,743.0750193155945
592,743.0627608581481
593,743.049673853133
594,743.0357884842124
595,743.021136549028
596,743.0057512981214
597,742.9896672694765
598,742.9729201195184
599,742.9555464515709
600,742.937583642916
601,742.91906967163
602,742.9000429443174
603,742.8805421258292
604,742.8606059720396
605,742.8402731667353
606,742.8195821635627
607,742.798571033856
608,742.7772773211195
609,742.7557379029745
610,742.7339888614113
611,742.7120653621404
612,742.6900015437323
613,742.6678304171734
614,742.6455837764247
615,742.6232921205233
616,742.6009845876575
617,742.5786889014855
618,742.5564313297306
619,742.5342366548252
620,742.5121281561353
621,742.4901276031414
622,742.4682552589215
623,742.446529893314
624,742.4249688051848
625,742.4035878532301
626,742.3824014947145
627,742.3614228315073
628,742.3406636627805
629,742.3201345437836
630,742.2998448501648
631,742.2798028473351
632,742.260015764356
633,742.2404898717612
634,742.2212305626582
635,742.202242436433
636,742.1835293843972
637,742.1650946767509
638,742.1469410502433
639,742.1290707959074
640,742.1114858462321
641,742.0941878611176
642,742.0771783119511
643,742.0604585631079
644,742.0440299501364
645,742.0278938538386
646,742.0120517694024
647,741.9965053696883
648,741.9812565617334
649,741.9663075356041
650,741.951660804923
651,741.9373192386623
652,741.9232860839878
653,741.9095649800076
654,741.8961599622488
655,741.8830754576934
656,741.8703162703155
657,741.8578875572375
658,741.8457947957882
659,741.8340437418453
660,741.8226403798812
661,741.8115908650923
662,741.8009014579428
663,741.7905784514458
664,741.7806280916002
665,741.7710564916218
666,741.7618695408705
667,741.7530728096108
668,741.7446714508851
669,741.7366701007574
670,741.7290727780448
671,741.7218827844536
672,741.7151026058723
673,741.7087338155078
674,741.702776979545
675,741.6972315660641
676,741.692095858
677,741.6873668709525
678,741.683040276678
679,741.6791103331262
680,741.6755698219172
681,741.6724099941548
682,741.6696205254369
683,741.6671894808528
684,741.6651032906491
685,741.6633467370509
686,741.661902952494
687,741.6607534293305
688,741.6598780409448
689,741.6592550740861
690,741.6588612720968
691,741.6586718886086
692,741.6586607512194
693,741.6588003346155
694,741.659061842544
695,741.6594152980109
696,741.6598296411154
697,741.6602728339998
698,741.6607119724612
699,741.6611134038046
700,741.6614428505085
701,741.6616655392396
702,741.6617463347413
703,741.6616498781622
704,741.6613407294685
705,741.660783513588
706,741.6599430698097
707,741.6587846037854
708,741.6572738413042
709,741.655377182908
710,741.6530618583237
711,741.6502960796197
712,741.6470491919938
713,741.6432918212403
714,741.6389960171492
715,741.6341353922822
716,741.6286852557333
717,741.6226227416464
718,741.6159269323791
719,741.6085789762117
720,741.6005621994199
721,741.5918622124154
722,741.5824670095228
723,741.5723670618144
724,741.5615554022781
725,741.5500277024992
726,741.5377823400578
727,741.5248204559712
728,741.5111460016677
729,741.4967657750964
730,741.4816894455944
731,741.4659295671372
732,741.4495015796429
733,741.4324237981099
734,741.4147173894652
735,741.3964063370372
736,741.377517392589
737,741.358080015897
738,741.3381263019462
739,741.317690895838
740,741.2968108954193
741,741.2755257414966
742,741.2538770954172
743,741.2319087038612
744,741.2096662509055
745,741.1871971977313
746,741.1645506106531
747,741.1417769783501
748,741.1189280192661
749,741.0960564801798
750,741.0732159270228
751,741.0504605292015
752,741.0278448389206
753,741.0054235672391
754,740.983251358682
755,740.9613825662129
756,740.9398710282954
757,740.9187698497078
758,740.8981311877388
759,740.8780060453561
760,740.8584440728749
761,740.8394933795237
762,740.8212003561222
763,740.8036095098931
764,740.786763312212
765,740.7707020598216
766,740.7554637497101
767,740.7410839675658
768,740.7275957895504
769,740.7150296970578
770,740.7034135041179
771,740.6927722971518
772,740.6831283868771
773,740.6745012722195
774,740.6669076160975
775,740.6603612328788
776,740.6548730871971
777,740.6504513037017
778,740.6471011872144
779,740.6448252527215
780,740.6436232646167
781,740.6434922845791
782,740.644426727429
783,740.6464184242487
784,740.6494566919711
785,740.6535284085115
786,740.6586180923867
787,740.6647079857162
788,740.6717781396502
789,740.6798065015753
790,740.6887690038025
791,740.6986396537102
792,740.7093906254255
793,740.7209923531224
794,740.7334136259465
795,740.7466216844866
796,740.7605823185918
797,740.775259966176
798,740.7906178124961
799,740.8066178893265
800,740.8232211735142
801,740.8403876844962
802,740.8580765804045
803,740.8762462523366
804,740.8948544163164
805,740.9138582024419
806,740.9332142407222
807,740.9528787431206
808,740.972807581335
809,740.9929563598475
810,741.0132804837677
811,741.0337352210466
812,741.0542757587275
813,741.0748572530013
814,741.0954348729683
815,741.1159638382262
816,741.1363994507014
817,741.1566971214709
818,741.1768123936076
819,741.1967009623078
820,741.2163186936515
821,741.235621643325
822,741.2545660765102
823,741.2731084899605
824,741.2912056370185
825,741.3088145559966
826,741.3258926020088
827,741.3423974820557
828,741.3582872929987
829,741.3735205620177
830,741.388056289256
831,741.4018539925792
832,741.414873754598
833,741.4270762722599
834,741.4384229093241
835,741.4488757519701
836,741.4583976676918
837,741.4669523675527
838,741.4745044717686
839,741.4810195783775
840,741.486464334475
841,741.4908065092483
842,741.4940150679579
843,741.4960602461247
844,741.4969136234075
845,741.4965481969023
846,741.4949384537634
847,741.492060443097
848,741.4878918470125
849,741.4824120506112
850,741.4756022105759
851,741.4674453219536
852,741.4579262826823
853,741.4470319554359
854,741.4347512264405
855,741.4210750609926
856,741.405996555463
857,741.3895109855446
858,741.3716158504506
859,741.3523109127516
860,741.331598233584
861,741.3094822030411
862,741.2859695655985
863,741.2610694404118
864,741.234793336243
865,741.2071551607107
866,741.1781712235635
867,741.1478602338166
868,741.1162432907815
869,741.0833438691463
870,741.049187798263
871,741.0138032357683
872,740.9772206357027
873,740.9394727113687
874,740.900594393148
875,740.8606227813278
876,740.8195970937016
877,740.7775586074462
878,740.734550594599
879,740.6906182504114
880,740.645808613918
881,740.6001704802358
882,740.5537543043287
883,740.5066120961837
884,740.4587973074979
885,740.410364710091
886,740.3613702663872
887,740.3118709924703
888,740.2619248144338
889,740.2115904189714
890,740.1609270993356
891,740.1099945978852
892,740.0588529464534
893,740.0075623057861
894,739.9561828053218
895,739.9047743845497
896,739.8533966371025
897,739.8021086586527
898,739.7509688996298
899,739.7000350237113
900,739.6493637729078
901,739.5990108398227
902,739.5490307473915
903,739.4994767362152
904,739.4504006595882
905,739.4018528864552
906,739.3538822127115
907,739.3065357813774
908,739.2598590121914
909,739.2138955410959
910,739.1686871699428
911,739.124273826518
912,739.0806935347118
913,739.0379823944131
914,738.9961745705157
915,738.955302290342
916,738.9153958487994
917,738.8764836206757
