acceleration,velocity,displacement
-0.04256613120198685,0.0,0.0
-0.042092470900755505,-2.116465052568559e-05,-5.2911626314213975e-09
-0.0416092010704766,-4.209006851849361e-05,-2.11048423924662e-08
-0.04111732753004143,-6.277170066862312e-05,-4.732028468924539e-08
-0.040617866480302044,-8.320549917120899e-05,-8.381458464920341e-08
-0.04011184133043161,-0.00010338792612389241,-1.3046294097297877e-07
-0.03960027948533798,-0.0001233159563278348,-1.8713891158591057e-07
-0.03908420910639723,-0.0001429870784757686,-2.5371467028681146e-07
-0.03856465585923916,-0.0001623992947171777,-3.3006126358504805e-07
-0.03804263966270963,-0.0001815511185976649,-4.160488669137587e-07
-0.03751917145134741,-0.00020044157137617916,-5.115470394072197e-07
-0.03699524996016011,-0.00021907017672905603,-6.164249764335285e-07
-0.036471858537042504,-0.0002374369538533567,-7.305517590791317e-07
-0.03594996198692201,-0.00025554240898434784,-8.537965997885578e-07
-0.03543050345358055,-0.0002733875253444735,-9.860290833707632e-07
-0.03491440134959584,-0.00029097375154526757,-1.1271194025931984e-06
-0.034402546349837006,-0.0003083029884701258,-1.2769385875970467e-06
-0.033895798467272274,-0.0003253775746744031,-1.435358728383179e-06
-0.03339498423048156,-0.00034220027034884154,-1.60225318963899e-06
-0.03290089398118919,-0.00035877423990175923,-1.7774968172016401e-06
-0.03241427930883471,-0.0003751030332242652,-1.9609661354831463e-06
-0.03193585063798628,-0.00039119056571097045,-2.1525395352169553e-06
-0.03146627498278207,-0.0004070410971161625,-2.3520974509237387e-06
-0.031006173880507727,-0.000422659209331985,-2.5595225275357758e-06
-0.03055612151507629,-0.000438049783180881,-2.774699775663992e-06
-0.03011664304124695,-0.00045321797431996185,-2.9975167150392027e-06
-0.02968821312150768,-0.00046816918836065053,-3.227863505709356e-06
-0.029271254688236038,-0.0004829090553130865,-3.46563306662779e-06
-0.028866137942977207,-0.0004974434034708898,-3.7107211813237842e-06
-0.02847317960244726,-0.0005117782328572459,-3.963026590405818e-06
-0.028092642398056627,-0.0005259196883573719,-4.222451070709473e-06
-0.027724734833892175,-0.0005398740326653591,-4.488899500965156e-06
-0.027369611207481447,-0.0005536476191757026,-4.762279913925421e-06
-0.02702737189678645,-0.0005672468649517696,-5.0425035349572894e-06
-0.02669806391356444,-0.0005806782239043573,-5.329484807171321e-06
-0.026381681717057535,-0.0005939481603120129,-5.623141403225413e-06
-0.026078168274377308,-0.0006070631228098716,-5.9233942240058845e-06
-0.025787416347212874,-0.0006200295189652691,-6.23016738444967e-06
-0.025509269980487744,-0.0006328536905471942,-6.543388186827786e-06
-0.02524352616859363,-0.0006455418895844646,-6.862987081860701e-06
-0.0249899366785156,-0.0006581002552962419,-7.188897618080878e-06
-0.024748210014649573,-0.0006705347919695332,-7.5210563798973214e-06
-0.024518013515547242,-0.0006828513478520825,-7.859402914852726e-06
-0.024298975577204278,-0.0006950555951252703,-8.203879650597064e-06
-0.024090687999932456,-0.0007071530110195545,-8.554431802133271e-06
-0.023892708456102512,-0.0007191488601335632,-8.91100726992155e-06
-0.023704563074172857,-0.000731048178016132,-9.273556529458974e-06
-0.02352574913076182,-0.0007428557560673657,-9.642032512979849e-06
-0.023355737837980176,-0.0007545761278095512,-1.0016390483949078e-05
-0.02319397720976749,-0.0007662135565714881,-1.0396587905044337e-05
-0.02303989499046382,-0.0007777720246215459,-1.0782584300342596e-05
-0.02289290163121696,-0.0007892552237769661,-1.1174341112442224e-05
-0.022752393303170162,-0.0008006665475105629,-1.1571821555264106e-05
-0.022617754938369233,-0.0008120090845709478,-1.1974990463284483e-05
-0.02248836328845633,-0.0008232856141276542,-1.2383814137959134e-05
-0.02236358998825385,-0.0008344986024468317,-1.2798260192102756e-05
-0.022242804608732757,-0.0008456502010960784,-1.3218297392988483e-05
-0.022125377683745024,-0.0008567422466691978,-1.3643895504929802e-05
-0.022010683696933105,-0.0008677762620143673,-1.4075025132100694e-05
-0.02189810401778099,-0.0008787534589430459,-1.4511657562340047e-05
-0.021787029777594717,-0.0008896747423918898,-1.4953764612673782e-05
-0.021676864677080975,-0.0009005407160055588,-1.5401318477273142e-05
-0.02156702771677694,-0.0009113516891040233,-1.5854291578550537e-05
-0.021456955840082996,-0.0009221076849932383,-1.6312656422074854e-05
-0.021346106477618018,-0.0009328084505726635,-1.677638545596633e-05
-0.02123395998205065,-0.0009434534671875806,-1.724545093540639e-05
-0.021120021944017665,-0.0009540419626690977,-1.7719824792870562e-05
-0.021003825381491453,-0.000964572924500475,-1.8199478514662956e-05
-0.020884932796831904,-0.0009750451140450559,-1.868438302429934e-05
-0.02076293809753144,-0.0009854570817686467,-1.9174508573252765e-05
-0.0206374683779174,-0.000995807183387509,-1.9669824639541803e-05
-0.02050818555981316,-0.0010060935968719416,-2.0170299834606665e-05
-0.02037478789027258,-0.0010163143402344631,-2.0675901818883267e-05
-0.02023701129373065,-0.001026467290030464,-2.1186597226449498e-05
-0.020094630573693706,-0.00103655020049732,-2.1702351599081443e-05
-0.019947460455403784,-0.0010465607232545942,-2.2223129330019422e-05
-0.019795356456631833,-0.0010564964274826032,-2.2748893617703723e-05
-0.019638215570760256,-0.0010663548204894512,-2.3279606429696737e-05
-0.01947597674621423,-0.0010761333685686948,-2.3815228476961273e-05
-0.01930862114887526,-0.0010858295180424672,-2.4355719198614064e-05
-0.019136172196699858,-0.001095440716378861,-2.4901036757219397e-05
-0.018958695356423246,-0.0011049644332671417,-2.54511380446309e-05
-0.01877629769184901,-0.0011143981815292098,-2.600597869832999e-05
-0.018589127154213337,-0.0011237395377407253,-2.6565513128147473e-05
-0.018397371609149258,-0.001132986162431566,-2.7129694553190546e-05
-0.01820125760106057,-0.0011421358197341183,-2.7698475048731968e-05
-0.01800104886193008,-0.001151186396349866,-2.8271805602752965e-05
-0.017797044575520646,-0.0011601359197092286,-2.884963618176774e-05
-0.01758957740932328,-0.0011689825752054395,-2.9431915805496406e-05
-0.017379011326889186,-0.0011777247223894926,-3.001859262989514e-05
-0.01716573919401033,-0.0011863609100197176,-3.060961403799744e-05
-0.01695018019429044,-0.0011948898898667929,-3.120492673796907e-05
-0.01673277707229791,-0.00120331062918344,-3.1804476867731625e-05
-0.016513993225000037,-0.0012116223217577644,-3.2408210105466925e-05
-0.016294309664404465,-0.0012198243974801154,-3.3016071785276396e-05
-0.016074221876266146,-0.001227916530365283,-3.362800701723775e-05
-0.01585423660067113,-0.0012358986449845174,-3.4243960811075196e-05
-0.015634868559465734,-0.0012437709212745516,-3.4863878202639964e-05
-0.015416637153334682,-0.0012515337977027517,-3.548770438238429e-05
-0.015200063149646002,-0.0012591879727784968,-3.61153848250046e-05
-0.014985665382487086,-0.0012667344049115301,-3.674686541942711e-05
-0.014773957487884399,-0.001274174310629123,-3.7382092598312273e-05
-0.014565444697877626,-0.0012815091611755635,-3.8021013466263444e-05
-0.014360620716073682,-0.0012887406775290513,-3.86635759259396e-05
-0.014159964695262001,-0.0012958708238818852,-3.930972880129233e-05
-0.013963938335089344,-0.001302901799639473,-3.995942195717267e-05
-0.013772983114530747,-0.0013098360300018781,-4.061260641458301e-05
-0.013587517670646821,-0.0013166761551981726,-4.126923446088302e-05
-0.013407935333277622,-0.0013234250184491537,-4.1929259754294854e-05
-0.013234601825403322,-0.0013300856527388239,-4.259263742209185e-05
-0.013067853140009317,-0.001336661266480177,-4.32593241518966e-05
-0.01290799360494443,-0.0013431552281664154,-4.392927827555825e-05
-0.012755294146692905,-0.0013495710501043247,-4.460245984512593e-05
-0.01260999076278594,-0.0013559123713316945,-4.527883070048494e-05
-0.012472283211236983,-0.0013621829398252003,-4.595835452827416e-05
-0.012342333923832098,-0.0013683865941089676,-4.66409969117577e-05
-0.012220267148058177,-0.00137452724437694,-4.732672537137918e-05
-0.012106168320196389,-0.0013806088532440036,-4.801550939578442e-05
-0.012000083669762124,-0.0013866354162414933,-4.8707320463155794e-05
-0.01190202005313571,-0.0013926109421722177,-4.940213205275922e-05
-0.011811945011987814,-0.0013985394334384985,-5.00999196466619e-05
-0.011729787051278667,-0.001404424866454315,-5.08006607216351e-05
-0.011655436133216021,-0.0014102711722504388,-5.1504334731311286e-05
-0.01158874438640445,-0.001416082217380344,-5.221092307871898e-05
-0.01152952703037782,-0.0014218617852345395,-5.29204090793727e-05
-0.011477563513146223,-0.0014276135578704205,-5.363277791514894e-05
-0.011432598854241725,-0.0014333410984622675,-5.4348016579232116e-05
-0.011394345180039988,-0.0014390478344708379,-5.506611381246539e-05
-0.011362483433018176,-0.0014447370416241024,-5.5787060031489125e-05
-0.011336665232701382,-0.0014504118287905323,-5.651084724909278e-05
-0.011316514863687151,-0.0014560751238146294,-5.7237468987244074e-05
-0.011301631365157263,-0.0014617296603718405,-5.796692018329069e-05
-0.011291590695962613,-0.0014673779658871205,-5.869919708985543e-05
-0.011285947949638955,-0.0014730223505485208,-5.943429716896434e-05
-0.011284239595444067,-0.0014786648974347916,-6.017221898096017e-05
-0.011285985724892257,-0.0014843074537648757,-6.091296206876008e-05
-0.011290692287120438,-0.001489951623267879,-6.165652683801827e-05
-0.011297853299460986,-0.0014955987596645243,-6.240291443375138e-05
-0.011306953022300684,-0.0015012499612449648,-6.315212661397875e-05
-0.011317468090889946,-0.0015069060665232625,-6.39041656209208e-05
-0.01132886960131808,-0.0015125676509463145,-6.46590340502882e-05
-0.011340625152195551,-0.0015182350246346929,-6.541673471918345e-05
-0.011352200846486086,-0.0015239082311343632,-6.617727053312571e-05
-0.01136306325900263,-0.0015295870471607354,-6.694064435269949e-05
-0.01137268137463696,-0.0015352709833191453,-6.770685886031946e-05
-0.011380528500344309,-0.0015409592857878907,-6.847591642759621e-05
-0.011386084150819582,-0.0015466509389506816,-6.924781898378085e-05
-0.01138883590469874,-0.0015523446689645613,-7.002256788575966e-05
-0.01138828122581976,-0.001558038948247191,-7.08001637900626e-05
-0.011383929242708863,-0.0015637320008643231,-7.158060652734047e-05
-0.011375302478721984,-0.0015694218087946808,-7.236389497975522e-05
-0.01136193852559332,-0.0015751061190457597,-7.315002696171533e-05
-0.011343391654608008,-0.00158078245159081,-7.393899910437448e-05
-0.011319234361460661,-0.0015864481080948272,-7.473080674429589e-05
-0.01128905884196419,-0.0015921001813956834,-7.552544381666852e-05
-0.011252478396016613,-0.0015977355657051785,-7.632290275344374e-05
-0.01120912875765498,-0.0016033509674935964,-7.712317438674344e-05
-0.011158669350166165,-0.0016089429170205516,-7.792624785787198e-05
-0.01110078446678022,-0.0016145077804747881,-7.873211053224581e-05
-0.011035184378511352,-0.001620041772686111,-7.954074792053604e-05
-0.010961606370895903,-0.001625540970373463,-8.035214360630093e-05
-0.010879815710041225,-0.0016310013258936972,-8.116627918036772e-05
-0.010789606534967175,-0.0016364186814549493,-8.198313418220489e-05
-0.010690802668516068,-0.0016417887837558202,-8.280268604850758e-05
-0.010583258335011623,-0.001647107299006702,-8.362491006919821e-05
-0.010466858770780718,-0.00165236982828315,-8.444977935102067e-05
-0.010341520713213741,-0.0016575719231541487,-8.527726478888e-05
-0.010207192754377705,-0.0016627091015210466,-8.610733504504879e-05
-0.01006385554628543,-0.0016677768635962125,-8.693995653632811e-05
-0.009911521847845882,-0.0016727707079447452,-8.777509342921335e-05
-0.009750236408428767,-0.0016776861475088138,-8.861270764307673e-05
-0.009580075688851665,-0.0016825187255331338,-8.945275886133722e-05
-0.009401147426086153,-0.0016872640313118682,-9.029520455054847e-05
-0.009213590052165545,-0.001691917715681431,-9.11399999872968e-05
-0.009017571979962733,-0.0016964755061894632,-9.198709829276452e-05
-0.008813290768579223,-0.0017009332218765986,-9.283645047478104e-05
-0.00860097217976302,-0.0017052867876136842,-9.368800547715362e-05
-0.008380869135307724,-0.0017095322479424519,-9.454171023604265e-05
-0.008153260583791394,-0.0017136657803722268,-9.539750974312132e-05
-0.007918450283302162,-0.0017176837080890002,-9.625534711523663e-05
-0.007676765505587525,-0.0017215825120362226,-9.711516367026793e-05
-0.007428555667041584,-0.0017253588423293798,-9.797689900885933e-05
-0.007174190893233072,-0.0017290095289694484,-9.884049110168403e-05
-0.006914060525334298,-0.0017325315918240902,-9.970587638188241e-05
-0.006648571577489351,-0.0017359222498497962,-0.00010057298984230088
-0.006378147153173487,-0.001739178929532462,-0.00010144176513714645
-0.006103224826371874,-0.0017422992725273482,-0.0001023121346876614
-0.005824254991460156,-0.0017452811424818063,-0.0001031840297914137
-0.005541699185489475,-0.0017481226310260437,-0.00010405738073479067
-0.005256028388119537,-0.0017508220629194459,-0.00010493211690827704
-0.004967721306444901,-0.001753378000343087,-0.00010580816692409267
-0.004677262653527806,-0.0017557892463330802,-0.00010668545873576171
-0.004385141430467474,-0.001758054847354079,-0.0001075639197591835
-0.004091849222743807,-0.001760174095017382,-0.00010844347699477636
-0.0037978785224057326,-0.0017621465269536693,-0.00010932405715026912
-0.003503721088340683,-0.001763971926856356,-0.00011020558676372163
-0.0032098663573239487,-0.001765650323717772,-0.00011108799232636516
-0.002916799917891027,-0.0017671819902865759,-0.00011197120040486625
-0.002625002056852359,-0.0017685674407802617,-0.00011285513776263296
-0.002334946385074766,-0.0017698074278907434,-0.00011373973147980071
-0.0020470985461763683,-0.0017709029391235562,-0.00011462490907155429
-0.0017619150099281516,-0.0017718551925125824,-0.00011551059860446332
-0.0014798419514256997,-0.001772665631752921,-0.0001163967288105297
-0.0012013142169646925,-0.0017733359207950186,-0.00011728322919866669
-0.0009267543773649307,-0.001773867937943601,-0.00011817003016335134
-0.000656571869140198,-0.0017742637695052272,-0.00011905706309021355
-0.0003911622236378328,-0.0017745257030284218,-0.00011994426045834696
-0.0001309063845438096,-0.0017746562201804673,-0.00012083155593914919
0.00012382988508194016,-0.0017746579893053328,-0.00012171888449152064
0.0003726965039875485,-0.0017745338577080654,-0.000122606182453274
0.0006153594793655453,-0.0017742868437122272,-0.00012349338762862906
0.0008515012169418606,-0.0017739201285381504,-0.00012438043937169164
0.0010808207341247188,-0.0017734370480503837,-0.00012526727866583878
0.0013030337771334272,-0.001772841084422569,-0.00012615384819895703
0.0015178728429469936,-0.0017721358577675488,-0.00012704009243450455
0.0017250871061027886,-0.0017713251177802864,-0.0001279259576783915
0.0019244422502062684,-0.001770412735441209,-0.00012881139214169688
0.0021157202050234194,-0.0017694026948274016,-0.00012969634599926404
0.0022987187914717917,-0.0017682990850782778,-0.00013058077144424045
0.002473251278085893,-0.0017671060925608885,-0.00013146462273865025
0.0026391458540388543,-0.0017658279932778573,-0.00013234785626010993
0.0027962450263492944,-0.0017644691455577604,-0.00013323043054481884
0.002944404951941764,-0.0017630339830631875,-0.00013411230632697407
0.003083494717673458,-0.0017615270081457837,-0.00013499344657477632
0.003213395582640842,-0.001759952785570705,-0.00013587381652320545
0.003334000196428758,-0.0017583159366259377,-0.0001367533837037546
0.003445211804431163,-0.0017566211336257228,-0.0001376321179713175
0.0035469434485099166,-0.0017548730948124876,-0.00013850999152842706
0.0036391171697443474,-0.001753076579657924,-0.00013938697894704465
0.0037216632201179808,-0.0017512363845604583,-0.00014026305718809924
0.003794519289931406,-0.001749357338932946,-0.00014113820561897258
0.003857629756379726,-0.0017474443016713681,-0.00014201240602912366
0.003910944956550084,-0.0017455021579931356,-0.00014288564264403977
0.003954420486109767,-0.0017435358166324707,-0.00014375790213769617
0.003988016523693916,-0.0017415502073800198,-0.0001446291736436993
0.00401169718074816,-0.0017395502789539093,-0.00014549944876528277
0.004025429878114733,-0.0017375409971891935,-0.00014636872158431855
0.004029184753746094,-0.0017355273435312284,-0.00014723698866949864
0.004022934109102433,-0.0017335143138155163,-0.00014810424908383532
0.004006651903404383,-0.0017315069173123897,-0.0001489705043916173
0.003980313304711346,-0.0017295101760103609,-0.00014983575866494797
0.003943894305824446,-0.001727529124107727,-0.00015070001848997748
0.00389737141236055,-0.0017255688076781807,-0.00015156329297292396
0.0038407214101549183,-0.0017236342844725518,-0.00015242559374596164
0.003773921218796596,-0.001721730623815314,-0.0001532869349730336
0.003696947837305995,-0.0017198629065512882,-0.00015414733335562526
0.0036097783872027713,-0.001718036224995161,-0.00015500680813851188
0.0035123902581652468,-0.001716255682833819,-0.0001558653811154691
0.0034047613618739068,-0.0017145263949288093,-0.00015672307663490976
0.0032868704993656143,-0.0017128534869634995,-0.00015757992160538283
0.0031586978455649547,-0.0017112420948772668,-0.00015843594550084302
0.0030202255519791825,-0.0017096973640278808,-0.0001592911803655693
0.0028714384658859587,-0.0017082244480234145,-0.00016014566081858214
0.002712324962430562,-0.0017068285071663355,-0.00016099942405737956
0.002542877885064277,-0.0017055147064544618,-0.00016185250986078476
0.002363095589193714,-0.0017042882130858972,-0.00016270496059066984
0.002172983082808002,-0.0017031541934178968,-0.00016355682119229578
0.0019725532556150015,-0.001702117809333291,-0.00016440813919298358
0.0017618281858701001,-0.0017011842139729198,-0.00016525896469881014
0.0015408405136203881,-0.001700358546798047,-0.0001661093503890029
0.00130963487082731,-0.0016996459279519352,-0.00016695935150769038
0.0010682693607872236,-0.0016990514518940316,-0.00016780902585265188
0.0008168170785320777,-0.0016985801802842017,-0.00016865843376069644
0.0005553676598755379,-0.0016982371340996,-0.0001695076380892924
0.0002840288414961131,-0.001698027284974257,-0.00017035670419406087
2.928010747684071e-06,-0.0016979555457611961,-0.00017120569990174473
-0.0002877862771379215,-0.0016980267603277936,-0.00017205469547826698
-0.0005879428362009802,-0.0016982456926061284,-0.00017290376359150046
-0.0008973464622353172,-0.0016986170149307376,-0.00017375297926838467
-0.0012157766406055196,-0.0016991452957064478,-0.00017460241984604396
-0.001542986368120223,-0.0016998349864586293,-0.00017545216491658523
-0.0018787011065351678,-0.0017006904083272931,-0.0001763022962652817
-0.0022226178849606144,-0.001701715738075167,-0.00017715289780188232
-0.002574404568799686,-0.0017029149936886071,-0.00017800405548482325
-0.0029336993133246103,-0.0017042920196591383,-0.00017885585723816018
-0.0033001102202939187,-0.001705850472042543,-0.00017970839286108562
-0.0036732152155030556,-0.0017075938034014921,-0.00018056175392994664
-0.004052562162844983,-0.0017095252477460792,-0.00018141603369273353
-0.00443766922600389,-0.0017116478055932915,-0.00018227132695606836
-0.004828025483132824,-0.0017139642292705757,-0.00018312772996478433
-0.005223091794034851,-0.0017164770085898676,-0.00018398534027424943
-0.005622301914684245,-0.0017191883570170474,-0.00018484425661565115
-0.006025063850901363,-0.0017221001984584438,-0.00018570457875452003
-0.006430761441195622,-0.001725214154781468,-0.00018656640734283
-0.00683875615715646,-0.0017285315341810559,-0.00018742984376507064
-0.007248389107253867,-0.0017320533204971584,-0.0001882949899787402
-0.00765898322674367,-0.0017357801635806578,-0.00018916194834975964
-0.00806984563335295,-0.001739712370795682,-0.00019003082148335372
-0.008480270125996303,-0.0017438498997355192,-0.00019090171205098653
-0.008889539802327949,-0.0017481923522176003,-0.0001917747226139748
-0.00929692977044223,-0.001752738969610793,-0.0001926499554444319
-0.00970170992972682,-0.0017574886295358351,-0.00019352751234421857
-0.010103147794652387,-0.00176243984396693,-0.00019440749446259425
-0.010500511333632771,-0.0017675907587490012,-0.00019529000211327324
