frame_number,force
0,735.0539331579739
1,735.089578740216
2,735.1259474931755
3,735.1629637233652
4,735.2005509559978
5,735.2386321738194
6,735.2771300588752
7,735.3159672362816
8,735.3550665189739
9,735.3943511523651
10,735.4337450579876
11,735.4731730754564
12,735.512561202352
13,735.5518368317161
14,735.5909289867118
15,735.6297685516633
16,735.6682884983121
17,735.7064241058795
18,735.7441131734734
19,735.7812962234648
20,735.8179166945512
21,735.8539211233166
22,735.8892593132222
23,735.9238844901163
24,735.9577534434528
25,735.9908266524035
26,736.0230683959657
27,736.0544468461167
28,736.0849341431242
29,736.1145064522881
30,736.1431440016036
31,736.1708310999745
32,736.1975561356505
33,736.223311554629
34,736.2480938190125
35,736.2719033457734
36,736.2947444269539
37,736.316625132835
38,736.3375571999064
39,736.3575559054736
40,736.3766399304573
41,736.3948312115297
42,736.412154783323
43,736.4286386111138
44,736.4443134142082
45,736.4592124802308
46,736.473371470662
47,736.4868282182439
48,736.4996225172188
49,736.5117959076202
50,736.523391454882
51,736.534453525847
52,736.5450275620084
53,736.5551598506647
54,736.564897294735
55,736.574287182208
56,736.5833769563882
57,736.5922139881188
58,736.6008453509992
59,736.6093176004304
60,736.6176765571819
61,736.625967096105
62,736.6342329406532
63,736.6425164639797
64,736.6508584974599
65,736.6592981474566
66,736.6678726210342
67,736.6766170611958
68,736.6855643920791
69,736.6947451744102
70,736.7041874714203
71,736.7139167253777
72,736.7239556448751
73,736.7343241030727
74,736.7450390472632
75,736.7561144204062
76,736.7675610955961
77,736.7793868246562
78,736.7915962020586
79,736.8041906451754
80,736.8171683916748
81,736.8305245148199
82,736.8442509574613
83,736.8583365854423
84,736.8727672608253
85,736.8875259348788
86,736.9025927602992
87,736.9179452218389
88,736.9335582844121
89,736.9494045577298
90,736.9654544764475
91,736.9816764946577
92,736.9980372933585
93,737.0145019993394
94,737.03103441376
95,737.0475972485502
96,737.0641523686886
97,737.0806610384818
98,737.0970841701281
99,737.1133825729758
100,737.1295172018632
101,737.1454494028128
102,737.1611411542942
103,737.1765553023571
104,737.1916557880813
105,737.2064078659937
106,737.2207783123393
107,737.2347356223447
108,737.2482501957453
109,737.261294509847
110,737.2738432793034
111,737.285873601746
112,737.2973650884448
113,737.3082999792688
114,737.3186632413127
115,737.3284426506788
116,737.33762885705
117,737.3462154308693
118,737.3541988931071
119,737.3615787277816
120,737.3683573775627
121,737.3745402228494
122,737.3801355445983
123,737.3851544709555
124,737.3896109076817
125,737.3935214525442
126,737.3969052942457
127,737.3997840968832
128,737.4021818713161
129,737.4041248351192
130,737.4056412629733
131,737.4067613294175
132,737.4075169459146
133,737.407941594159
134,737.4080701574262
135,737.4079387515092
136,737.4075845564939
137,737.4070456504014
138,737.406360845517
139,737.4055695279607
140,737.4047115007052
141,737.4038268299275
142,737.4029556943607
143,737.4021382372281
144,737.4014144203817
145,737.4008238804142
146,737.4004057867514
147,737.4001987019622
148,737.4002404446984
149,737.4005679557799
150,737.401217167991
151,737.4022228801368
152,737.4036186357927
153,737.4054366070451
154,737.4077074834366
155,737.4104603663094
156,737.4137226687111
157,737.4175200209405
158,737.4218761816942
159,737.4268129546953
160,737.4323501106732
161,737.4385053146631
162,737.4452940588523
163,737.4527296015546
164,737.4608229132026
165,737.4695826304027
166,737.4790150191297
167,737.4891239481167
168,737.4999108734066
169,737.5113748348195
170,737.5235124647147
171,737.5363180089877
172,737.5497833598289
173,737.5638980994547
174,737.5786495538558
175,737.5940228556071
176,737.6100010148773
177,737.6265649978894
178,737.6436938122056
179,737.6613645983338
180,737.679552727248
181,737.6982319034144
182,737.7173742728173
183,737.7369505353599
184,737.7569300609559
185,737.7772810087066
186,737.7979704487265
187,737.8189644863241
188,737.8402283882592
189,737.8617267106823
190,737.883423428211
191,737.9052820634806
192,737.9272658164282
193,737.9493376925014
194,737.971460628924
195,737.9935976180944
196,738.0157118271638
197,738.0377667128846
198,738.0597261309938
199,738.0815544396308
200,738.1032165965154
201,738.12467824975
202,738.1459058221692
203,738.1668665891632
204,738.18752874992
205,738.2078614920578
206,738.2278350496349
207,738.2474207545124
208,738.2665910809784
209,738.2853196834644
210,738.3035814271478
211,738.3213524112867
212,738.3386099852615
213,738.3553327573887
214,738.3715005965732
215,738.3870946267992
216,738.4020972144504
217,738.4164919485241
218,738.4302636139159
219,738.4433981580405
220,738.4558826511744
221,738.4677052410914
222,738.4788551027958
223,738.4893223843416
224,738.4990981498114
225,738.5081743204858
226,738.5165436150388
227,738.5241994893837
228,738.5311360766756
229,738.537348127986
230,738.5428309541608
231,738.5475803692715
232,738.551592635905
233,738.5548644123854
234,738.5573927019317
235,738.5591748037283
236,738.5602082660105
237,738.5604908414912
238,738.5600204457005
239,738.5587951189242
240,738.5568129924202
241,738.5540722595131
242,738.5505711521195
243,738.5463079232442
244,738.541280835958
245,738.5354881593092
246,738.5289281715652
247,738.5215991711733
248,738.5134994958644
249,738.5046275502987
250,738.4949818425284
251,738.484561029355
252,738.4733639704516
253,738.4613897909838
254,738.4486379523825
255,738.4351083308836
256,738.4208013033676
257,738.4057178398575
258,738.3898596018656
259,738.3732290457372
260,738.3558295302759
261,738.3376654280783
262,738.3187422399524
263,738.2990667114923
264,738.2786469504836
265,738.2574925435347
266,738.235614670255
267,738.213026213343
268,738.1897418630047
269,738.1657782141973
270,738.1411538552902
271,738.1158894468191
272,738.0900077890348
273,738.0635338769195
274,738.0364949413087
275,738.0089204747328
276,737.9808422406313
277,737.9522942647696
278,737.9233128080195
279,737.8939363201016
280,737.8642053743256
281,737.834162583716
282,737.8038524991407
283,737.7733214901931
284,737.7426176097022
285,737.7117904429354
286,737.6808909427957
287,737.6499712525438
288,737.6190845177553
289,737.588284689336
290,737.5576263194498
291,737.5271643522451
292,737.496953911349
293,737.4670500862267
294,737.4375077195193
295,737.4083811973203
296,737.3797242441287
297,737.3515897240853
298,737.324029450048
299,737.2970940020053
300,737.2708325561681
301,737.2452927258274
302,737.2205204147689
303,737.1965596837507
304,737.1734526303118
305,737.1512392819462
306,737.1299575024483
307,737.1096429110897
308,737.0903288143286
309,737.07204614999
310,737.0548234442023
311,737.0386867816022
312,737.0236597892282
313,737.0097636340612
314,736.9970170336026
315,736.985436278466
316,736.9750352657913
317,736.9658255422698
318,736.9578163555965
319,736.951014713215
320,736.9454254472909
321,736.9410512849655
322,736.9378929231439
323,736.9359491073063
324,736.935216714035
325,736.9356908370293
326,736.9373648763814
327,736.9402306308594
328,736.9442783929518
329,736.9494970464622
330,736.9558741664518
331,736.9633961212794
332,736.9720481764473
333,736.9818145999587
334,736.9926787689204
335,737.0046232771141
336,737.0176300431327
337,737.0316804184487
338,737.046755294564
339,737.0628352082315
340,737.0799004436317
341,737.0979311303782
342,737.1169073363067
343,737.1368091541228
344,737.1576167810675
345,737.1793105908216
346,737.2018711970311
347,737.2252795080873
348,737.2495167730613
349,737.2745646189086
350,737.300405079228
351,737.3270206149473
352,737.3543941273397
353,737.3825089638378
354,737.4113489172528
355,737.4408982191649
356,737.4711415283681
357,737.5020639153314
358,737.5336508437407
359,737.5658881502957
360,737.5987620240061
361,737.6322589862219
362,737.6663658725392
363,737.7010698175881
364,737.7363582435662
365,737.7722188532607
366,737.8086396281669
367,737.8456088321471
368,737.8831150208606
369,737.9211470570222
370,737.9596941314666
371,737.9987457899408
372,738.0382919653855
373,738.0783230151405
374,738.1188297621502
375,738.1598035389694
376,738.2012362331941
377,738.2431203327765
378,738.2854489695301
379,738.3282159590741
380,738.3714158355517
381,738.4150438796131
382,738.4590961382775
383,738.5035694353825
384,738.5484613714624
385,738.5937703120917
386,738.6394953639473
387,738.6856363380454
388,738.7321936998396
389,738.7791685062087
390,738.8265623297685
391,738.8743771712772
392,738.9226153610742
393,738.9712794505494
394,739.0203720946495
395,739.0698959265056
396,739.1198534254178
397,739.1702467796173
398,739.2210777453842
399,739.2723475041485
400,739.324056519146
401,739.3762043930597
402,739.4287897279887
403,739.4818099891654
404,739.5352613740472
405,739.5891386885921
406,739.6434352325708
407,739.6981426956588
408,739.753251065804
409,739.8087485509543
410,739.8646215146995
411,739.9208544259019
412,739.9774298221148
413,740.034328286499
414,740.0915284379385
415,740.1490069340058
416,740.2067384863561
417,740.2646958880997
418,740.3228500526848
419,740.3811700637734
420,740.4396232355056
421,740.4981751824953
422,740.5567898988752
423,740.615429845696
424,740.6740560459938
425,740.7326281868498
426,740.791104727759
427,740.8494430146271
428,740.9075993986913
429,740.9655293596004
430,741.0231876317981
431,741.0805283332629
432,741.137505095577
433,741.1940711942738
434,741.2501796785099
435,741.3057834993199
436,741.3608356359252
437,741.4152892196876
438,741.4690976553374
439,741.5222147391879
440,741.5745947742793
441,741.6261926827453
442,741.6769641160281
443,741.7268655637357
444,741.7758544619584
445,741.8238893017393
446,741.8709297381174
447,741.9169366997694
448,741.9618724989182
449,742.0057009409637
450,742.0483874332257
451,742.0898990922027
452,742.1302048488187
453,742.1692755511863
454,742.2070840644293
455,742.2436053670662
456,742.2788166433896
457,742.3126973711733
458,742.3452294038761
459,742.376397046376
460,742.4061871232295
461,742.4345890385304
462,742.4615948265546
463,742.487199192503
464,742.5113995428042
465,742.5341960046817
466,742.5555914349776
467,742.5755914184131
468,742.5942042555063
469,742.6114409403083
470,742.6273151281023
471,742.6418430933242
472,742.6550436781866
473,742.6669382327591
474,742.6775505474907
475,742.6869067792413
476,742.6950353717638
477,742.7019669713596
478,742.70773433825
479,742.7123722540894
480,742.715917426005
481,742.7184083875419
482,742.7198853968829
483,742.7203903326343
484,742.7199665872847
485,742.7186589583096
486,742.7165135369871
487,742.7135775953461
488,742.7098994721082
489,742.7055284587867
490,742.7005146871933
491,742.6949090194812
492,742.688762941529
493,742.6821284599504
494,742.6750580024083
495,742.667604320397
496,742.659820393384
497,742.6517593332189
498,742.643474287913
499,742.6350183441585
500,742.6264444281974
501,742.6178052048108
502,742.6091529742354
503,742.6005395667911
504,742.5920162349877
505,742.5836335429478
506,742.5754412531289
507,742.5674882105159
508,742.5598222246654
509,742.5524899501518
510,742.5455367660314
511,742.5390066548828
512,742.5329420818513
513,742.5273838740009
514,742.5223711001747
515,742.5179409514969
516,742.5141286226046
517,742.5109671936923
518,742.5084875135229
519,742.5067180837347
520,742.5056849450121
521,742.5054115659234
522,742.5059187353833
523,742.5072244597566
524,742.5093438655509
525,742.5122891085218
526,742.5160692899204
527,742.5206903806346
528,742.5261551541644
529,742.5324631296919
530,742.5396105268296
531,742.547590233768
532,742.5563917904158
533,742.5660013877588
534,742.5764018841783
535,742.5875728389676
536,742.5994905628164
537,742.6121281846162
538,742.6254557336405
539,742.639440236019
540,742.6540458244523
541,742.6692338602583
542,742.6849630670476
543,742.7011896754734
544,742.717867578569
545,742.7349484971824
546,742.7523821549659
547,742.770116462279
548,742.7880977082057
549,742.806270759697
550,742.8245792666854
551,742.8429658719514
552,742.8613724245852
553,742.8797401960616
554,742.8980100981338
555,742.9161229019218
556,742.9340194577045
557,742.9516409150127
558,742.9689289426404
559,742.9858259481557
560,743.0022752963972
561,743.0182215262809
562,743.0336105650059
563,743.0483899385194
564,743.0625089769331
565,743.075919013522
566,743.0885735759331
567,743.1004285682154
568,743.1114424422544
569,743.1215763572006
570,743.130794325593
571,743.139063345079
572,743.1463535149004
573,743.1526381366319
574,743.1578937989825
575,743.1621004467543
576,743.1652414342458
577,743.1673035634565
578,743.1682771073939
579,743.168155818615
580,743.1669369228977
581,743.1646210977381
582,743.161212435311
583,743.156718389664
584,743.1511497081591
585,743.1445203474277
586,743.1368473743129
587,743.1281508524193
588,743.1184537149918
589,743.1077816249236
590,743.096162822784
591,743.0836279638766
592,743.0702099454383
593,743.0559437251206
594,743.040866131825
595,743.0250156698424
596,743.0084323171668
597,742.9911573188812
598,742.9732329766717
599,742.9547024357557
600,742.9356094706909
601,742.9159982715801
602,742.8959132321177
603,742.8753987408699
604,742.8544989771693
605,742.8332577129706
606,742.8117181218778
607,742.7899225963832
608,742.76791257429
609,742.745728375345
610,742.7234090491586
611,742.7009922354164
612,742.6785140372622
613,742.6560089086356
614,742.6335095563074
615,742.6110468572891
616,742.588649792155
617,742.566345394592
618,742.5441587171792
619,742.5221128130464
620,742.50022873273
621,742.4785255353519
622,742.4570203131943
623,742.4357282288008
624,742.4146625637982
625,742.3938347786498
626,742.3732545825088
627,742.352930012295
628,742.3328675201243
629,742.3130720682921
630,742.2935472310909
631,742.274295302783
632,742.2553174110249
633,742.2366136349542
634,742.2181831270617
635,742.2000242379348
636,742.1821346429966
637,742.1645114704003
638,742.1471514292543
639,742.1300509373522
640,742.1132062475561
641,742.0966135719681
642,742.0802692029991
643,742.0641696304161
644,742.0483116533733
645,742.0326924863688
646,742.0173098579987
647,742.0021621012988
648,741.9872482344128
649,741.972568030413
650,741.9581220753697
651,741.9439118141179
652,741.9299395834403
653,741.916208632471
654,741.9027231300834
655,741.8894881590337
656,741.876509696778
657,741.8637945831223
658,741.8513504750855
659,741.839185789491
660,741.8273096338424
661,741.8157317259972
662,741.804462303073
663,741.7935120200095
664,741.7828918383431
665,741.7726129060425
666,741.7626864296172
667,741.7531235400322
668,741.743935154146
669,741.7351318333739
670,741.7267236410719
671,741.7187199998705
672,741.7111295499648
673,741.7039600092706
674,741.6972180363595
675,741.6909090971509
676,741.6850373364107
677,741.6796054551467
678,741.6746145950193
679,741.6700642309311
680,741.6659520730086
681,741.6622739791916
682,741.6590238795949
683,741.6561937137259
684,741.6537733814863
685,741.6517507086292
686,741.6501114270294
687,741.648839169869
688,741.6479154816632
689,741.6473198428895
690,741.6470297088063
691,741.6470205619066
692,741.6472659773771
693,741.6477377008695
694,741.6484057378173
695,741.6492384534904
696,741.6502026830341
697,741.6512638508373
698,741.6523860986724
699,741.6535324220927
700,741.654664814569
701,741.6557444188028
702,741.656731684638
703,741.6575865330565
704,741.658268525848
705,741.6587370405493
706,741.6589514500914
707,741.6588713063385
708,741.6584565264764
709,741.6576675810593
710,741.6564656824045
711,741.6548129719262
712,741.6526727050054
713,741.6500094321765
714,741.6467891756945
715,741.6429796008051
716,741.6385501812629
717,741.6334723588627
718,741.6277196969047
719,741.6212680275262
720,741.6140955927223
721,741.6061831787098
722,741.5975142431082
723,741.5880750342006
724,741.5778547013331
725,741.5668453953807
726,741.5550423582313
727,741.5424440003995
728,741.5290519661045
729,741.5148711852847
730,741.499909912057
731,741.4841797491107
732,741.4676956575942
733,741.4504759521865
734,741.4325422811759
735,741.4139195914128
736,741.3946360780235
737,741.3747231188345
738,741.3542151935684
739,741.3331497879002
740,741.3115672823347
741,741.2895108256665
742,741.2670261926623
743,741.2441616256882
744,741.220967660292
745,741.197496935172
746,741.1738039873759
747,741.1499450338458
748,741.12597774054
749,741.1019609804029
750,741.0779545815581
751,741.0540190673369
752,741.0302153900899
753,741.0066046610318
754,740.9832478785073
755,740.9602056570312
756,740.9375379593545
757,740.9153038337191
758,740.893561158414
759,740.8723663956954
760,740.8517743570511
761,740.8318379816055
762,740.8126081292231
763,740.7941333895985
764,740.7764599083338
765,740.7596312306222
766,740.7436881627146
767,740.7286686509628
768,740.7146076779985
769,740.7015371755102
770,740.6894859530724
771,740.6784796425561
772,740.668540657771
773,740.6596881690832
774,740.6519380927637
775,740.6453030947368
776,740.6397926082578
777,740.6354128648862
778,740.6321669380034
779,740.6300547980605
780,740.6290733787265
781,740.6292166530752
782,740.6304757188988
783,740.6328388921603
784,740.6362918074908
785,740.6408175244692
786,740.6463966382443
787,740.6530073930024
788,740.6606257969859
789,740.6692257381933
790,740.6787791003859
791,740.6892558793818
792,740.7006242997858
793,740.7128509322938
794,740.7259008116242
795,740.7397375550069
796,740.7543234809992
797,740.7696197281864
798,740.7855863731148
799,740.8021825467231
800,740.8193665486194
801,740.8370959586937
802,740.8553277456085
803,740.8740183716542
804,740.8931238933762
805,740.9126000573572
806,740.9324023905319
807,740.9524862844432
808,740.9728070728623
809,740.9933201021973
810,741.0139807941121
811,741.0347446998396
812,741.0555675458005
813,741.0764052702763
814,741.0972140510675
815,741.1179503243652
816,741.1385707954717
817,741.1590324424477
818,741.179292514167
819,741.1993085245529
820,741.2190382449069
821,741.238439696199
822,741.2574711430256
823,741.2760910906876
824,741.2942582864747
825,741.3119317257907
826,741.3290706632921
827,741.3456346288298
828,741.3615834477471
829,741.3768772650351
830,741.3914765729938
831,741.4053422423456
832,741.4184355570596
833,741.4307182533455
834,741.4421525632991
835,741.4527012635838
836,741.4623277293978
837,741.4709959938772
838,741.4786708129272
839,741.4853177351969
840,741.4909031765209
841,741.4953944978206
842,741.4987600853407
843,741.5009694322393
844,741.5019932208655
845,741.5018034053853
846,741.5003732946511
847,741.4976776352731
848,741.4936926947655
849,741.488396344484
850,741.4817681419255
851,741.4737894118468
852,741.4644433256104
853,741.4537149781922
854,741.4415914623886
855,741.4280619398692
856,741.4131177087868
857,741.3967522676213
858,741.3789613748635
859,741.3597431041123
860,741.3390978942208
861,741.317028594226
862,741.293540502862
863,741.2686414024165
864,741.2423415865937
865,741.2146538819493
866,741.1855936624712
867,741.1551788570683
868,741.1234299499864
869,741.0903699743371
870,741.0560244989306
871,741.02042160855
872,740.9835918778624
873,740.945568339254
874,740.9063864448584
875,740.8660840228007
876,740.8247012272975
877,740.7822804818871
878,740.7388664148214
879,740.6945057855784
880,740.6492474015483
881,740.6031420241743
882,740.5562422641344
883,740.5086024654363
884,740.4602785785027
885,740.4113280224836
886,740.3618095372028
887,740.3117830253703
888,740.2613093859861
889,740.2104503401615
890,740.1592682508422
891,740.1078259380342
892,740.0561864911557
893,740.0044130801596
894,739.9525687671033
895,739.9007163197957
896,739.8489180290387
897,739.7972355308714
898,739.7457296351452
899,739.6944601616788
900,739.6434857850601
901,739.5928638888389
902,739.5426504294778
903,739.49289981017
904,739.4436647646162
905,739.3949962510411
906,739.3469433569752
907,739.2995532154853
908,739.2528709335661
909,739.206939533307
910,739.1617999062472
911,739.1174907810282
912,739.0740487040856
913,739.0315080327787
914,738.9899009401037
915,738.9492574300244
916,738.9096053624705
917,738.8709704871821
