frame_number,force
0,735.0539331694816
1,735.0895787517383
2,735.1259475047086
3,735.1629637349054
4,735.2005509675406
5,735.2386321853601
6,735.2771300704081
7,735.3159672478007
8,735.3550665304725
9,735.394351163836
10,735.4337450694226
11,735.4731730868468
12,735.5125612136893
13,735.5518368429924
14,735.5909289979207
15,735.6297685628
16,735.6682885093734
17,735.7064241168633
18,735.7441131843794
19,735.7812962342942
20,735.8179167053061
21,735.8539211339996
22,735.8892593238369
23,735.9238845006669
24,735.9577534539443
25,735.9908266628414
26,736.0230684063558
27,736.0544468564648
28,736.084934153435
29,736.1145064625654
30,736.1431440118503
31,736.170831110193
32,736.1975561458432
33,736.2233115647988
34,736.2480938291625
35,736.2719033559073
36,736.2947444370765
37,736.3166251429517
38,736.3375572100232
39,736.3575559155964
40,736.3766399405918
41,736.3948312216809
42,736.4121547934951
43,736.4286386213106
44,736.444313424433
45,736.4592124904859
46,736.4733714809488
47,736.4868282285629
48,736.4996225275693
49,736.5117959180009
50,736.5233914652912
51,736.534453536283
52,736.545027572469
53,736.5551598611471
54,736.5648973052358
55,736.5742871927232
56,736.5833769669135
57,736.592213998649
58,736.6008453615278
59,736.6093176109505
60,736.6176765676856
61,736.6259671065844
62,736.6342329511003
63,736.6425164743862
64,736.6508585078172
65,736.6592981577566
66,736.6678726312691
67,736.6766170713598
68,736.6855644021688
69,736.6947451844245
70,736.7041874813609
71,736.7139167352484
72,736.7239556546809
73,736.7343241128192
74,736.7450390569567
75,736.7561144300533
76,736.7675611052036
77,736.7793868342306
78,736.7915962116062
79,736.804190654703
80,736.817168401189
81,736.8305245243267
82,736.8442509669674
83,736.8583365949543
84,736.8727672703496
85,736.8875259444222
86,736.9025927698679
87,736.9179452314379
88,736.9335582940463
89,736.9494045674037
90,736.9654544861658
91,736.9816765044259
92,736.9980373031833
93,737.014502009229
94,737.0310344237237
95,737.0475972585979
96,737.0641523788308
97,737.0806610487298
98,737.0970841804932
99,737.113382583469
100,737.1295172124954
101,737.1454494135936
102,737.1611411652317
103,737.1765553134568
104,737.1916557993462
105,737.2064078774238
106,737.2207783239317
107,737.2347356340937
108,737.2482502076433
109,737.2612945218843
110,737.2738432914687
111,737.2858736140265
112,737.2973651008273
113,737.3082999917391
114,737.3186632538561
115,737.3284426632796
116,737.3376288696924
117,737.3462154435373
118,737.3541989057852
119,737.3615787404552
120,737.3683573902179
121,737.374540235474
122,737.3801355571819
123,737.3851544834897
124,737.3896109201592
125,737.3935214649589
126,737.3969053065928
127,737.3997841091583
128,737.4021818835155
129,737.4041248472402
130,737.4056412750141
131,737.4067613413775
132,737.4075169577945
133,737.4079416059606
134,737.408070169152
135,737.4079387631618
136,737.407584568076
137,737.4070456619153
138,737.4063608569651
139,737.4055695393449
140,737.4047115120271
141,737.4038268411888
142,737.4029557055628
143,737.4021382483728
144,737.4014144314705
145,737.4008238914481
146,737.400405797731
147,737.4001987128877
148,737.4002404555703
149,737.4005679665978
150,737.4012171787537
151,737.4022228908416
152,737.403618646436
153,737.4054366176229
154,737.407707493944
155,737.4104603767413
156,737.4137226790622
157,737.4175200312059
158,737.4218761918695
159,737.4268129647769
160,737.4323501206583
161,737.4385053245496
162,737.4452940686391
163,737.4527296112415
164,737.4608229227903
165,737.4695826398927
166,737.4790150285249
167,737.489123957421
168,737.499910882625
169,737.5113748439578
170,737.5235124737794
171,737.5363180179864
172,737.5497833687702
173,737.5638981083474
174,737.578649562709
175,737.5940228644295
176,737.6100010236769
177,737.6265650066741
178,737.6436938209832
179,737.6613646071121
180,737.6795527360345
181,737.6982319122158
182,737.7173742816404
183,737.7369505442115
184,737.756930069842
185,737.7772810176333
186,737.7979704576998
187,737.81896449535
188,737.8402283973439
189,737.8617267198326
190,737.8834234374344
191,737.9052820727851
192,737.9272658258217
193,737.9493377019921
194,737.97146063852
195,737.9935976278035
196,738.0157118369925
197,738.0377667228386
198,738.0597261410776
199,738.0815544498475
200,738.1032166068663
201,738.1246782602351
202,738.1459058327868
203,738.1668665999097
204,738.1875287607903
205,738.207861503045
206,738.2278350607315
207,738.2474207657106
208,738.2665910922697
209,738.28531969484
210,738.3035814385981
211,738.3213524228016
212,738.33860999683
213,738.3553327689991
214,738.3715006082132
215,738.3870946384557
216,738.4020972261096
217,738.4164919601724
218,738.4302636255392
219,738.4433981696246
220,738.4558826627048
221,738.4677052525534
222,738.478855114176
223,738.4893223956276
224,738.4990981609923
225,738.5081743315519
226,738.5165436259822
227,738.5241995001977
228,738.5311360873544
229,738.5373481385246
230,738.5428309645556
231,738.5475803795207
232,738.5515926460084
233,738.5548644223448
234,738.5573927117499
235,738.5591748134095
236,738.5602082755602
237,738.560490850916
238,738.5600204550074
239,738.5587951281201
240,738.5568130015121
241,738.5540722685075
242,738.550571161023
243,738.5463079320629
244,738.5412808446974
245,738.5354881679746
246,738.5289281801608
247,738.5215991797033
248,738.5134995043327
249,738.5046275587085
250,738.4949818508833
251,738.4845610376582
252,738.4733639787063
253,738.4613897991924
254,738.4486379605462
255,738.4351083390029
256,738.4208013114417
257,738.405717847885
258,738.3898596098447
259,738.3732290536668
260,738.3558295381555
261,738.3376654359082
262,738.3187422477342
263,738.299066719229
264,738.2786469581791
265,738.2574925511942
266,738.2356146778849
267,738.2130262209504
268,738.1897418705971
269,738.1657782217826
270,738.1411538628761
271,738.1158894544133
272,738.0900077966452
273,738.0635338845547
274,738.0364949489777
275,738.0089204824452
276,737.9808422483975
277,737.9522942726011
278,737.923312815929
279,737.8939363281028
280,737.8642053824325
281,737.8341625919426
282,737.8038525075003
283,737.7733214986981
284,737.742617618364
285,737.7117904517643
286,737.6808909518013
287,737.6499712617347
288,737.619084527139
289,737.5882846989184
290,737.5576263292362
291,737.5271643622398
292,737.4969539215549
293,737.4670500966456
294,737.4375077301524
295,737.4083812081682
296,737.3797242551916
297,737.3515897353631
298,737.3240294615402
299,737.2970940137111
300,737.2708325680858
301,737.2452927379545
302,737.2205204271021
303,737.1965596962856
304,737.173452643043
305,737.1512392948675
306,737.1299575155522
307,737.1096429243677
308,737.0903288277713
309,737.0720461635874
310,737.0548234579436
311,737.0386867954762
312,737.0236598032228
313,737.0097636481638
314,736.9970170478001
315,736.9854362927447
316,736.975035280137
317,736.9658255566684
318,736.9578163700339
319,736.9510147276777
320,736.9454254617655
321,736.9410512994393
322,736.9378929376047
323,736.9359491217427
324,736.9352167284358
325,736.9356908513829
326,736.937364890677
327,736.9402306450872
328,736.9442784071024
329,736.9494970605267
330,736.9558741804219
331,736.9633961351478
332,736.9720481902084
333,736.981814613608
334,736.992678782454
335,737.0046232905294
336,737.0176300564274
337,737.0316804316207
338,737.0467553076118
339,737.0628352211536
340,737.0799004564273
341,737.0979311430474
342,737.1169073488506
343,737.1368091665436
344,737.1576167933672
345,737.1793106030019
346,737.2018712090928
347,737.2252795200308
348,737.2495167848866
349,737.2745646306163
350,737.300405090819
351,737.3270206264231
352,737.3543941387023
353,737.3825089750904
354,737.4113489283993
355,737.4408982302101
356,737.4711415393181
357,737.5020639261929
358,737.5336508545204
359,737.5658881609997
360,737.5987620346406
361,737.6322589967922
362,737.6663658830503
363,737.7010698280442
364,737.7363582539708
365,737.7722188636161
366,737.8086396384743
367,737.8456088424074
368,737.8831150310739
369,737.921147067188
370,737.9596941415832
371,737.9987458000055
372,738.0382919753947
373,738.0783230250903
374,738.1188297720358
375,738.1598035487855
376,738.2012362429347
377,738.2431203424356
378,738.2854489791026
379,738.328215968555
380,738.3714158449366
381,738.4150438888979
382,738.4590961474588
383,738.5035694444573
384,738.5484613804281
385,738.5937703209463
386,738.6394953726899
387,738.6856363466761
388,738.7321937083593
389,738.7791685146182
390,738.8265623380685
391,738.8743771794681
392,738.9226153691568
393,738.9712794585246
394,739.0203721025183
395,739.0698959342701
396,739.1198534330807
397,739.1702467871826
398,739.2210777528569
399,739.2723475115349
400,739.3240565264532
401,739.3762044002957
402,739.4287897351629
403,739.4818099962882
404,739.5352613811297
405,739.5891386956455
406,739.6434352396061
407,739.6981427026866
408,739.7532510728349
409,739.8087485579991
410,739.8646215217689
411,739.9208544330068
412,739.9774298292663
413,740.034328293709
414,740.0915284452199
415,740.1490069413716
416,740.2067384938193
417,740.2646958956731
418,740.3228500603806
419,740.3811700716034
420,740.4396232434812
421,740.4981751906278
422,740.5567899071756
423,740.6154298541743
424,740.6740560546593
425,740.7326281957107
426,740.7911047368225
427,740.8494430238991
428,740.9075994081763
429,740.9655293693014
430,741.0231876417163
431,741.0805283433976
432,741.1375051059262
433,741.1940712048334
434,741.2501796892744
435,741.305783510282
436,741.3608356470759
437,741.4152892310163
438,741.4690976668328
439,741.5222147508376
440,741.5745947860697
441,741.6261926946626
442,741.6769641280578
443,741.7268655758628
444,741.7758544741673
445,741.8238893140141
446,741.8709297504422
447,741.9169367121289
448,741.9618725112973
449,742.0057009533481
450,742.048387445601
451,742.0898991045551
452,742.1302048611348
453,742.1692755634529
454,742.2070840766336
455,742.243605379196
456,742.2788166554336
457,742.312697383121
458,742.3452294157174
459,742.3763970581011
460,742.4061871348291
461,742.4345890499956
462,742.461594837877
463,742.4871992036744
464,742.5113995538165
465,742.5341960155275
466,742.5555914456504
467,742.5755914289076
468,742.5942042658186
469,742.6114409504354
470,742.627315138042
471,742.6418431030752
472,742.6550436877483
473,742.6669382421316
474,742.6775505566754
475,742.6869067882412
476,742.6950353805825
477,742.7019669800021
478,742.7077343467231
479,742.7123722624015
480,742.7159174341657
481,742.7184083955611
482,742.7198854047712
483,742.7203903404019
484,742.719966594942
485,742.718658965868
486,742.7165135444593
487,742.7135776027454
488,742.7098994794485
489,742.7055284660823
490,742.7005146944588
491,742.6949090267317
492,742.6887629487804
493,742.6821284672196
494,742.6750580097134
495,742.667604327757
496,742.6598204008184
497,742.6517593407475
498,742.643474295556
499,742.6350183519364
500,742.6264444361319
501,742.617805212924
502,742.6091529825502
503,742.6005395753306
504,742.5920162437748
505,742.5836335520046
506,742.5754412624757
507,742.5674882201712
508,742.5598222346463
509,742.5524899604741
510,742.5455367767095
511,742.5390066659295
512,742.5329420932778
513,742.527383885816
514,742.5223711123843
515,742.5179409641047
516,742.514128635612
517,742.5109672070986
518,742.5084875273252
519,742.5067180979274
520,742.5056849595873
521,742.5054115808707
522,742.505918750691
523,742.5072244754114
524,742.509343881538
525,742.5122891248255
526,742.5160693065238
527,742.5206903975194
528,742.526155171311
529,742.5324631470797
530,742.5396105444366
531,742.547590251571
532,742.556391808391
533,742.5660014058823
534,742.5764019024255
535,742.5875728573134
536,742.5994905812358
537,742.612128203085
538,742.6254557521354
539,742.6394402545177
540,742.6540458429331
541,742.6692338787011
542,742.6849630854337
543,742.7011896937852
544,742.7178675967903
545,742.7349485152984
546,742.7523821729634
547,742.7701164801472
548,742.788097725936
549,742.806270777283
550,742.8245792841223
551,742.8429658892353
552,742.8613724417136
553,742.8797402130332
554,742.8980101149488
555,742.9161229185813
556,742.9340194742106
557,742.9516409313682
558,742.968928958849
559,742.9858259642216
560,743.0022753123246
561,743.0182215420734
562,743.0336105806662
563,743.0483899540486
564,743.0625089923315
565,743.0759190287897
566,743.0885735910703
567,743.1004285832228
568,743.111442457133
569,743.1215763719514
570,743.130794340217
571,743.139063359577
572,743.1463535292728
573,743.1526381508789
574,743.1578938131048
575,743.1621004607532
576,743.165241448123
577,743.1673035772137
578,743.1682771210325
579,743.1681558321355
580,743.1669369363012
581,743.1646211110262
582,743.1612124484858
583,743.1567184027278
584,743.1511497211144
585,743.1445203602774
586,743.1368473870605
587,743.1281508650688
588,743.1184537275484
589,743.1077816373935
590,743.0961628351746
591,743.0836279761961
592,743.0702099576955
593,743.055943737325
594,743.0408661439866
595,743.0250156819714
596,743.008432329273
597,742.9911573309744
598,742.9732329887619
599,742.9547024478527
600,742.9356094828049
601,742.915998283722
602,742.8959132442995
603,742.8753987531036
604,742.8544989894664
605,742.833257725342
606,742.8117181343342
607,742.7899226089351
608,742.7679125869462
609,742.7457283881129
610,742.7234090620437
611,742.7009922484233
612,742.6785140503932
613,742.6560089218906
614,742.6335095696838
615,742.6110468707825
616,742.5886498057591
617,742.5663454082988
618,742.5441587309797
619,742.5221128269299
620,742.5002287466846
621,742.4785255493641
622,742.4570203272488
623,742.4357282428798
624,742.414662577882
625,742.3938347927169
626,742.373254596536
627,742.3529300262574
628,742.3328675339959
629,742.3130720820461
630,742.2935472446998
631,742.2742953162189
632,742.25531742426
633,742.2366136479626
634,742.2181831398191
635,742.2000242504189
636,742.1821346551876
637,742.1645114822804
638,742.1471514408081
639,742.130050948566
640,742.1132062584184
641,742.0966135824684
642,742.0802692131293
643,742.0641696401699
644,742.0483116627461
645,742.0326924953579
646,742.0173098666036
647,742.0021621095209
648,741.987248242255
649,741.9725680378791
650,741.958122082464
651,741.9439118208447
652,741.9299395898048
653,741.9162086384792
654,741.9027231357429
655,741.8894881643538
656,741.8765097017699
657,741.8637945877996
658,741.8513504794638
659,741.8391857935871
660,741.8273096376738
661,741.8157317295818
662,741.804462306429
663,741.7935120231552
664,741.7828918412969
665,741.7726129088223
666,741.7626864322413
667,741.7531235425188
668,741.7439351565148
669,741.7351318356455
670,741.7267236432675
671,741.7187200020119
672,741.711129552074
673,741.7039600113695
674,741.6972180384694
675,741.690909099292
676,741.6850373386019
677,741.6796054574064
678,741.6746145973656
679,741.6700642333817
680,741.6659520755815
681,741.6622739819043
682,741.659023882464
683,741.6561937167668
684,741.6537733847135
685,741.6517507120567
686,741.6501114306699
687,741.6488391737337
688,741.6479154857612
689,741.6473198472279
690,741.6470297133899
691,741.6470205667383
692,741.6472659824577
693,741.6477377061976
694,741.6484057433889
695,741.6492384592988
696,741.650202689069
697,741.651263857086
698,741.6523861051195
699,741.6535324287207
700,741.6546648213588
701,741.6557444257339
702,741.6567316916886
703,741.6575865402037
704,741.6582685330685
705,741.6587370478196
706,741.6589514573884
707,741.6588713136399
708,741.6584565337608
709,741.6576675883064
710,741.6564656895954
711,741.6548129790438
712,741.6526727120341
713,741.6500094391026
714,741.6467891825064
715,741.6429796074931
716,741.6385501878198
717,741.6334723652835
718,741.6277197031869
719,741.6212680336697
720,741.614095598729
721,741.6061831845831
722,741.597514248852
723,741.5880750398196
724,741.5778547068321
725,741.5668454007649
726,741.5550423635062
727,741.5424440055715
728,741.5290519711804
729,741.5148711902721
730,741.4999099169642
731,741.4841797539469
732,741.4676956623689
733,741.4504759569091
734,741.4325422858559
735,741.41391959606
736,741.394636082648
737,741.3747231234468
738,741.3542151981793
739,741.3331497925207
740,741.3115672869757
741,741.2895108303388
742,741.2670261973767
743,741.2441616304553
744,741.2209676651222
745,741.1974969400751
746,741.17380399236
747,741.149945038918
748,741.125977745706
749,741.1019609856678
750,741.0779545869264
751,741.054019072812
752,741.0302153956746
753,741.0066046667281
754,740.9832478843158
755,740.9602056629515
756,740.9375379653854
757,740.9153038398596
758,740.8935611646626
759,740.872366402051
760,740.851774363512
761,740.831837988171
762,740.8126081358927
763,740.7941333963729
764,740.7764599152142
765,740.75963123761
766,740.7436881698114
767,740.7286686581705
768,740.7146076853192
769,740.7015371829463
770,740.6894859606267
771,740.6784796502321
772,740.6685406655729
773,740.6596881770159
774,740.6519381008325
775,740.6453031029471
776,740.6397926166147
777,740.6354128733947
778,740.6321669466677
779,740.6300548068842
780,740.6290733877123
781,740.6292166622247
782,740.6304757282124
783,740.6328389016375
784,740.6362918171304
785,740.6408175342712
786,740.6463966482094
787,740.6530074031325
788,740.6606258072836
789,740.6692257486626
790,740.6787791110312
791,740.6892558902075
792,740.7006243107959
793,740.7128509434916
794,740.7259008230121
795,740.7397375665857
796,740.7543234927679
797,740.7696197401417
798,740.7855863852511
799,740.8021825590323
800,740.8193665610912
801,740.837095971316
802,740.8553277583678
803,740.8740183845356
804,740.8931239063648
805,740.9126000704382
806,740.9324024036911
807,740.9524862976668
808,740.9728070861374
809,740.9933201155119
810,741.0139808074548
811,741.0347447132001
812,741.0555675591694
813,741.0764052836453
814,741.0972140644291
815,741.1179503377126
816,741.1385708087988
817,741.1590324557492
818,741.1792925274381
819,741.1993085377896
820,741.2190382581063
821,741.2384397093585
822,741.2574711561434
823,741.2760911037616
824,741.2942582995024
825,741.3119317387697
826,741.3290706762197
827,741.3456346417032
828,741.3615834605635
829,741.376877277791
830,741.3914765856852
831,741.4053422549679
832,741.4184355696077
833,741.4307182658138
834,741.442152575682
835,741.452701275876
836,741.4623277415949
837,741.4709960059755
838,741.478670824924
839,741.4853177470894
840,741.490903188306
841,741.4953945094952
842,741.498760096902
843,741.5009694436842
844,741.5019932321908
845,741.5018034165879
846,741.5003733057282
847,741.4976776462224
848,741.4936927055852
849,741.4883963551731
850,741.4817681524838
851,741.4737894222748
852,741.4644433359085
853,741.4537149883614
854,741.4415914724298
855,741.428061949783
856,741.4131177185731
857,741.3967522772796
858,741.3789613843935
859,741.3597431135141
860,741.3390979034943
861,741.3170286033716
862,741.2935405118798
863,741.2686414113062
864,741.2423415953556
865,741.2146538905828
866,741.1855936709758
867,741.1551788654439
868,741.1234299582333
869,741.0903699824563
870,741.0560245069232
871,741.0204216164173
872,740.9835918856049
873,740.9455683468725
874,740.9063864523538
875,740.8660840301743
876,740.8247012345512
877,740.782280489023
878,740.7388664218419
879,740.6945057924864
880,740.6492474083478
881,740.6031420308698
882,740.5562422707312
883,740.5086024719409
884,740.4602785849222
885,740.4113280288259
886,740.3618095434758
887,740.3117830315825
888,740.2613093921459
889,740.210450346278
890,740.1592682569257
891,740.1078259440965
892,740.0561864972099
893,740.0044130862207
894,739.9525687731875
895,739.90071632592
896,739.848918035221
897,739.7972355371297
898,739.7457296414972
899,739.6944601681412
900,739.643485791649
901,739.5928638955704
902,739.5426504363674
903,739.4928998172317
904,739.4436647718625
905,739.3949962584829
906,739.3469433646216
907,739.2995532233435
908,739.2528709416421
909,739.2069395416049
910,739.1617999147701
911,739.1174907897775
912,739.0740487130615
913,739.0315080419797
914,738.9899009495265
915,738.9492574396644
916,738.9096053723216
917,738.8709704972373
