frame_number,force
0,613.329110000009
1,612.9211709997544
2,612.5258232370455
3,612.1549149310366
4,611.8189071364544
5,611.5263794297997
6,611.2836801744171
7,611.0946911517365
8,610.9606915385791
9,610.8803382342303
10,610.8497957989294
11,610.8630383443611
12,610.9123175125872
13,610.988753667099
14,611.0829716996692
15,611.1856915419706
16,611.288209250497
17,611.3827488887077
18,611.4627017176343
19,611.5227884001666
20,611.5591825811707
21,611.5696175879457
22,611.5534631219308
23,611.5117216714019
24,611.4468818381645
25,611.3625953108271
26,611.2632056266677
27,611.1532173472441
28,611.0368216476803
29,610.9175746306628
30,610.7982675067391
31,610.6809628191156
32,610.5671305704168
33,610.4578149073477
34,610.3537844929217
35,610.255647194354
36,610.1639259291774
37,610.0790926375621
38,610.0015498274599
39,609.9315489737944
40,609.869053229613
41,609.8135854204857
42,609.764129618753
43,609.7191503860917
44,609.6767552798341
45,609.634975407687
46,609.5920969219939
47,609.5469533704982
48,609.499096501778
49,609.4488102762355
50,609.3970008743112
51,609.3450413329844
52,609.2946432591066
53,609.2477803486288
54,609.2066373556622
55,609.1735354418441
56,609.1507965493246
57,609.1405434415886
58,609.1444716724634
59,609.163656400412
60,609.1984509914387
61,609.2484900036834
62,609.3127518019021
63,609.3896093480126
64,609.4768236841103
65,609.5714914598221
66,609.6700027466268
67,609.7680767249675
68,609.860929849592
69,609.9436046682357
70,610.0114448298053
71,610.0606465514093
72,610.0887731265374
73,610.0951145828599
74,610.0808146350446
75,610.0487515843372
76,610.003222818688
77,609.949524824248
78,609.8935279116583
79,609.8413143037078
80,609.7988977195373
81,609.771998097094
82,609.7658205080046
83,609.784785929907
84,609.8321854358239
85,609.909774027585
86,610.0173694043292
87,610.152556299445
88,610.3106067168346
89,610.4847009256384
90,610.6664709504698
91,610.8468062109686
92,611.0167937764189
93,611.1686369688537
94,611.2964082713654
95,611.3965353973251
96,611.4679762878818
97,611.512091281965
98,611.5322580017114
99,611.5332975015853
100,611.5207941890615
101,611.5004000978804
102,611.4772163086162
103,611.4553328011701
104,611.4375704027827
105,611.4254128632929
106,611.4190798037633
107,611.4176996559305
108,611.4195803690914
109,611.4225992152905
110,611.4247065946766
111,611.4244711035931
112,611.4215338044679
113,611.4168359534708
114,611.412540641247
115,611.4116523946974
116,611.4174180143895
117,611.4326507784989
118,611.4591439159028
119,611.4973116682397
120,611.546121100849
121,611.6032913960803
122,611.6656837372794
123,611.7297957103364
124,611.7922856812958
125,611.8504603622473
126,611.9026560026145
127,611.9484372286389
128,611.9885475293853
129,612.0245910733495
130,612.0584979005947
131,612.0918888578759
132,612.1254857562956
133,612.1587050129552
134,612.1895404991656
135,612.214786295886
136,612.2305730309232
137,612.2331097689921
138,612.2194673554159
139,612.1882329097399
140,612.1399135953435
141,612.0770445051302
142,612.0040144388013
143,611.9266467306472
144,611.8515890680042
145,611.7856004933292
146,611.7348530401056
147,611.7043539828944
148,611.6975451684923
149,611.7160854048982
150,611.7597954238403
151,611.8267355047705
152,611.9133816673187
153,612.0148696366173
154,612.1252883382696
155,612.2380198163845
156,612.3461313341455
157,612.4428180178058
158,612.5218688654542
159,612.578104743997
160,612.6077379591201
161,612.6086256142873
162,612.5804073276624
163,612.524520468585
164,612.4440871754414
165,612.343676974708
166,612.228957827538
167,612.1062524184958
168,611.982024425358
169,611.8623360355134
170,611.7523376695491
171,611.6558604266058
172,611.57516465236
173,611.5108577398757
174,611.4619612355409
175,611.42610126862
176,611.3998028434844
177,611.378868618774
178,611.3588176037985
179,611.335353490514
180,611.3048228879138
181,611.2646128159882
182,611.2134341026992
183,611.1514453958929
184,611.080185536372
185,611.0023016063766
186,610.9210998464141
187,610.840006395645
188,610.7620689199528
189,610.6896205012323
190,610.624168202539
191,610.5664972154319
192,610.5169245718862
193,610.4756011197558
194,610.4427505316498
195,610.4187548144898
196,610.4040464466717
197,610.3988391578526
198,610.4028008324467
199,610.4148046250002
200,610.432859307534
201,610.454235876789
202,610.4757314442064
203,610.4939853958132
204,610.5057813528795
205,610.508295982875
206,610.4992670825892
207,610.4770588200935
208,610.4406276562747
209,610.3894356242574
210,610.3233822053649
211,610.2428073107941
212,610.148567566675
213,610.0421358621984
214,609.9256510261084
215,609.8018699260524
216,609.6740315728408
217,609.5456864100254
218,609.4205443195344
219,609.3023606321909
220,609.1948411200617
221,609.1015320157395
222,609.0256744778005
223,608.9700263413257
224,608.9366707644001
225,608.9268424421809
226,608.9408086135976
227,608.9778308421154
228,609.0361962872445
229,609.1132659727969
230,609.2054853639511
231,609.3083591379536
232,609.4164697171959
233,609.523648487868
234,609.6233578817794
235,609.7092510838322
236,609.7758110993497
237,609.8189604936186
238,609.8365541131001
239,609.828688730878
240,609.797784534244
241,609.7484287198927
242,609.6870144927196
243,609.6212280308397
244,609.5594180514078
245,609.5098590848123
246,609.4799343211799
247,609.475321369511
248,609.4993217864862
249,609.5524825189651
250,609.6325992913214
251,609.7350986802346
252,609.8537144794009
253,609.9813293363312
254,610.110838136862
255,610.2358952065472
256,610.3514364378813
257,610.4539232792023
258,610.5413238120586
259,610.6128986466748
260,610.6688770133958
261,610.7100986273156
262,610.7376824712243
263,610.7527752766483
264,610.7564212357998
265,610.749570005384
266,610.7332030136128
267,610.7085186626637
268,610.6770939786054
269,610.6409506189157
270,610.6024918009421
271,610.5643186984607
272,610.5289638281953
273,610.4985975173386
274,610.4747727686407
275,610.4582651611968
276,610.449037528596
277,610.4463284520497
278,610.4488426934633
279,610.4550111214884
280,610.4632782646813
281,610.4723634955218
282,610.4814392647961
283,610.4901903135742
284,610.498752306839
285,610.5075539852686
286,610.5170977257208
287,610.5277219597435
288,610.5394002886911
289,610.5516356222843
290,610.5634922760457
291,610.5737730490282
292,610.581301811306
293,610.5852377686126
294,610.5853432441884
295,610.5821444400627
296,610.5769454285319
297,610.5716784552797
298,610.5686076657901
299,610.5699438408185
300,610.5774554668219
301,610.592159719754
302,610.6141465078404
303,610.6425515665082
304,610.6756734035325
305,610.7112213683778
306,610.746669883164
307,610.7796720253433
308,610.8084678484216
309,610.8322219433132
310,610.851239051536
311,610.8670247094605
312,610.8821742396644
313,610.9000937942469
314,610.9245886490365
315,610.9593899478988
316,611.0077075215089
317,611.0718727289974
318,611.1530848894296
319,611.2512389816528
320,611.3648174414419
321,611.490861558899
322,611.6250603900305
323,611.7619806204672
324,611.8954186146684
325,612.0188218664481
326,612.1257281904324
327,612.2102004606311
328,612.2672599516056
329,612.2933141444481
330,612.2865397978305
331,612.2471545719693
332,612.1775189651412
333,612.0820446658936
334,611.9669133663735
335,611.8396202875631
336,611.7083679790388
337,611.581361936652
338,611.4660870818406
339,611.3686568643153
340,611.29332395592
341,611.2422202941453
342,611.2153456857163
343,611.2107637140701
344,611.2249302220306
345,611.2530888656258
346,611.2896973789409
347,611.3288713365189
348,611.3648412518628
349,611.3924133767599
350,611.4074073245409
351,611.4070240495747
352,611.390087239587
353,611.3571065164307
354,611.3101319352986
355,611.2524010407736
356,611.1878165027557
357,611.1203303705901
358,611.0533440811
359,610.9892470625314
360,610.9291942366181
361,610.8731628041063
362,610.8202545391921
363,610.7691526998756
364,610.7186194995317
365,610.6679288915036
366,610.6171572248323
367,610.5672858710496
368,610.5200993728334
369,610.4778957601967
370,610.4430630964871
371,610.4176066987873
372,610.4027249951426
373,610.3985258536856
374,610.4039483753542
375,610.4169102172192
376,610.4346471303332
377,610.454165005899
378,610.4727044924306
379,610.4881347521294
380,610.4992314314852
381,610.505822883809
382,610.5087941341542
383,610.5099405948476
384,610.5116900194239
385,610.5167557577695
386,610.527809539422
387,610.547237906847
388,610.57698437797
389,610.6184255185918
390,610.6722233181291
391,610.7381394782418
392,610.8148556476323
393,610.8998775627634
394,610.9895918709055
395,611.0795010923833
396,611.1646067672457
397,611.2398660915081
398,611.3006345766964
399,611.3430348460131
400,611.364239278677
401,611.3626838911493
402,611.3382224953535
403,611.2922008871681
404,611.2274160312296
405,611.1479418678824
406,611.058833858169
407,610.9657407333191
408,610.8744507269489
409,610.7903997295609
410,610.7181803706902
411,610.6611053790305
412,610.6208857824073
413,610.5974833495335
414,610.58918639172
415,610.5929306949914
416,610.604836777444
417,610.6208737423337
418,610.6375185621991
419,610.6522793591656
420,610.6639903134184
421,610.6728464530692
422,610.680204966475
423,610.6882150461794
424,610.6993455177387
425,610.715870278986
426,610.7393639882997
427,610.770269349833
428,610.8076203392702
429,610.849016265525
430,610.8909093270881
431,610.9291877848783
432,610.9599365774521
433,610.980187257851
434,610.9884727030425
435,610.9850841443974
436,610.9720448107694
437,610.9528974935449
438,610.9324095320169
439,610.9162430928588
440,610.91057552265
441,610.9216312028416
442,610.955113846545
443,611.0155839740371
444,611.1058773592214
445,611.226682700844
446,611.3763792644155
447,611.5511808741519
448,611.7455608508407
449,611.9528685915338
450,612.166012302224
451,612.3780830070202
452,612.5828239324495
453,612.7748864499033
454,612.949850633493
455,613.1040341556281
456,613.2341676625823
457,613.3370567123659
458,613.4093604375545
459,613.447593297023
460,613.4484016961242
461,613.4090872017241
462,613.3282669483174
463,613.2065167592943
464,613.0468481018759
465,612.8549072686031
466,612.6388315079083
467,612.4087493478937
468,612.1759737849814
469,611.9519941400611
470,611.7474045082953
471,611.5709091751039
472,611.4285304778779
473,611.3231212875143
474,611.2542492449215
475,611.2184676931548
476,611.209920647464
477,611.2211623286246
478,611.2440387399575
479,611.2705005898674
480,611.2932700352172
481,611.3063287721683
482,611.3052252353167
483,611.2872217782847
484,611.2513074809824
485,611.1980871440499
486,611.1295516612929
487,611.0487570266819
488,610.9594654256067
489,610.865803369839
490,610.7719708798262
491,610.6820126340394
492,610.5996472878211
493,610.5281426003265
494,610.4702192210178
495,610.4279665853448
496,610.4027607572373
497,610.395184083746
498,610.4049587842501
499,610.4309183651909
500,610.4710433042021
501,610.5225721549111
502,610.5821735968099
503,610.6461523238903
504,610.7106727555475
505,610.7720021966699
506,610.8267779235641
507,610.87228567081
508,610.9067061737688
509,610.9292576835937
510,610.9401633204383
511,610.94042077147
512,610.9314290460326
513,610.914583532063
514,610.8909495376838
515,610.861074139323
516,610.8249386510079
517,610.7820250916881
518,610.7314709019709
519,610.6722933354391
520,610.6036627157799
521,610.5251948816169
522,610.4372197024944
523,610.340964165057
524,610.2385836985327
525,610.1330100371542
526,610.0276502334652
527,609.9260275046619
528,609.8314687644018
529,609.7469156273415
530,609.6748787976962
531,609.6174890771266
532,609.5765526569071
533,609.5535206439572
534,609.5493286263212
535,609.5641223609234
536,609.596937288033
537,609.6454359819312
538,609.7058225719621
539,609.7730308582613
540,609.8412125453904
541,609.9044513914405
542,609.9575463894196
543,609.9966876509927
544,610.0198957774925
545,610.027173722247
546,610.020391474713
547,610.00296642415
548,609.9794098015742
549,609.9547966482482
550,609.9342077629916
551,609.9221936230423
552,609.9223133299922
553,609.9368032823503
554,609.9664266797344
555,610.010531519921
556,610.0672983808421
557,610.1341125239594
558,610.2079726770231
559,610.2858545323782
560,610.3649681289068
561,610.4428770538294
562,610.5174844813579
563,610.5869307638914
564,610.6494716397342
565,610.7034002576308
566,610.7470433323831
567,610.7788202310618
568,610.7973248096852
569,610.8013875350694
570,610.7901008876818
571,610.7628286406449
572,610.719243061897
573,610.6594260799359
574,610.5840385902216
575,610.4945295146684
576,610.3933381266697
577,610.284038637836
578,610.1713799931728
579,610.0611865534844
580,609.9601056687312
581,609.8752059253437
582,609.813439189124
583,609.7809932709195
584,609.7825940232503
585,609.8208525142459
586,609.8957659120854
587,610.0044643691859
588,610.1412679973699
589,610.298083944464
590,610.4651258845483
591,610.6318814049786
592,610.7882020668002
593,610.9253568089844
594,611.0368841815688
595,611.119117367129
596,611.1713324168063
597,611.1955544991314
598,611.1961196036249
599,611.1791131327326
600,611.1517833299574
601,611.1219662854375
602,611.0974999420077
603,611.0855898655444
604,611.0921268324247
605,611.121018865926
606,611.173654144905
607,611.2486271789098
608,611.3418222785392
609,611.4468670306779
610,611.5558834244414
611,611.6604137308249
612,611.7523885703323
613,611.8250128086554
614,611.8734546402198
615,611.8952462119377
616,611.8903568656002
617,611.8609729897188
618,611.8110790806547
619,611.7459546714932
620,611.6716779329413
621,611.5946770244088
622,611.5213187459183
623,611.4574946898462
624,611.4081762810304
625,611.3769588026753
626,611.3656714149041
627,611.3741595760852
628,611.4003300331634
629,611.4404917033288
630,611.489948127656
631,611.5437259259336
632,611.5972847895246
633,611.6470607755579
634,611.6907447218948
635,611.7272793610274
636,611.756642735879
637,611.7795325143711
638,611.7970558144357
639,611.8104778683871
640,611.8210296738278
641,611.8297548337819
642,611.8373920049677
643,611.844313965818
644,611.8505525554195
645,611.855925895043
646,611.8602533140988
647,611.8636030711496
648,611.8664891554295
649,611.8699374541997
650,611.8753834245008
651,611.8844268247874
652,611.8985231429004
653,611.9187070198864
654,611.9454129784671
655,611.9784083541473
656,612.016820812514
657,612.0592399275399
658,612.1038773672881
659,612.1487645191438
660,612.1919553839477
661,612.2316992578798
662,612.2665556856567
663,612.2954396975092
664,612.3176012773685
665,612.3325509279418
666,612.3399423678884
667,612.3394250932262
668,612.3304931764295
669,612.312373245787
670,612.2839936497951
671,612.2440514124027
672,612.1911601176249
673,612.124043597123
674,612.0417444902783
675,611.943827249756
676,611.8305519234757
677,611.7029827531245
678,611.5629990686189
679,611.4132046444038
680,611.2567659779437
681,611.0972227378325
682,610.938296279305
683,610.7836952387648
684,610.6369146920463
685,610.5010528106984
686,610.3786883015475
687,610.2718389594415
688,610.1819734239841
689,610.1100201771533
690,610.0563294366879
691,610.0205781327817
692,610.0016449493452
693,609.9975142161991
694,610.0052852318132
695,610.0213501167982
696,610.041755030112
697,610.062700676855
698,610.0811003049531
699,610.0951066579144
700,610.104526490553
701,610.1110435280774
702,610.1181750793102
703,610.1309186869789
704,610.1551101644413
705,610.196587071522
706,610.260296137406
707,610.349484419384
708,610.4650861010477
709,610.6053833507756
710,610.7659910348507
711,610.9401859439569
712,611.119561642016
713,611.2949378996816
714,611.4574010881122
715,611.5993186880478
716,611.7151704375943
717,611.8020684794172
718,611.8598850778932
719,611.8909607284448
720,611.8994343880769
721,611.8903190309588
722,611.8685098303583
723,611.8379274315585
724,611.8009618415516
725,611.7583101161574
726,611.7092139616018
727,611.6520240423018
728,611.5849636045368
729,611.5069408779392
730,611.4182654315092
731,611.3211499084459
732,611.2199136607977
733,611.1208417960388
734,611.0316922838045
735,610.9608897789901
736,610.9165023926165
737,610.9051600290351
738,610.9311127049107
739,610.9956105589137
740,611.096707986135
741,611.2294881073148
742,611.3866183019799
743,611.5591062779531
744,611.7371243937271
745,611.9107942088086
746,612.0708642213879
747,612.2092609736791
748,612.3195297622066
749,612.3971916409666
750,612.4400270753422
751,612.4482626744292
752,612.4246025182468
753,612.3740349886032
754,612.3033785001511
755,612.2205935627189
756,612.1339497514991
757,612.0511676308954
758,611.9786496189885
759,611.9208800533974
760,611.880040373962
761,611.8558718782954
762,611.8458135019295
763,611.8454160565445
764,611.8489849482379
765,611.8503569482847
766,611.8436892146478
767,611.8241285830861
768,611.7882464304771
769,611.7341893942557
770,611.6615949844751
771,611.5713943994873
772,611.4656226812164
773,611.3472914376949
774,611.2203089643356
775,611.0893965630344
776,610.9599447276677
777,610.8377606981961
778,610.7286787943062
779,610.6380447365802
780,610.5701351368962
781,610.5276086768351
782,610.5110906117573
783,610.5189690427461
784,610.5474410355463
785,610.590802657249
786,610.6419408702138
787,610.6929637410981
788,610.7359010739539
789,610.7634163632525
790,610.7694764954208
791,610.7499106992432
792,610.7027682779515
793,610.6283958862618
794,610.5292130604636
795,610.4092363488606
796,610.2734535932714
797,610.1271757563428
798,609.9754960634398
799,609.8229560283188
800,609.6734531326082
801,609.5303462327048
802,609.3966546475866
803,609.2752314083622
804,609.1688270807546
805,609.0800285885435
806,609.0111186442642
807,608.9639188465304
808,608.9396488448688
809,608.9387954125334
810,608.960984050699
811,609.0048772894617
812,609.0681436994598
813,609.1475268878736
814,609.239013663882
815,609.3380800986264
816,609.4399880116082
817,609.5401050749898
818,609.6342208636731
819,609.7188261015214
820,609.7913227974691
821,609.850148049942
822,609.8948120414994
823,609.9258536310653
824,609.9447132293044
825,609.953534976029
826,609.9549364713922
827,609.951794245525
828,609.9470678403752
829,609.9436431149691
830,609.9441515749114
831,609.9507343634655
832,609.9647580632477
833,609.9865349284266
834,610.0151318659906
835,610.0483514807236
836,610.0829302620402
837,610.1149457708382
838,610.1403876926335
839,610.155827865552
840,610.1590939015218
841,610.1498084487645
842,610.1296492192678
843,610.1022521372084
844,610.0727949890301
845,610.0473933174047
846,610.0324634095316
847,610.0341557551745
848,610.0578765560854
849,610.1078552993553
850,610.1867207590485
851,610.295103395969
852,610.431344714938
853,610.5914211445469
854,610.7691599667402
855,610.9567492669769
856,611.1454619619639
857,611.3264624453783
858,611.4915562051211
859,611.633775339426
860,611.7477563022161
861,611.8299340263134
862,611.8786112215352
863,611.8939475298922
864,611.8778756287699
865,611.8339290080123
866,611.7669713148491
867,611.6828338363908
868,611.587879307638
869,611.4885153584694
870,611.3906885693889
871,611.2994100739616
872,611.2183920323838
873,611.1498836576347
874,611.0947581326012
875,611.0528272151428
876,611.02328847809
877,611.0051731177687
878,610.9976717827498
879,611.0002673788007
880,611.0126742901712
881,611.0346422136207
882,611.0657111936174
883,611.1049993620483
884,611.151074517688
885,611.2019232121315
886,611.2550056971189
887,611.307378604696
888,611.3558704654528
889,611.397295189056
890,611.4286843429147
891,611.4475190762676
892,611.4519478397374
893,611.440976551568
894,611.4146055580916
895,611.3738684313261
896,611.3207254419939
897,611.2578054067645
898,611.1880630331071
899,611.1144695223799
900,611.039834843123
901,610.9667842306488
902,610.8978359261712
903,610.8354934658307
904,610.7822745753551
905,610.7406312498047
906,610.7127592346417
907,610.7003419257429
908,610.7043083075126
909,610.7246890393978
910,610.7606270832297
911,610.8105571745557
912,610.8725283223615
913,610.9446026961097
914,611.0252199453655
915,611.113392444641
916,611.2086280566218
917,611.3105628004004
918,611.4183874708239
