acceleration,velocity,displacement
-0.004883590314900308,0.0,0.0
-0.004939139131441658,-2.4556823615854915e-06,-6.139205903963729e-10
-0.004995194460860978,-4.939265759661151e-06,-2.4626576207080335e-09
-0.00505226288414367,-7.451130095912313e-06,-5.5602565846014e-09
-0.005110850963185281,-9.991908557744552e-06,-9.921016248015616e-09
-0.005171464870671192,-1.256248751620867e-05,-1.5559615266503923e-08
-0.005234609655217087,-1.5164006147680739e-05,-2.2491238682476276e-08
-0.005300788104044554,-1.7797855587496148e-05,-3.07317041162705e-08
-0.0053704991928353995,-2.0465677411716136e-05,-4.029758736607357e-08
-0.005444236124010891,-2.316936124092771e-05,-5.120634702923453e-08
-0.005522483960414322,-2.591104126203401e-05,-6.347644765497496e-08
-0.005605716867440646,-2.8693091468997752e-05,-7.71274808377329e-08
-0.005694394984590132,-3.151811943200545e-05,-9.218028356298371e-08
-0.005788960959379883,-3.438895841799795e-05,-1.0865705302548456e-07
-0.005889836194670877,-3.730865770651064e-05,-1.2658145705661172e-07
-0.005997416880842885,-4.028047097538908e-05,-1.4597873922708664e-07
-0.0061120698971163,-4.330784266987888e-05,-1.6687581763840364e-07
-0.006234128667326245,-4.639439231098952e-05,-1.8930137638362074e-07
-0.006363889051019997,-4.954389674057608e-05,-2.1328594864651213e-07
-0.006501605349021076,-5.2760270340586346e-05,-2.3886199041680276e-07
-0.0066474865038834065,-5.604754330381247e-05,-2.6606394382790244e-07
-0.006801692574865184,-5.9409838073499616e-05,-2.949282891722305e-07
-0.00696433155886607,-6.285134410693243e-05,-3.254935847173385e-07
-0.007135456611180573,-6.637629114944409e-05,-3.5780049353143263e-07
-0.0073150636968857385,-6.998892122646067e-05,-3.9189179662540884e-07
-0.0075030896850664264,-7.369345957194871e-05,-4.2781239182501116e-07
-0.00769941088951226,-7.749408471559337e-05,-4.656092778968967e-07
-0.007903842055995753,-8.139489795197038e-05,-5.053315235637876e-07
-0.008116135791159466,-8.539989241375918e-05,-5.4703022115522e-07
-0.008335982422968156,-8.951292196729109e-05,-5.907584247504826e-07
-0.008563010281804288,-9.37376701434842e-05,-6.365710727781764e-07
-0.008796786392185396,-9.807761931198162e-05,-6.845248951420429e-07
-0.00903681756461483,-0.00010253602030118168,-7.346783050453337e-07
-0.0092825518769035,-0.00010711586266156126,-7.870912757860194e-07
-0.009533380537035903,-0.00011181984576504611,-8.418252028926713e-07
-0.009788640123695165,-0.00011665035093022888,-8.9894275206649e-07
-0.010047615203443935,-0.00012160941476201365,-9.585076934895506e-07
-0.010309541324768912,-0.00012669870389406688,-1.0205847231535707e-06
-0.0105736083874126,-0.00013191949132211226,-1.0852392719576155e-06
-0.010838964377972325,-0.00013727263451345848,-1.1525373034165082e-06
-0.011104719450026335,-0.00014275855547045814,-1.2225451009124873e-06
-0.011369950314553755,-0.00014837722291160318,-1.2953290455080026e-06
-0.011633704898362813,-0.0001541281367148323,-1.3709553854146115e-06
-0.011895007223609385,-0.00016001031474532535,-1.4494899982796509e-06
-0.012152862458993814,-0.00016602228216597615,-1.5309981475074763e-06
-0.012406262095669708,-0.00017216206330464203,-1.6155442338751308e-06
-0.012654189209923367,-0.0001784271761310403,-1.7031915437340514e-06
-0.012895623784206367,-0.00018481462937957273,-1.7940019951117046e-06
-0.013129548056854469,-0.00019132092233983795,-1.8880358830415573e-06
-0.01335495185120635,-0.00019794204731685315,-1.9853516254557302e-06
-0.013570837800483307,-0.00020467349472977556,-2.0860055109673873e-06
-0.013776226351013457,-0.00021151026076764976,-2.1900514498417436e-06
-0.013970160411499873,-0.0002184468574582781,-2.2975407293982256e-06
-0.014151709528985607,-0.00022547732494339947,-2.408521774998645e-06
-0.014319973507155404,-0.00023259524570243473,-2.5230399176601035e-06
-0.014474085425904192,-0.00023979376043569962,-2.641137169194637e-06
-0.014613214062104724,-0.00024706558530770186,-2.7628520056304874e-06
-0.014736565747456397,-0.0002544030302600921,-2.888219159522436e-06
-0.014843385729503578,-0.0002617980181293321,-3.017269421619792e-06
-0.01493295912209325,-0.0002692421043422313,-3.150029452237683e-06
-0.015004611538153106,-0.0002767264970072929,-3.2865216025750642e-06
-0.015057709493265794,-0.0002842420772651476,-3.4267637461431743e-06
-0.01509166065490937,-0.00029177941980219137,-3.5707691204100092e-06
-0.015105913986642372,-0.0002993288134625793,-3.718546178726202e-06
-0.015099959799425508,-0.0003068802819090963,-3.870098452569121e-06
-0.015073329683915152,-0.00031442360427993147,-4.025424424116378e-06
-0.015025596270495703,-0.0003219483357685342,-4.184517409128494e-06
-0.014956372755852513,-0.00032944382802512124,-4.347365450076908e-06
-0.014865312147272273,-0.00033689924925090246,-4.513951219395914e-06
-0.01475210620051068,-0.00034430360383784817,-4.684251932668101e-06
-0.014616484049225971,-0.0003516457514002823,-4.8582392714776344e-06
-0.014458210535247923,-0.0003589144250464008,-5.035879315589305e-06
-0.014277084256788461,-0.0003660982487444099,-5.217132484037008e-06
-0.014072935370905837,-0.0003731857536513335,-5.401953484635943e-06
-0.01384562321969519,-0.0003801653932989838,-5.590291271373523e-06
-0.013595033880758929,-0.0003870255575740973,-5.782089009091793e-06
-0.01332107775548004,-0.00039375458548315703,-5.977284044856107e-06
-0.013023687305209568,-0.00040034077674832945,-6.175807885413979e-06
-0.012702815036127761,-0.0004067724023336638,-6.377586180184477e-06
-0.012358431820737795,-0.0004130377140478802,-6.582538709279863e-06
-0.011990525624764471,-0.0004191249534092557,-6.790579376144147e-06
-0.011599100683572592,-0.00042502235998634,-7.001616204493046e-06
-0.011184177145985665,-0.0004307181794437296,-7.215551339350563e-06
-0.010745791180345996,-0.0004362006715253125,-7.432281052092823e-06
-0.01028399552218386,-0.00044145811820094495,-7.651695749524388e-06
-0.009798860433629143,-0.0004464788321898982,-7.873679987122098e-06
-0.009290475032524701,-0.0004512511660564367,-8.098112486683682e-06
-0.00875894892970331,-0.00045576352204699367,-8.32486615870954e-06
-0.00820441409483085,-0.0004600043628031272,-8.55380812992207e-06
-0.007627026864822813,-0.0004639622230430406,-8.784799776383613e-06
-0.007026970012494626,-0.0004676257222623699,-9.017696762709966e-06
-0.00640445479951632,-0.0004709835784653727,-9.252349087891901e-06
-0.005759722945153493,-0.0004740246229015401,-9.48860113823363e-06
-0.005093048453747233,-0.0004767378157512653,-9.72629174789683e-06
-0.0044047392593494356,-0.00047911226267953943,-9.965254267504531e-06
-0.003695138662863845,-0.00048113723216009277,-1.020531664121444e-05
-0.0029646265552828377,-0.00048280217346462944,-1.0446301492620621e-05
-0.0022136204399606702,-0.0004840967352134403,-1.0688026219790138e-05
-0.0014425762830651662,-0.00048501078439419675,-1.0930303099692047e-05
-0.0006519892288418064,-0.0004855344257721735,-1.1172939402233639e-05
0.00015760578704422044,-0.0004856580216326229,-1.1415737514084837e-05
0.0009856335065135014,-0.0004853722118092335,-1.1658495072445301e-05
0.0018314778989440884,-0.0004846679339578691,-1.1901005108887077e-05
0.0026944817997878196,-0.0004835364440331861,-1.214305620338484e-05
0.003573946637271114,-0.0004819693369239214,-1.2384432648624118e-05
0.004469132228417247,-0.0004799585672074993,-1.2624914624656973e-05
0.0053792566152255855,-0.0004774964699965886,-1.2864278383957995e-05
0.0063034959137657845,-0.0004745757818643407,-1.3102296446923227e-05
0.00724098415418433,-0.0004711896618473532,-1.333873780785115e-05
0.0081908130934401,-0.00046733171253544707,-1.357336815144685e-05
0.0091520319908424,-0.00046299600126437643,-1.3805950079896806e-05
0.010123647352825609,-0.00045817708142845945,-1.4036243350570015e-05
0.011104622672304092,-0.000452870013922177,-1.4264005124407674e-05
0.012093878203234494,-0.00044707038870329236,-1.4488990225064041e-05
0.013090290822355983,-0.0004407743464468947,-1.4710951408851588e-05
0.014092694037429363,-0.0004339786002319484,-1.4929639645521299e-05
0.015099878201564786,-0.00042668045717219986,-1.5144804409872335e-05
0.016110590985893687,-0.00041887783987533525,-1.535619398413422e-05
0.017123538154781705,-0.0004105693075901664,-1.5563555771000595e-05
0.018137384686855208,-0.00040175407687975716,-1.5766636617118076e-05
0.019150756290963668,-0.0003924320416353024,-1.596518314674684e-05
0.020162241370463747,-0.0003826037922199456,-1.615894210521065e-05
0.021170393484721942,-0.0003722706335061492,-1.6347660711642174e-05
0.022173734343898147,-0.00036143460154899415,-1.653108702040596e-05
0.0231707573569115,-0.0003500984786237917,-1.670897029044916e-05
0.024159931737021238,-0.00033826580635030855,-1.6881061361692684e-05
0.025139707155308555,-0.0003259408966272261,-1.7047113037437068e-05
0.02610851891700084,-0.0003131288401091488,-1.720688047162116e-05
0.02706479361654129,-0.00029983551197576325,-1.7360121559642387e-05
0.028006955207751726,-0.00028606757476969,-1.750659733132875e-05
0.02893343141231379,-0.0002718324781146736,-1.7646072344549842e-05
0.02984266038363494,-0.00025713845516568646,-1.777831507786993e-05
0.030733097539143363,-0.00024199451568499187,-1.79030983205826e-05
0.03160322247277451,-0.0002264104356820124,-1.802019955842435e-05
0.032451545864937724,-0.00021039674359758434,-1.812940135324425e-05
0.03327661631603972,-0.00019396470305233998,-1.823049171490673e-05
0.034077027035339984,-0.00017712629221449506,-1.832326446372344e-05
0.03485142231926546,-0.0001598941798758437,-1.8407519581746024e-05
0.03559850375380477,-0.00014228169835757616,-1.848306355130438e-05
0.036317036070497875,-0.0001243028134015005,-1.8549709679244148e-05
0.03700585257254337,-0.00010597209124074019,-1.8607278405404707e-05
0.03766386003626972,-8.730466308853692e-05,-1.8655597593987028e-05
0.038290042998127695,-6.831618732993757e-05,-1.8694502806591648e-05
0.03888346736041686,-4.9022809740301435e-05,-1.872383755585921e-05
0.03944328327743283,-2.944112208083901e-05,-1.8743453538814492e-05
0.03996872730541687,-9.588119435126587e-06,-1.8753210849193484e-05
0.04045912381317956,1.0518843344522522e-05,-1.8752978168216133e-05
0.040913885659210905,3.086209571262014e-05,-1.8742632933451846e-05
0.0413325141473483,5.142369566425994e-05,-1.8722061485607626e-05
0.041714598275670624,7.218547377001468e-05,-1.869115919324906e-05
0.04205981329406146,9.31290766624477e-05,-1.8649830555640943e-05
0.04236791859177575,0.00011423600963390699,-1.8597989284066855e-05
0.04263875495253755,0.00013548767801998532,-1.8535558362153383e-05
0.04287224123523535,0.00015686542706692854,-1.8462470085881656e-05
0.04306837055090199,0.00017835058001346288,-1.837866608411156e-05
0.043227206005298974,0.00019992447415251313,-1.8284097320570063e-05
0.04334887606593489,0.00022156849467032158,-1.8178724078364356e-05
0.04343356960374813,0.00024326410608774233,-1.806251592817484e-05
0.04348153066320995,0.00026499288115448187,-1.7935451681364284e-05
0.043493053032644294,0.00028673652707844545,-1.7797519329306053e-05
0.04346847471142917,0.0003084769090144638,-1.7648715970282825e-05
0.04340817239131909,0.00033019607079015086,-1.748904772533167e-05
0.04331255607996551,0.000351876252907972,-1.7318529644407138e-05
0.04318206399580445,0.0003734999079269145,-1.7137185604198415e-05
0.04301715785615379,0.000395049713389904,-1.694504819886921e-05
0.04281831866661084,0.0004165085825205952,-1.6742158624891586e-05
0.04258604310307267,0.00043785967296301607,-1.6528566561020682e-05
0.042320840560217114,0.0004590863938788385,-1.630433004431022e-05
0.04202323091887058,0.0004801724117486104,-1.6069515342903356e-05
0.041693743054917645,0.0005011016552420574,-1.5824196826155688e-05
0.04133291407682753,0.0005218583195249937,-1.5568456832463924e-05
0.04094128924475409,0.0005424268703553891,-1.530238553499383e-05
0.04051942249709441,0.0005627920482908512,-1.5026080805332269e-05
0.04006787749414147,0.0005829388732886602,-1.4739648074937391e-05
0.03958722908579545,0.0006028526499336444,-1.4443200194131814e-05
0.03907806511754493,0.0006225189734844795,-1.4136857288277283e-05
0.0385409884961385,0.0006419237368879004,-1.3820746610684187e-05
0.03797661943503201,0.000661053138870693,-1.349500239174454e-05
0.037385597792039,0.0006798936931774607,-1.3159765683732501e-05
0.036768585411008164,0.0006984322389782225,-1.2815184200693581e-05
0.03612626839583283,0.0007166559524299328,-1.2461412152841542e-05
0.03545935927105986,0.000734552359346656,-1.2098610074897395e-05
0.03476859900280887,0.0007521093489151232,-1.172694464783195e-05
0.034054758863417446,0.0007693151883816797,-1.1346588513507749e-05
0.03331864213361335,0.0007861585386309374,-1.0957720081754595e-05
0.032561085653458825,0.0008026284705777055,-1.0560523329452434e-05
0.031782961250713115,0.0008187144823037485,-1.015518759123207e-05
0.03098517707956645,0.0008344065168863184,-9.741907341434554e-06
0.030168678887671066,0.0008496949808781278,-9.320881966993443e-06
0.029334451201967964,0.0008645707634005375,-8.892315530923777e-06
0.028483518395548215,0.0008790252557999166,-8.456416526123664e-06
0.027616945575226485,0.0008930503717926103,-8.013397619225532e-06
0.026735839213665413,0.0009066385679898333,-7.563475384279921e-06
0.02584134743964733,0.0009197828646531615,-7.1068700261191724e-06
0.024934659895307715,0.0009324768664869003,-6.643805093334157e-06
0.02401700707542758,0.0009447147832295841,-6.174507180905035e-06
0.023089659088418896,0.0009564914497705457,-5.699205622655003e-06
0.022153923818510772,0.0009678023454972782,-5.2181321738380466e-06
0.02121114451054164,0.0009786436125795413,-4.731520684318841e-06
0.020262696831569345,0.000989012072915069,-4.239606762945189e-06
0.01930998548633639,0.0009989052434945455,-3.742627433842785e-06
0.0183544404804585,0.0010083213499862442,-3.2408207854725875e-06
0.017397513137172766,0.001017259338390652,-2.7344256133783633e-06
0.016440671977996497,0.0010257188846694444,-2.2236810576133393e-06
0.015485398573364983,0.0010337004023072847,-1.708826235869157e-06
0.014533183460136875,0.0010412050478156602,-1.1900998733384207e-06
0.013585522213269115,0.0010482347242340116,-6.677399303260027e-07
0.012643911748238238,0.0010547920827243885,-1.4198322858640262e-07
0.01170984691488302,0.0010608805223901688,3.869349226922367e-07
0.010784817420788632,0.0010665041884740868,9.187811004083007e-07
0.00987030509578438,0.00107166796910323,1.45332413980263e-06
0.0089677814818352,0.001076377490747635,1.9903355047653462e-06
0.008078705708483961,0.0010806391125452147,2.529589655588559e-06
0.007204522599534403,0.0010844599196222192,3.0708644136304175e-06
0.006346660958226477,0.0010878477155116593,3.6139413224138874e-06
0.005506531993191301,0.0010908110137495138,4.158606004729181e-06
0.0046855278648238645,0.0010933590287140176,4.704648515345063e-06
0.003885020342037467,0.001095501665765733,5.251863688965001e-06
0.003106359560445882,0.0010972495107413537,5.800051483091773e-06
0.002350872863921946,0.0010986138188474456,6.3490173154889726e-06
0.0016198636925395208,0.001099606502986561,6.898572395947474e-06
0.0009146104552770713,0.0011002401215235152,7.448534052074993e-06
0.0002363653013289365,0.0011005278654626666,7.998726048821539e-06
-0.00041364731555599025,0.00110048354495911,8.548978901426983e-06
-0.0010342323926935053,0.0011001215750320475,9.099130181424772e-06
-0.0016242265570163368,0.00109945696029462,9.64902481525644e-06
-0.0021825007459845133,0.0010985052784688698,1.0198515374947311e-05
-0.0027079634419163155,0.0010972826624218945,1.0747462360170003e-05
-0.003199564479782871,0.0010958057804414697,1.1295734470885843e-05
-0.003656299413060548,0.0010940918144682588,1.1843208869613276e-05
-0.004077214389829559,0.0010921584360175363,1.2389771432234725e-05
-0.004461411476094574,0.0010900237795510553,1.2935316986126872e-05
-0.0048080543663398465,0.0010877064130904467,1.3479749534287248e-05
-0.005116374422959248,0.001085225305893122,1.402298246403314e-05
-0.005385676969473787,0.0010825997930450138,1.4564938738767673e-05
-0.005615347736535579,0.0010798495368685116,1.5105551071246055e-05
-0.0058048593467877945,0.0010769944850976807,1.5644762076737603e-05
-0.005953777729779994,0.0010740548258285389,1.6182524404469158e-05
-0.00606176836853659,0.0010710509393039597,1.671880084575228e-05
-0.006128602288892109,0.0010680033466396025,1.7253564417238172e-05
-0.006154161716133916,0.0010649326556383461,1.778679841780766e-05
-0.0061384453413913884,0.0010618595038739648,1.831849645768574e-05
-0.006081573154790406,0.0010588044992499194,1.884866245846671e-05
-0.005983790807850374,0.0010557881582592592,1.9377310622844006e-05
-0.005845473464606155,0.001052830842191145,1.9904465372956606e-05
-0.00566712909370611,0.001049952691551567,2.0430161256392285e-05
-0.005449401147578688,0.0010471735589912456,2.0954442819027987e-05
-0.0051930705743348845,0.0010445129410607673,2.147736444404099e-05
-0.0048990571122570605,0.0010419899091391193,2.199899015659096e-05
-0.004568419818864515,0.001039623039906339,2.2519393393852323e-05
-0.004202356783731625,0.00103743034575569,2.3038656740267832e-05
-0.003802203970659892,0.001035429205567092,2.3556871628098527e-05
-0.00336943313266212,0.0010336362962912616,2.4074138003563116e-05
-0.002905648738107955,0.0010320675258235692,2.4590563959091825e-05
-0.0024125838399491318,0.0010307379676790548,2.510626533246748e-05
-0.001892094824732918,0.0010296617980128844,2.5621365273890464e-05
-0.0013461550032256692,0.0010288522355558947,2.6135993782282658e-05
-0.000776847045684831,0.0010283214850436671,2.665028721243255e-05
-0.00018635431172923727,0.0010280806847043137,2.7164387754869543e-05
0.0004230488311518994,0.0010281398583341693,2.7678442890629165e-05
0.0010490075697318605,0.0010285078724343903,2.8192604823321303e-05
0.0016890979309207895,0.0010291923988095535,2.870702989113229e-05
0.002340838622719091,0.0010301998829479635,2.922187796157167e-05
0.0030017032655048764,0.0010315355184200195,2.9737311811913664e-05
0.0036691328627512614,0.0010332032274520835,3.025349649838169e-05
0.004340548376736247,0.0010352056477619554,3.07705987171852e-05
0.005013363293102358,0.001037544125679415,3.128878616054555e-05
0.005684996080695821,0.0010402187155228646,3.1808226870846116e-05
0.006352882477098105,0.001043228185162313,3.232908859601741e-05
0.007014487549821103,0.0010465700276690428,3.285153814922525e-05
0.007667317494730221,0.0010502404789301807,3.3375740775875053e-05
0.008308931134307848,0.0010542345410874403,3.390185953087946e-05
0.008936951068201669,0.0010585460116380677,3.443005466906084e-05
0.009549074413300856,0.0010631675180084433,3.496048305147246e-05
0.010143083061326528,0.0010680905573771,3.549329757031885e-05
0.010716853383080517,0.0010733055414882018,3.602864659503518e-05
0.011268365316342736,0.0010788018461630577,3.6566673441947995e-05
0.011795710786570423,0.0010845678651887859,3.710751586978596e-05
0.012297101424752342,0.0010905910682416165,3.7651305603143556e-05
0.012770875559925827,0.001096858062487786,3.8198167885825904e-05
0.013215504470045932,0.001103354657495279,3.874822106582167e-05
0.013629597875044086,0.0011100659330815514,3.930157621346588e-05
0.014011908651891478,0.0011169763097132854,3.985833677416459e-05
0.014361336743451051,0.0011240696210621211,4.041859825685844e-05
0.014676932223820742,0.001131329188303939,4.0982447959199955e-05
0.014957897480384562,0.0011387378957299903,4.154996473020844e-05
0.015203588483576074,0.0011462782672209805,4.212121877094618e-05
0.015413515135606346,0.0011539325431257762,4.269627147353287e-05
0.015587340706783538,0.0011616827570863737,4.3275175298585904e-05
0.015724880376380528,0.0011695108123571647,4.385797369094679e-05
0.01582609889853643,0.001177398557175894,4.4444701033330056e-05
0.015891107415595535,0.001185327858754427,4.5035382637312634e-05
0.01592015943942586,0.0011932806754681824,4.563003477086829e-05
0.0159136460183806,0.001201239126832634,4.622866472144349e-05
0.015872090113148083,0.0012091855608655161,4.6831270893368026e-05
0.015796140222441024,0.0012171026184494135,4.7437842938196755e-05
0.015686563320554184,0.0012249732943351622,4.8048361916392896e-05
0.015544237181818306,0.0012327809944607554,4.866280048859188e-05
