frame_number,force
0,692.3067020059202
1,692.3027798884567
2,692.2988220078051
3,692.2947925959647
4,692.2906558862824
5,692.2863761395857
6,692.2819176960692
7,692.277245055597
8,692.2723229871535
9,692.2671166673547
10,692.2615918475248
11,692.2557150484207
12,692.2494537811208
13,692.2427767917544
14,692.2356543264652
15,692.228058411567
16,692.2199631429372
17,692.2113449786268
18,692.2021830289757
19,692.1924593386474
20,692.1821591549021
21,692.1712711764873
22,692.1597877781008
23,692.1477052066247
24,692.1350237469514
25,692.1217478565449
26,692.1078862684766
27,692.0934520629304
28,692.0784627075283
29,692.0629400671827
30,692.0469103842498
31,692.0304042296891
32,692.0134564259714
33,691.9961059424887
34,691.9783957640228
35,691.960372732549
36,691.9420873624457
37,691.9235936290954
38,691.9049487309865
39,691.8862128259545
40,691.8674487430994
41,691.8487216727922
42,691.830098837759
43,691.811649148554
44,691.7934428469111
45,691.7755511402905
46,691.7580458302978
47,691.7409989369836
48,691.7244823211183
49,691.7085673079207
50,691.6933243181464
51,691.6788225148267
52,691.6651294749994
53,691.6523108948578
54,691.6404303342739
55,691.6295490035967
56,691.6197255927298
57,691.611016139955
58,691.6034739358362
59,691.5971494561094
60,691.5920903170052
61,691.5883412467539
62,691.5859440679876
63,691.5849376875591
64,691.5853580929191
65,691.5872383568963
66,691.5906086546399
67,691.5954962970482
68,691.6019257841245
69,691.609918879972
70,691.6194947095644
71,691.6306698766396
72,691.6434586015095
73,691.6578728762204
74,691.67392263216
75,691.6916159130107
76,691.7109590450334
77,691.7319567969087
78,691.754612522018
79,691.7789282769577
80,691.8049049114286
81,691.8325421263863
82,691.8618384991895
83,691.8927914761116
84,691.9253973336715
85,691.9596511108932
86,691.9955465154616
87,692.0330758081197
88,692.0722296709276
89,692.1129970654545
90,692.1553650867183
91,692.1993188182341
92,692.2448411930072
93,692.2919128645011
94,692.3405120905155
95,692.3906146317144
96,692.442193665257
97,692.4952197126186
98,692.5496605795425
99,692.6054813055389
100,692.6626441205779
101,692.7211084075975
102,692.7808306707221
103,692.8417645097454
104,692.903860600834
105,692.9670666821257
106,693.0313275421624
107,693.0965850092357
108,693.1627779400894
109,693.2298422066985
110,693.2977106804202
111,693.3663132139735
112,693.4355766230351
113,693.5054246703226
114,693.5757780558324
115,693.6465544174215
116,693.7176683459408
117,693.7890314186087
118,693.860552253747
119,693.9321365899312
120,694.0036873930287
121,694.0751049948898
122,694.1462872671458
123,694.2171298326616
124,694.2875263160457
125,694.3573686335311
126,694.4265473215426
127,694.4949519021798
128,694.5624712825023
129,694.6289941831242
130,694.6944095906954
131,694.7586072284155
132,694.8214780384391
133,694.8829146699435
134,694.9428119670184
135,695.001067451159
136,695.0575817935432
137,695.1122592724439
138,695.165008211159
139,695.2157413914847
140,695.2643764368341
141,695.3108361583145
142,695.3550488574167
143,695.3969485806045
144,695.4364753230957
145,695.473575180662
146,695.508200449229
147,695.5403096726851
148,695.569867639751
149,695.596845330946
150,695.6212198167431
151,695.6429741084164
152,695.6620969642336
153,695.6785826550903
154,695.6924306945797
155,695.7036455383902
156,695.712236257187
157,695.7182161865206
158,695.7216025575613
159,695.7224161137273
160,695.7206807200325
161,695.7164229734312
162,695.7096718232019
163,695.7004582104923
164,695.6888147356285
165,695.6747753608182
166,695.6583751546972
167,695.6396500839319
168,695.6186368555806
169,695.5953728118129
170,695.5698958760738
171,695.5422445473715
172,695.5124579374565
173,695.4805758445096
174,695.4466388567733
175,695.4106884800644
176,695.3727672836253
177,695.3329190586679
178,695.2911889834271
179,695.2476237884987
180,695.2022719174
181,695.1551836791231
182,695.1064113908243
183,695.0560095094816
184,695.0040347520796
185,694.9505462051161
186,694.8956054254537
187,694.8392765348445
188,694.7816263093902
189,694.7227242632694
190,694.6626427240648
191,694.6014568954316
192,694.5392449017303
193,694.4760878085215
194,694.4120696124858
195,694.3472771947734
196,694.2818002335205
197,694.2157310740879
198,694.1491645585315
199,694.0821978181323
200,694.0149300344262
201,693.9474621753603
202,693.8798967140476
203,693.812337337915
204,693.7448886557295
205,693.677655909348
206,693.6107446963503
207,693.544260708966
208,693.4783094935766
209,693.412996233486
210,693.3484255557754
211,693.2847013611345
212,693.2219266738531
213,693.1602035081404
214,693.0996327470467
215,693.040314031326
216,692.9823456567998
217,692.9258244795145
218,692.8708458280606
219,692.8175034217794
220,692.7658892922444
221,692.7160937036667
222,692.6682050661412
223,692.6223098342797
224,692.5784923832523
225,692.536834854967
226,692.4974169687794
227,692.4603157931277
228,692.425605476677
229,692.3933569400604
230,692.3636375315938
231,692.3365106514143
232,692.3120353482765
233,692.2902658931287
234,692.2712513347698
235,692.2550350447186
236,692.2416542593389
237,692.2311396269032
238,692.2235147665435
239,692.2187958453652
240,692.2169911790495
241,692.2181008600115
242,692.2221164161477
243,692.2290205028207
244,692.2387866309451
245,692.2513789345431
246,692.2667519815768
247,692.2848506318942
248,692.3056099458306
249,692.328955146853
250,692.3548016418363
251,692.3830551028141
252,692.4136116141946
253,692.4463578897955
254,692.4811715645043
255,692.5179215650326
256,692.5564685624615
257,692.5966655063619
258,692.6383582369632
259,692.6813861687311
260,692.7255830361252
261,692.7707776904565
262,692.8167949359386
263,692.8634563932975
264,692.910581380288
265,692.9579877996225
266,693.0054930261134
267,693.0529147864211
268,693.100072026494
269,693.1467857631696
270,693.1928799172213
271,693.2381821252127
272,693.2825245268012
273,693.3257445230591
274,693.3676855007284
275,693.4081975174051
276,693.4471379432057
277,693.484372055324
278,693.5197735829636
279,693.5532252010565
280,693.5846189716161
281,693.6138567315837
282,693.6408504257436
283,693.6655223827142
284,693.6878055313822
285,693.7076435549689
286,693.7249909806844
287,693.7398132043506
288,693.7520864506016
289,693.761797669859
290,693.7689443735293
291,693.7735344090042
292,693.775585675915
293,693.7751257848872
294,693.7721916604385
295,693.7668290909098
296,693.7590922298098
297,693.749043053869
298,693.7367507832261
299,693.7222912687454
300,693.7057463508596
301,693.6872031938879
302,693.6667535999173
303,693.6444933071743
304,693.6205212788751
305,693.5949389892414
306,693.5678497134837
307,693.5393578281546
308,693.5095681274495
309,693.478585160089
310,693.4465125908168
311,693.4134525904309
312,693.3795052583654
313,693.3447680818747
314,693.3093354358722
315,693.2732981276866
316,693.2367429913412
317,693.199752535975
318,693.162404652331
319,693.1247723798497
320,693.0869237351482
321,693.048921600946
322,693.0108236733206
323,692.9726824650387
324,692.9345453634776
325,692.8964547423931
326,692.858448126499
327,692.8205584064858
328,692.7828141007315
329,692.745239659442
330,692.7078558071254
331,692.6706799193084
332,692.6337264289738
333,692.5970072575383
334,692.5605322644459
335,692.5243097087463
336,692.4883467157589
337,692.4526497421773
338,692.4172250330655
339,692.3820790632955
340,692.34721895426
341,692.3126528555056
342,692.2783902813223
343,692.2444423940096
344,692.2108222275954
345,692.1775448479683
346,692.144627447828
347,692.1120893773093
348,692.0799521131702
349,692.0482391709254
350,692.0169759651586
351,691.9861896229825
352,691.9559087540526
353,691.9261631787191
354,691.896983615393
355,691.8684013296106
356,691.8404477496833
357,691.8131540558306
358,691.7865507504604
359,691.7606672167339
360,691.735531271431
361,691.7111687173747
362,691.687602900772
363,691.6648542795346
364,691.6429400094219
365,691.6218735554452
366,691.601664336044
367,691.5823174067987
368,691.5638331891342
369,691.546207248573
370,691.5294301271673
371,691.5134872352932
372,691.4983588080145
373,691.4840199302668
374,691.4704406335295
375,691.4575860652025
376,691.4454167306183
377,691.4338888058826
378,691.4229545172007
379,691.4125625796396
380,691.4026586865104
381,691.3931860402587
382,691.3840859164577
383,691.3752982533179
384,691.3667622595344
385,691.3584170332445
386,691.3502021845594
387,691.3420584540372
388,691.3339283200653
389,691.325756589604
390,691.3174909685331
391,691.3090826088523
392,691.3004866293738
393,691.2916626045921
394,691.2825750144256
395,691.2731936467338
396,691.2634939453881
397,691.2534572987337
398,691.243071265524
399,691.2323297369118
400,691.2212330337095
401,691.2097879384033
402,691.1980076618913
403,691.1859117457125
404,691.1735259013025
405,691.1608817883341
406,691.1480167344783
407,691.1349733990091
408,691.1217993828333
409,691.1085467883272
410,691.0952717340527
411,691.0820338313642
412,691.068895631287
413,691.0559220506087
414,691.0431797859336
415,691.0307367232783
416,691.0186613486238
417,691.0070221623839
418,690.995887099147
419,690.9853229538841
420,690.975394816778
421,690.9661655201472
422,690.9576951018844
423,690.9500402901305
424,690.9432540138981
425,690.9373849445857
426,690.9324770738082
427,690.9285693332739
428,690.9256952622658
429,690.9238827278064
430,690.9231537020603
431,690.923524100903
432,690.9250036867426
433,690.9275960377514
434,690.9312985849695
435,690.9361027183868
436,690.9419939627173
437,690.9489522224159
438,690.9569520932814
439,690.9659632354297
440,690.9759508006039
441,690.9868759060782
442,690.9986961473078
443,691.0113661414969
444,691.0248380943608
445,691.0390623824101
446,691.0539881425852
447,691.0695638597876
448,691.0857379415709
449,691.1024592691199
450,691.1196777147821
451,691.1373446179595
452,691.1554132124362
453,691.1738389992792
454,691.1925800606438
455,691.2115973113239
456,691.2308546866356
457,691.25031926713
458,691.2699613425485
459,691.2897544192313
460,691.3096751767632
461,691.3297033808444
462,691.3498217599845
463,691.3700158536067
464,691.3902738389048
465,691.4105863437408
466,691.4309462528124
467,691.4513485136955
468,691.4717899480495
469,691.4922690717567
470,691.5127859265991
471,691.5333419256192
472,691.5539397143646
473,691.5745830499548
474,691.5952766986093
475,691.6160263502152
476,691.6368385466645
477,691.6577206198373
478,691.6786806353292
479,691.6997273387958
480,691.7208701025814
481,691.7421188710751
482,691.7634841039586
483,691.784976716887
484,691.8066080191819
485,691.828389648202
486,691.8503335002699
487,691.8724516580689
488,691.8947563141581
489,691.9172596901309
490,691.9399739514421
491,691.962911119107
492,691.9860829808212
493,692.0095010049577
494,692.0331762610704
495,692.0571193500226
496,692.0813403459606
497,692.1058487511441
498,692.1306534631664
499,692.1557627527308
500,692.181184249501
501,692.2069249337152
502,692.2329911318532
503,692.2593885153418
504,692.2861221019614
505,692.3131962601689
506,692.3406147168472
507,692.3683805690576
508,692.3964963001725
509,692.4249638002642
510,692.4537843899942
511,692.4829588467767
512,692.5124874315875
513,692.542369914155
514,692.5726055934776
515,692.6031933100815
516,692.6341314463389
517,692.6654179112008
518,692.6970501054356
519,692.7290248629604
520,692.7613383636701
521,692.7939860139707
522,692.8269622933317
523,692.860260568259
524,692.8938728783108
525,692.9277897012792
526,692.9619997060654
527,692.9964895020364
528,693.0312433929703
529,693.0662431427617
530,693.1014677596186
531,693.1368933054729
532,693.1724927368767
533,693.2082357822744
534,693.2440888585552
535,693.2800150277471
536,693.3159739929633
537,693.3519221317065
538,693.3878125645344
539,693.4235952573804
540,693.4592171559088
541,693.4946223503163
542,693.529752269611
543,693.564545905879
544,693.5989400707582
545,693.632869687376
546,693.6662681208298
547,693.6990675490079
548,693.7311993734687
549,693.7625946675776
550,693.7931846565274
551,693.8229012215895
552,693.8516774189302
553,693.8794480016431
554,693.9061499327807
555,693.9317228777087
556,693.9561096659626
557,693.9792567151055
558,694.001114411019
559,694.0216374404279
560,694.0407850726369
561,694.0585213887607
562,694.0748154580791
563,694.089641462283
564,694.1029787691956
565,694.1148119582789
566,694.1251308010009
567,694.1339301997484
568,694.1412100891811
569,694.1469753037014
570,694.1512354141662
571,694.154004536214
572,694.15530111213
573,694.1551476686536
574,694.153570554604
575,694.1505996639746
576,694.1462681515223
577,694.1406121485342
578,694.1336704862315
579,694.1254844329848
580,694.1160974491756
581,694.1055549605921
582,694.0939041483541
583,694.0811937512016
584,694.0674738748967
585,694.0527958035279
586,694.0372118083432
587,694.0207749509377
588,694.0035388789007
589,693.9855576131789
590,693.9668853271221
591,693.9475761172091
592,693.9276837650999
593,693.9072614905773
594,693.8863616954715
595,693.8650356995062
596,693.8433334699832
597,693.8213033485926
598,693.7989917801951
599,693.7764430492437
600,693.7536990291275
601,693.730798948719
602,693.707779179624
603,693.6846730475304
604,693.6615106714254
605,693.6383188346614
606,693.6151208911654
607,693.5919367084824
608,693.5687826475427
609,693.5456715778034
610,693.5226129258263
611,693.4996127549887
612,693.4766738736166
613,693.45379596849
614,693.4309757606508
615,693.4082071806464
616,693.3854815602953
617,693.3627878375092
618,693.3401127702657
619,693.3174411564041
620,693.2947560575416
621,693.2720390270383
622,693.2492703429169
623,693.2264292473908
624,693.2034941957415
625,693.1804431182118
626,693.1572536984289
627,693.1339036705393
628,693.1103711353252
629,693.0866348936269
630,693.0626747934914
631,693.0384720856906
632,693.0140097810247
633,692.9892730025168
634,692.96424932588
635,692.9389291017449
636,692.9133057528892
637,692.8873760397986
638,692.8611402890533
639,692.8346025811021
640,692.8077708959498
641,692.780657216213
642,692.7532775868034
643,692.7256521299039
644,692.6978050136792
645,692.6697643737729
646,692.6415621883034
647,692.6132341095696
648,692.5848192579485
649,692.5563599842524
650,692.5279016058695
651,692.4994921201916
652,692.4711818972469
653,692.4430233529251
654,692.415070604783
655,692.3873791134425
656,692.3600053131127
657,692.3330062343794
658,692.3064391212453
659,692.2803610428674
660,692.2548284992
661,692.229897019442
662,692.2056207529503
663,692.182052053405
664,692.1592410574772
665,692.1372352589258
666,692.1160790789212
667,692.0958134345262
668,692.0764753098329
669,692.0580973375477
670,692.0407074016999
671,692.0243282738408
672,692.0089772955016
673,691.9946661189288
674,691.9814005164208
675,691.9691802664236
676,691.9579991223347
677,691.9478448676923
678,691.938699458805
679,691.9305392530714
680,691.9233353185473
681,691.9170538177318
682,691.9116564559564
683,691.9071009825163
684,691.9033417312768
685,691.9003301869251
686,691.8980155630194
687,691.8963453785545
688,691.8952660213148
689,691.8947232887384
690,691.8946628998365
691,691.8950309743382
692,691.8957744775616
693,691.8968416314785
694,691.8981822937044
695,691.8997483061763
696,691.9014938140831
697,691.9033755538458
698,691.9053531074373
699,691.9073891196772
700,691.9094494755467
701,691.9115034357798
702,691.9135237305724
703,691.9154866129853
704,691.9173718752087
705,691.9191628319826
706,691.9208462760017
707,691.9224124101496
708,691.9238547609237
709,691.92517007649
710,691.9263582119429
711,691.9274220040389
712,691.9283671376354
713,691.9292020054961
714,691.9299375617703
715,691.9305871681509
716,691.931166431472
717,691.9316930323234
718,691.9321865450954
719,691.9326682498034
720,691.9331609350638
721,691.9336886903592
722,691.9342766848797
723,691.9349509301076
724,691.9357380239518
725,691.9366648752684
726,691.9377584083871
727,691.9390452474943
728,691.940551380739
729,691.9423018046252
730,691.9443201511923
731,691.9466283031655
732,691.949246004358
733,691.9521904735276
734,691.9554760302091
735,691.9591137413533
736,691.9631110977891
737,691.9674717292254
738,691.9721951655415
739,691.9772766502767
740,691.9827070097851
741,691.9884725794144
742,691.9945551869534
743,692.0009321929198
744,692.0075765860918
745,692.0144571309348
746,692.0215385618371
747,692.028781817899
748,692.0361443118137
749,692.0435802273562
750,692.0510408416367
751,692.0584748695493
752,692.0658288281578
753,692.0730474185432
754,692.0800739226986
755,692.0868506135752
756,692.0933191769387
757,692.0994211439967
758,692.1050983339334
759,692.1102933055873
760,692.1149498171208
761,692.1190132914074
762,692.1224312833714
763,692.125153944118
764,692.1271344754794
765,692.1283295674936
766,692.1286998105077
767,692.1282100732742
768,692.1268298389408
769,692.1245334924598
770,692.1213005553496
771,692.11711586603
772,692.1119697053991
773,692.105857868086
774,692.0987816805432
775,692.0907479683256
776,692.081768976378
777,692.0718622474708
778,692.0610504647649
779,692.0493612650623
780,692.0368270299161
781,692.0234846622999
782,692.009375356382
783,691.9945443667148
784,691.9790407812831
785,691.9629173013536
786,691.9462300303954
787,691.9290382738777
788,691.9114043507439
789,691.8933934158324
790,691.8750732909787
791,691.8565143011577
792,691.8377891106486
793,691.8189725528282
794,691.8001414464328
795,691.7813743916573
796,691.762751541379
797,691.7443543453495
798,691.7262652675694
799,691.7085674786557
800,691.6913445253374
801,691.6746799781413
802,691.6586570567279
803,691.6433582315445
804,691.628864801033
805,691.6152564451546
806,691.6026107580032
807,691.5910027644483
808,691.5805044277207
809,691.5711841562257
810,691.5631063185298
811,691.5563307755211
812,691.5509124383186
813,691.5469008597058
814,691.5443398658934
815,691.543267234419
816,691.5437144229348
817,691.5457063523704
818,691.5492612465472
819,691.5543905290039
820,691.5610987766025
821,691.5693837282279
822,691.5792363454638
823,691.5906409208428
824,691.6035752284282
825,691.6180107110835
826,691.633912698681
827,691.6512406517056
828,691.669948425244
829,691.6899845490492
830,691.7112925199635
831,691.733811103298
832,691.7574746400522
833,691.7822133576519
834,691.8079536831534
835,691.8346185588424
836,691.8621277602232
837,691.8903982161353
838,691.9193443312431
839,691.948878312665
840,691.9789105040338
841,692.0093497307782
842,692.04010365992
843,692.0710791767597
844,692.1021827795304
845,692.1333209910423
846,692.1644007836865
847,692.1953300118505
848,692.2260178447373
849,692.2563751926657
850,692.2863151202371
851,692.315753239611
852,692.344608076984
853,692.3728014060839
854,692.4002585441659
855,692.4269086079191
856,692.4526847282797
857,692.4775242242928
858,692.5013687369897
859,692.5241643247634
860,692.5458615219121
861,692.5664153618933
862,692.5857853666618
863,692.6039355035398
864,692.6208341114973
865,692.6364537993284
866,692.650771318725
867,692.6637674154666
868,692.6754266617744
869,692.6857372723813
870,692.6946909062685
871,692.7022824557714
872,692.7085098253344
873,692.713373703568
874,692.7168773338223
875,692.7190262895722
876,692.7198282612051
877,692.7192928604125
878,692.7174314474713
879,692.714256985186
880,692.7097839210434
881,692.7040280966529
882,692.697006681694
883,692.6887381288404
884,692.6792421462825
885,692.6685396851228
886,692.6566529396584
887,692.6436053588907
888,692.6294216675067
889,692.6141278944256
890,692.5977514069187
891,692.5803209479996
892,692.5618666741744
893,692.5424201901928
894,692.5220145777726
895,692.5006844168025
896,692.4784657997741
897,692.4553963420046
898,692.4315151908423
899,692.4068630366673
900,692.3814821277573
901,692.3554162902707
902,692.3287109537097
903,692.3014131811931
904,692.2735717027092
905,692.2452369484349
906,692.2164610786235
907,692.1872980067249
908,692.1578034129207
909,692.1280347455453
910,692.098051208017
911,692.0679137295726
912,692.0376849194048
913,692.0074290050455
914,691.97721175632
915,691.9471003959419
916,691.9171634974513
917,691.8874708709533
