frame_number,force
0,692.3067020018757
1,692.3034151973937
2,692.3001180885636
3,692.2967993540142
4,692.2934457004791
5,692.2900410218282
6,692.2865657067127
7,692.2829961130528
8,692.2793042173565
9,692.2754574424818
10,692.2714186652529
11,692.2671464030135
12,692.2625951751415
13,692.2577160309893
14,692.2524572288244
15,692.2467650426044
16,692.2405846684453
17,692.2338612020845
18,692.2265406600693
19,692.2185710178173
20,692.209903236942
21,692.2004922542488
22,692.1902979075546
23,692.1792857797034
24,692.1674279503874
25,692.1547036519577
26,692.1410998282123
27,692.1266115960577
28,692.1112426114356
29,692.095005342361
30,692.0779212518477
31,692.0600208927202
32,692.0413439160818
33,692.0219389948617
34,692.001863662455
35,691.9811840645858
36,691.9599746210929
37,691.9383175935673
38,691.9163025551302
39,691.8940257611607
40,691.8715894242963
41,691.849100901498
42,691.8266718038356
43,691.8044170412782
44,691.78245381565
45,691.7609005739968
46,691.7398759312881
47,691.7194975679188
48,691.6998811080822
49,691.6811389925848
50,691.663379372711
51,691.6467050646218
52,691.631212609622
53,691.6169914811541
54,691.6041234667073
55,691.5926822371008
56,691.5827331007301
57,691.5743329274183
58,691.5675302156991
59,691.5623652703117
60,691.5588704546777
61,691.5570704852523
62,691.5569827401495
63,691.5586175644477
64,691.561978568816
65,691.5670629327949
66,691.5738617345405
67,691.5823603321332
68,691.5925388172327
69,691.6043725529249
70,691.6178327995574
71,691.6328874283178
72,691.6495017195135
73,691.667639235417
74,691.6872627451943
75,691.7083351678219
76,691.7308204939837
77,691.7546846490873
78,691.7798962628609
79,691.8064273155535
80,691.8342536376548
81,691.8633552489802
82,691.8937165324037
83,691.925326245785
84,691.9581773810257
85,691.9922668822455
86,692.0275952392022
87,692.0641659789493
88,692.1019850850329
89,692.1410603755089
90,692.1814008692845
91,692.2230161675203
92,692.2659158736775
93,692.3101090711641
94,692.3556038714412
95,692.4024070388325
96,692.4505236912215
97,692.4999570683636
98,692.5507083533186
99,692.6027765295569
100,692.6561582574543
101,692.7108477589255
102,692.7668367056909
103,692.8241141101904
104,692.8826662150526
105,692.9424763704191
106,693.0035248847125
107,693.0657888353882
108,693.1292418284224
109,693.1938536970355
110,693.2595901335778
111,693.3264122549937
112,693.3942761097543
113,693.4631321403217
114,693.532924619897
115,693.6035910854657
116,693.675061789774
117,693.7472591926705
118,693.8200975097888
119,693.8934823367392
120,693.967310369707
121,694.0414692454649
122,694.1158375226527
123,694.1902848218731
124,694.2646721365911
125,694.3388523214791
126,694.4126707599615
127,694.4859662073281
128,694.5585717989716
129,694.6303162062557
130,694.7010249177915
131,694.7705216217229
132,694.8386296631606
133,694.9051735504237
134,694.9699804857066
135,695.0328818989329
136,695.0937149654449
137,695.1523240887834
138,695.2085623296554
139,695.2622927598702
140,695.3133897147305
141,695.3617399126472
142,695.4072434120286
143,695.4498143835092
144,695.4893816855644
145,695.5258892390214
146,695.559296200333
147,695.5895769361567
148,695.61672080343
149,695.6407317394592
150,695.6616276661671
151,695.6794397142277
152,695.6942112782494
153,695.7059969212845
154,695.7148611511328
155,695.7208770899346
156,695.7241250542247
157,695.7246910590775
158,695.7226652609908
159,695.7181403606779
160,695.7112099960431
161,695.7019671632152
162,695.6905027075425
163,695.6769039269004
164,695.6612533270655
165,695.6436275639486
166,695.6240966014785
167,695.6027231077009
168,695.5795621040184
169,695.5546608717997
170,695.528059107735
171,695.4997893070779
172,695.4698773442947
173,695.438343215113
174,695.4052019034884
175,695.3704643402451
176,695.334138423378
177,695.2962300700386
178,695.2567442678971
179,695.2156860938563
180,695.1730616747316
181,695.1288790746579
182,695.0831491016681
183,695.0358860299145
184,694.9871082382542
185,694.9368387727462
186,694.8851058474094
187,694.831943299436
188,694.7773910096823
189,694.7214952891976
190,694.6643092221591
191,694.6058929472529
192,694.5463138536984
193,694.4856466643054
194,694.4239733761531
195,694.3613830317697
196,694.297971302748
197,694.2338398824871
198,694.1690957002085
199,694.1038499804624
200,694.038217180644
201,693.9723138450713
202,693.9062574184073
203,693.8401650625977
204,693.7741525196104
205,693.7083330585202
206,693.6428165415695
207,693.5777086394849
208,693.5131102200188
209,693.4491169248938
210,693.385818940005
211,693.3233009531399
212,693.2616422840296
213,693.2009171656968
214,693.141195156161
215,693.082541664686
216,693.0250185827016
217,692.9686850128816
218,692.9135980897169
219,692.859813881007
220,692.8073883520744
221,692.7563783647855
222,692.7068426737694
223,692.6588428744489
224,692.6124442542033
225,692.5677165012072
226,692.5247342337892
227,692.4835773232622
228,692.4443309943134
229,692.4070856998716
230,692.3719367791173
231,692.3389839126704
232,692.3083303876351
233,692.2800821843954
234,692.2543469031926
235,692.2312325581606
236,692.2108462713485
237,692.1932928975032
238,692.1786736067082
239,692.1670844487411
240,692.1586149183976
241,692.1533465348455
242,692.1513514431961
243,692.152691045117
244,692.157414667162
245,692.1655582790222
246,692.1771432770921
247,692.1921753498748
248,692.2106434412298
249,692.2325188277517
250,692.2577543287638
251,692.2862836699089
252,692.3180210233406
253,692.3528607506274
254,692.3906773781222
255,692.431325833992
256,692.47464196795
257,692.5204433605387
258,692.5685304124817
259,692.61868768927
260,692.6706854835113
261,692.7242815487782
262,692.7792229551809
263,692.8352480191514
264,692.8920882657877
265,692.9494703888146
266,693.0071181805399
267,693.0647544129438
268,693.122102660212
269,693.1788890604406
270,693.2348440185193
271,693.2897038524586
272,693.3432123813421
273,693.3951224470113
274,693.4451973576137
275,693.4932122409056
276,693.5389552973747
277,693.5822289468842
278,693.6228508672394
279,693.6606549268902
280,693.6954920151298
281,693.7272307719649
282,693.7557582170111
283,693.7809802724299
284,693.8028221701093
285,693.8212287309362
286,693.8361645065727
287,693.8476137802261
288,693.8555804279291
289,693.8600876435036
290,693.8611775302927
291,693.858910562089
292,693.8533649136795
293,693.8446356591088
294,693.8328338366747
295,693.8180853851817
296,693.800529962856
297,693.7803196642938
298,693.7576176506793
299,693.7325967056616
300,693.7054377255319
301,693.676328149609
302,693.6454603372122
303,693.6130299018777
304,693.5792340191139
305,693.5442697277857
306,693.5083322461198
307,693.4716133216032
308,693.4342996302022
309,693.3965712360088
310,693.3586001199926
311,693.320548786784
312,693.2825689599007
313,693.244800377028
314,693.2073696981095
315,693.1703895412815
316,693.1339576647126
317,693.0981563137628
318,693.0630517504947
319,693.0286939765508
320,692.9951166524363
321,692.9623372084361
322,692.9303571374601
323,692.89916246058
324,692.868724361255
325,692.8389999892531
326,692.8099334347604
327,692.7814568670362
328,692.7534918255368
329,692.7259506494695
330,692.6987380331865
331,692.671752695387
332,692.6448891481766
333,692.6180395488088
334,692.5910956131019
335,692.5639505658107
336,692.5365011016538
337,692.5086493317713
338,692.4803046905301
339,692.4513857723202
340,692.4218220583181
341,692.3915554862
342,692.3605418170828
343,692.328751761949
344,692.2961718397653
345,692.2628049500253
346,692.2286706543055
347,692.1938051733326
348,692.1582611157003
349,692.1221069611757
350,692.0854263249909
351,692.0483170270612
352,692.0108899808545
353,691.9732679060492
354,691.9355838656124
355,691.897979634543
356,691.8606039195304
357,691.8236104588209
358,691.7871560351185
359,691.7513984312095
360,691.7164943518168
361,691.6825973310457
362,691.649855645331
363,691.6184102555953
364,691.5883928067333
365,691.5599237159943
366,691.5331103827514
367,691.5080455487343
368,691.4848058316109
369,691.4634504508401
370,691.444020165974
371,691.4265364514098
372,691.4110009327838
373,691.3973951061253
374,691.3856803536585
375,691.3757982635467
376,691.3676712551993
377,691.3612035036716
378,691.3562821443762
379,691.3527787260593
380,691.3505508716372
381,691.3494441058639
382,691.3492938133664
383,691.3499272956532
384,691.3511658985345
385,691.352827181667
386,691.3547271007623
387,691.3566821727871
388,691.3585115978874
389,691.3600393196319
390,691.3610960145925
391,691.3615210074282
392,691.361164104071
393,691.3598873248745
394,691.3575665085193
395,691.3540927526457
396,691.3493736609963
397,691.3433343769045
398,691.335918393836
399,691.3270881406268
400,691.3168253412715
401,691.3051311494182
402,691.292026059142
403,691.2775495965369
404,691.2617597995402
405,691.2447324949562
406,691.2265603819135
407,691.2073519302992
408,691.1872301024256
409,691.1663309093534
410,691.1448018212217
411,691.1228000602767
412,691.100490811674
413,691.0780453893722
414,691.0556393927806
415,691.0334508831476
416,691.0116585968177
417,690.9904401992633
418,690.9699705751664
419,690.9504201489193
420,690.9319532350856
421,690.9147264255361
422,690.8988870253016
423,690.8845715512069
424,690.8719043078709
425,690.8609960575037
426,690.8519428032394
427,690.8448247081716
428,690.8397051722549
429,690.8366300876825
430,690.8356272915798
431,690.8367062326245
432,690.8398578648374
433,690.8450547779905
434,690.8522515715009
435,690.8613854779272
436,690.8723772411619
437,690.8851322493327
438,690.8995419117632
439,690.9154852567756
440,690.9328307184118
441,690.9514380771913
442,690.9711605202143
443,690.9918467866685
444,691.0133433658684
445,691.0354967157133
446,691.0581554671501
447,691.0811725736944
448,691.1044073584553
449,691.1277274104278
450,691.1510102877756
451,691.1741449938382
452,691.1970331980558
453,691.2195901792767
454,691.2417454748662
455,691.2634432264942
456,691.2846422222217
457,691.305315643988
458,691.3254505391077
459,691.3450470432284
460,691.364117389826
461,691.3826847469688
462,691.400781924625
463,691.4184499950122
464,691.4357368665073
465,691.4526958506837
466,691.4693842610884
467,691.4858620784441
468,691.5021907094564
469,691.5184318578291
470,691.5346465194621
471,691.5508941109384
472,691.5672317403063
473,691.5837136274423
474,691.6003906741502
475,691.6173101730335
476,691.6345156342499
477,691.6520467046247
478,691.6699391547185
479,691.6882249134911
480,691.706932134451
481,691.7260852813325
482,691.7457052252639
483,691.7658093475135
484,691.7864116422871
485,691.8075228147031
486,691.8291503704334
487,691.8512986938855
488,691.8739691107002
489,691.8971599299143
490,691.9208664640739
491,691.9450810320529
492,691.9697929567038
493,691.9949885745299
494,692.020651275683
495,692.0467615901649
496,692.0732973315406
497,692.1002338032891
498,692.127544065251
499,692.155199250559
500,692.1831689201067
501,692.2114214425974
502,692.2399243914192
503,692.2686449532554
504,692.2975503469202
505,692.326608253758
506,692.3557872624198
507,692.3850573310435
508,692.4143902687022
509,692.4437602351414
510,692.4731442543123
511,692.5025227345094
512,692.5318799855722
513,692.5612047200195
514,692.5904905205591
515,692.6197362533709
516,692.6489464058249
517,692.6781313272222
518,692.7073073495619
519,692.7364967624529
520,692.7657276151288
521,692.7950333226297
522,692.8244520641982
523,692.8540259781499
524,692.8838001744406
525,692.9138215993518
526,692.9441377941577
527,692.9747955910921
528,693.0058397864854
529,693.037311826154
530,693.0692485360511
531,693.1016809314011
532,693.1346331354957
533,693.1681214323809
534,693.2021534676159
535,693.2367276009071
536,693.2718324056859
537,693.3074463058807
538,693.3435373401245
539,693.3800630457307
540,693.4169704557851
541,693.4541962034011
542,693.4916667310698
543,693.529298611343
544,693.5669989946947
545,693.604666206356
546,693.6421905134964
547,693.6794550777714
548,693.7163370977056
549,693.7527091323972
550,693.7884405847975
551,693.8233993109819
552,693.8574533114141
553,693.890472451432
554,693.92233015366
555,693.9529050078988
556,693.9820822537706
557,694.0097551035125
558,694.0358258823135
559,694.0602069705457
560,694.0828215381262
561,694.1036040677461
562,694.1225006704086
563,694.1394692021888
564,694.1544791949453
565,694.1675116169589
566,694.1785584829123
567,694.1876223352292
568,694.1947156192168
569,694.1998599726576
570,694.2030854468919
571,694.2044296717938
572,694.2039369739731
573,694.2016574594179
574,694.1976460788916
575,694.1919617031402
576,694.1846662416118
577,694.1758238412607
578,694.1655002002732
579,694.1537620242235
580,694.140676639363
581,694.1263117616871
582,694.1107354047815
583,694.0940158976448
584,694.0762219776738
585,694.057422923925
586,694.0376886999733
587,694.017090081861
588,693.9956987532729
589,693.9735873561083
590,693.9508294883456
591,693.9274996413245
592,693.9036730667916
593,693.8794255637887
594,693.8548331784742
595,693.8299718146679
596,693.804916758381
597,693.7797421272055
598,693.7545202640624
599,693.7293210995764
600,693.7042115058327
601,693.679254659473
602,693.6545094285653
603,693.6300297977002
604,693.6058643484014
605,693.5820558136725
606,693.5586407225877
607,693.5356491430438
608,693.5131045219906
609,693.4910236166291
610,693.4694165076663
611,693.448286684523
612,693.4276311909205
613,693.4074408181982
614,693.3877003342723
615,693.3683887378687
616,693.3494795280425
617,693.3309409766783
618,693.3127363898695
619,693.2948243476569
620,693.2771589206139
621,693.2596898708246
622,693.2423628502719
623,693.2251196139127
624,693.2078982706705
625,693.1906336006134
626,693.1732574658932
627,693.1556993359621
628,693.1378869374628
629,693.1197470287632
630,693.1012062888553
631,693.0821923006739
632,693.062634602056
633,693.0424657755049
634,693.0216225488832
635,693.0000468791781
636,692.9776869895453
637,692.9544983296415
638,692.9304444346662
639,692.9054976686813
640,692.8796398473389
641,692.8528627391894
642,692.8251684428387
643,692.7965696331744
644,692.7670896678061
645,692.7367625471572
646,692.7056327295086
647,692.6737548145898
648,692.6411931204257
649,692.6080211814475
650,692.5743211900841
651,692.5401833936583
652,692.5057054493516
653,692.4709917365021
654,692.4361526281202
655,692.4013037283866
656,692.3665650851941
657,692.332060384416
658,692.297916126159
659,692.2642607749941
660,692.2312238695202
661,692.1989350750083
662,692.1675231670001
663,692.137114939873
664,692.1078340371578
665,692.0797996990649
666,692.0531254224773
667,692.0279175352163
668,692.0042737006205
669,691.9822813865798
670,691.9620163491959
671,691.9435411910575
672,691.9269040571182
673,691.9121375281765
674,691.8992577640362
675,691.888263937965
676,691.8791379934809
677,691.8718447435068
678,691.8663323191688
679,691.8625329616947
680,691.860364137667
681,691.8597299451769
682,691.8605227656856
683,691.862625105407
684,691.8659115633952
685,691.8702508612837
686,691.8755078701507
687,691.8815455735901
688,691.8882269146853
689,691.8954164879651
690,691.9029820525541
691,691.9107958568414
692,691.918735777341
693,691.926686284829
694,691.9345392574011
695,691.9421946600527
696,691.9495611037796
697,691.9565562874873
698,691.963107317558
699,691.9691508959537
700,691.9746333692846
701,691.9795106369631
702,691.9837479242583
703,691.9873194343893
704,691.9902079014047
705,691.992404070684
706,691.9939061358054
707,691.9947191597266
708,691.9948545047183
709,691.9943292897062
710,691.993165888195
711,691.9913914773882
712,691.9890376480377
713,691.9861400806543
714,691.9827382857205
715,691.9788753978492
716,691.974598011781
717,691.9699560516806
718,691.9650026689641
719,691.9597941629191
720,691.9543899126675
721,691.9488523020268
722,691.9432466139036
723,691.9376408698739
724,691.9321055937347
725,691.9267134830242
726,691.9215389765624
727,691.9166577072203
728,691.9121458292889
729,691.9080792135892
730,691.9045325139452
731,691.9015781230488
732,691.8992850472131
733,691.8977177348078
734,691.8969348953482
735,691.8969883484376
736,691.8979219433455
737,691.8997705891486
738,691.9025594309664
739,691.9063031989114
740,691.9110057442972
741,691.9166597673776
742,691.9232467358787
743,691.9307369909559
744,691.9390900319244
745,691.9482549627742
746,691.9581710752324
747,691.968768537811
748,691.9799691601016
749,691.9916872075527
750,692.0038302514515
751,692.0163000463115
752,692.0289934292266
753,692.0418032352737
754,692.0546192239416
755,692.0673290148685
756,692.079819034563
757,692.0919754777482
758,692.1036852882556
759,692.114837165148
760,692.1253225978833
761,692.1350369285038
762,692.1438804309629
763,692.1517593903
764,692.1585871577967
765,692.1642851522349
766,692.1687837727079
767,692.1720231864266
768,692.1739539573563
769,692.174537489647
770,692.1737462720317
771,692.1715639208848
772,692.1679850266997
773,692.1630148121142
774,692.1566686128547
775,692.1489711984716
776,692.1399559568542
777,692.1296639727299
778,692.1181430340685
779,692.1054466025967
780,692.0916327871602
781,692.0767633607165
782,692.0609028601785
783,692.0441178011175
784,692.0264760287613
785,692.0080462181206
786,691.988897531859
787,691.9690994414586
788,691.9487217112987
789,691.9278345366246
790,691.9065088177044
791,691.8848165447318
792,691.8628312602481
793,691.8406285581896
794,691.8182865741845
795,691.7958864241837
796,691.7735125582967
797,691.7512530099568
798,691.7291995327982
799,691.7074476258911
800,691.6860964495634
801,691.6652486282746
802,691.6450099285025
803,691.625488795452
804,691.6067957354509
805,691.5890425390988
806,691.5723413509968
807,691.556803603586
808,691.542538843314
809,691.5296534849272
810,691.5182495335624
811,691.5084233150387
812,691.5002642529778
813,691.4938537277076
814,691.4892640473248
815,691.4865575566553
816,691.4857859048996
817,691.4869894867567
818,691.49019706508
819,691.4954255768611
820,691.5026801188119
821,691.5119541029054
822,691.5232295654613
823,691.5364776072925
824,691.5516589387573
825,691.5687245021625
826,691.5876161441159
827,691.6082673122106
828,691.6306037538907
829,691.6545441996768
830,691.680001016652
831,691.7068808203051
832,691.7350850348599
833,691.764510396833
834,691.7950494037103
835,691.8265907151051
836,691.8590195144368
837,691.8922178380062
838,691.9260648812099
839,691.9604372997608
840,691.9952095318731
841,692.0302541699875
842,692.0654424079091
843,692.1006445842136
844,692.1357308357298
845,692.1705718638073
846,692.2050398017049
847,692.2390091588593
848,692.2723578117402
849,692.3049680110051
850,692.3367273757514
851,692.3675298443676
852,692.397276550119
853,692.4258765927633
854,692.4532476857022
855,692.4793166676808
856,692.5040198757347
857,692.5273033814926
858,692.5491230966011
859,692.5694447551267
860,692.5882437810873
861,692.6055050480041
862,692.621222535835
863,692.6353988904882
864,692.648044892841
865,692.659178846904
866,692.6688258990444
867,692.6770173009237
868,692.6837896275736
869,692.6891839591115
870,692.6932450311939
871,692.6960203578362
872,692.6975593331646
873,692.6979123258623
874,692.6971297883592
875,692.6952614085756
876,692.6923553337435
877,692.6884574939686
878,692.6836110486023
879,692.6778559707992
880,692.6712287742613
881,692.663762373469
882,692.6554860593493
883,692.6464255688281
884,692.6366032279851
885,692.626038152518
886,692.6147464936158
887,692.6027417196367
888,692.5900349239918
889,692.5766351493941
890,692.5625497187049
891,692.547784561477
892,692.5323445226162
893,692.5162336376341
894,692.4994553612229
895,692.4820127443451
896,692.4639085672686
897,692.4451454459083
898,692.4257259323933
899,692.4056526290691
900,692.3849283313633
901,692.363556210772
902,692.3415400445972
903,692.3188844936251
904,692.2955954227635
905,692.2716802538374
906,692.2471483364834
907,692.222011323719
908,692.196283541227
909,692.1699823405626
910,692.1431284269376
911,692.1157461553189
912,692.0878637949653
913,692.0595137685957
914,692.0307328743269
915,692.0015624965926
916,691.9720488096431
917,691.9422429753007
