frame_number,force
0,692.3067020014655
1,692.3007117810887
2,692.2947821878353
3,692.2889708154474
4,692.283329352408
5,692.2779010058812
6,692.2727183111595
7,692.2678013732707
8,692.2631565608312
9,692.2587756611296
10,692.2546355001015
11,692.2506980252319
12,692.2469108419219
13,692.2432081824138
14,692.2395122688309
15,692.2357350120861
16,692.2317799758614
17,692.2275445338678
18,692.222922152772
19,692.2178047346329
20,692.2120849509927
21,692.205658501022
22,692.1984262334229
23,692.190296088192
24,692.1811848358758
25,692.1710196090714
26,692.1597392280095
27,692.1472953240792
28,692.1336532686345
29,692.1187929176886
30,692.1027091823105
31,692.0854124318091
32,692.0669287354451
33,692.0472999467144
34,692.0265836297218
35,692.0048528213761
36,691.9821956185361
37,691.9587145763738
38,691.9345259043374
39,691.909758451953
40,691.8845524878119
41,691.8590582861666
42,691.8334345424728
43,691.8078466429748
44,691.7824648153097
45,691.7574621843663
46,691.7330127486933
47,691.7092892835452
48,691.6864611782547
49,691.6646922354273
50,691.6441384939408
51,691.6249461718905
52,691.6072498414401
53,691.5911709363143
54,691.5768166600411
55,691.5642793224308
56,691.5536360935255
57,691.5449491310839
58,691.5382660101767
59,691.5336203658788
60,691.5310326557462
61,691.5305109553024
62,691.532051715204
63,691.5356404359964
64,691.5412522546795
65,691.5488524768023
66,691.5583971161316
67,691.5698335133649
68,691.5831010946861
69,691.5981323081103
70,691.6148537549127
71,691.6331875232487
72,691.6530527240316
73,691.6743672107103
74,691.6970494322577
75,691.721020338155
76,691.7462052411435
77,691.7725355462999
78,691.7999502633975
79,691.8283972310746
80,691.8578339989468
81,691.8882283366402
82,691.9195583628717
83,691.9518123086683
84,691.9849879422
85,692.0190916898969
86,692.0541374985276
87,692.0901455000713
88,692.1271405569096
89,692.165150769159
90,692.2042060204244
91,692.2443366301105
92,692.285572171315
93,692.3279405003569
94,692.3714670272296
95,692.4161742381696
96,692.4620814623348
97,692.5092048544025
98,692.5575575480165
99,692.6071499268116
100,692.6579899623911
101,692.7100835815718
102,692.763435042688
103,692.8180473098499
104,692.8739224058385
105,692.9310617069749
106,692.9894661336814
107,693.0491361931421
108,693.1100718365902
109,693.1722720987055
110,693.2357344960959
111,693.3004541794307
112,693.3664228540795
113,693.4336275010311
114,693.5020489430021
115,693.5716603100647
116,693.642425461683
117,693.7142974172609
118,693.7872168418544
119,693.8611106352946
120,693.9358906811975
121,694.0114528189943
122,694.0876761001624
123,694.1644223796116
124,694.2415362796019
125,694.3188455505353
126,694.3961618410415
127,694.4732818764901
128,694.549989027943
129,694.626055235675
130,694.701243239532
131,694.7753090630933
132,694.8480046950456
133,694.919080910039
134,694.9882901764587
135,695.0553896066076
136,695.1201439094763
137,695.1823283073747
138,695.2417313766967
139,695.2981577662467
140,695.3514307317722
141,695.4013944119652
142,695.4479157734543
143,695.4908861721736
144,695.5302225034644
145,695.565867931552
146,695.5977921991413
147,695.6259915235388
148,695.6504880886946
149,695.6713291420807
150,695.6885857030829
151,695.7023508925247
152,695.7127379061047
153,695.7198776722064
154,695.7239162446564
155,695.7250119776864
156,695.7233325183918
157,695.7190516422015
158,695.7123459592649
159,695.7033915366362
160,695.692360505093
161,695.6794177395714
162,695.664717713115
163,695.6484016259133
164,695.6305949047803
165,695.6114051561573
166,695.5909206407887
167,695.5692093228092
168,695.5463185269327
169,695.5222752103757
170,695.4970868235002
171,695.4707427021134
172,695.4432159101922
173,695.4144654383437
174,695.3844386630935
175,695.3530739815704
176,695.3203035455122
177,695.2860560194109
178,695.2502592821816
179,695.2128429930646
180,695.1737409603712
181,695.1328932786757
182,695.0902482204644
183,695.0457638789337
184,694.9994095697695
185,694.9511670175515
186,694.9010313700641
187,694.8490120883263
188,694.7951337456296
189,694.7394367419894
190,694.6819779125755
191,694.6228309862646
192,694.5620868345206
193,694.4998534402218
194,694.4362555107466
195,694.3714336650821
196,694.305543148003
197,694.2387520626575
198,694.171239153103
199,694.103191199715
200,694.034800111942
201,693.9662598185845
202,693.8977630667993
203,693.8294982447118
204,693.7616463376743
205,693.6943781185752
206,693.6278516625957
207,693.5622102657366
208,693.4975808302586
209,693.4340727575475
210,693.3717773622807
211,693.3107677944406
212,693.2510994314141
213,693.1928106875417
214,693.135924189182
215,693.0804482772272
216,693.0263788149708
217,692.9737012882824
218,692.922393184839
219,692.872426628933
220,692.8237712283144
221,692.7763970638126
222,692.7302777267278
223,692.6853932881204
224,692.641733074935
225,692.5992981356964
226,692.5581032995401
227,692.5181787580128
228,692.4795711273647
229,692.4423439817128
230,692.4065778772137
231,692.3723699003436
232,692.3398327686593
233,692.3090935091888
234,692.2802917545717
235,692.2535777213091
236,692.2291099462
237,692.2070528514581
238,692.1875741984995
239,692.1708424811559
240,692.157024296346
241,692.1462817135407
242,692.1387696512617
243,692.1346332651474
244,692.1340053570467
245,692.1370038241026
246,692.1437291755949
247,692.1542621488809
248,692.1686614551885
249,692.1869616877108
250,692.209171431333
251,692.2352716211485
252,692.2652142036162
253,692.2989211639118
254,692.3362839941822
255,692.3771636776493
256,692.4213912438478
257,692.4687689147852
258,692.5190718207155
259,692.5720502256894
260,692.6274321716135
261,692.6849264281672
262,692.7442256283485
263,692.8050094769129
264,692.8669479357964
265,692.929704309559
266,692.9929381742727
267,693.0563081172934
268,693.1194742802983
269,693.1821007180962
270,693.2438575974547
271,693.304423261129
272,693.3634861716425
273,693.4207467333106
274,693.4759189802435
275,693.5287321169559
276,693.5789319032357
277,693.6262818836319
278,693.6705644732394
279,693.7115819202922
280,693.7491571677622
281,693.7831346315687
282,693.8133809040226
283,693.8397853780023
284,693.8622607729645
285,693.8807435358226
286,693.8951940945406
287,693.9055969563092
288,693.9119606533868
289,693.91431754206
290,693.9127234579822
291,693.9072572274849
292,693.8980200273121
293,693.8851345773307
294,693.8687441514439
295,693.849011404815
296,693.8261170320758
297,693.8002582802852
298,693.7716473388466
299,693.7405096200852
300,693.7070819334945
301,693.6716105488149
302,693.6343491438761
303,693.595556644124
304,693.5554949754991
305,693.5144267624702
306,693.4726130057682
307,693.430310770429
308,693.3877709054514
309,693.3452358060147
310,693.3029372240213
311,693.261094134746
312,693.21991067284
313,693.179574155788
314,693.1402532177829
315,693.1020960849507
316,693.0652290328899
317,693.029755073216
318,692.9957529117831
319,692.9632762077136
320,692.9323531437003
321,692.902986299802
322,692.875152812231
323,692.8488048020341
324,692.8238700744067
325,692.8002531045028
326,692.777836326101
327,692.7564817250282
328,692.7360327238293
329,692.7163163403136
330,692.6971456074613
331,692.6783222444783
332,692.6596395643205
333,692.640885594853
334,692.6218463807959
335,692.6023094236302
336,692.5820672119933
337,692.5609207971631
338,692.5386833675666
339,692.515183761124
340,692.4902698273347
341,692.4638115308899
342,692.4357036900626
343,692.4058682619735
344,692.3742561106917
345,692.3408482193768
346,692.3056563363268
347,692.2687230735144
348,692.2301214989283
349,692.1899542793201
350,692.1483524364666
351,692.1054737711457
352,692.0615009824027
353,692.0166394796402
354,691.9711148737483
355,691.9251701489799
356,691.8790625471391
357,691.8330602205851
358,691.7874387186586
359,691.7424773630061
360,691.698455550408
361,691.6556490105285
362,691.6143260474283
363,691.5747438039703
364,691.537144600405
365,691.5017524084236
366,691.4687695255253
367,691.4383735070576
368,691.4107143987113
369,691.3859123037781
370,691.3640553249018
371,691.3451979324293
372,691.3293598170407
373,691.3165252762018
374,691.3066431676705
375,691.2996274486394
376,691.2953583069173
377,691.2936838719745
378,691.2944224639622
379,691.2973653064946
380,691.3022796094266
381,691.3089119284648
382,691.3169917224917
383,691.3262350446417
384,691.3363483122185
385,691.3470321025964
386,691.3579849202624
387,691.3689068803625
388,691.3795032635691
389,691.3894879179326
390,691.3985865080211
391,691.4065396247868
392,691.413105759509
393,691.4180641160016
394,691.4212172049347
395,691.4223931499725
396,691.4214476437121
397,691.4182655158853
398,691.4127619027394
399,691.4048830224573
400,691.3946065648955
401,691.3819417022269
402,691.3669287282404
403,691.3496383392627
404,691.3301705746269
405,691.3086534361521
406,691.2852412043068
407,691.2601124645151
408,691.2334678540391
409,691.205527546069
410,691.1765285065268
411,691.1467215818694
412,691.1163684914113
413,691.0857388022807
414,691.0551069597058
415,691.0247494270062
416,690.9949419579791
417,690.9659569893706
418,690.9380611184805
419,690.9115126288377
420,690.8865590410429
421,690.863434685514
422,690.8423583089402
423,690.8235307328384
424,690.8071325854976
425,690.793322135132
426,690.7822332626424
427,690.7739736207863
428,690.7686230286957
429,690.7662321488554
430,690.7668214913102
431,690.7703807863721
432,690.7768687606094
433,690.7862133432643
434,690.79831232576
435,690.8130344971729
436,690.830221277962
437,690.8496888628493
438,690.8712308575243
439,690.8946213624392
440,690.9196184354844
441,690.9459678587517
442,690.9734071360186
443,691.0016696502654
444,691.0304889137867
445,691.0596028456235
446,691.0887580049491
447,691.1177136915364
448,691.146245806525
449,691.1741503641164
450,691.2012465594689
451,691.2273793179038
452,691.2524212661143
453,691.2762740783891
454,691.298869164836
455,691.3201676864254
456,691.3401599028085
457,691.3588638818908
458,691.3763236232257
459,691.3926066686441
460,691.4078012917197
461,691.4220133707571
462,691.435363054972
463,691.4479813299193
464,691.4600065815679
465,691.4715812546117
466,691.4828486969508
467,691.4939502709618
468,691.5050227916661
469,691.5161963287229
470,691.5275923913151
471,691.5393225071814
472,691.5514872066841
473,691.5641754183545
474,691.577464263845
475,691.5914192113942
476,691.6060945213402
477,691.6215339056993
478,691.6377713275142
479,691.654831877173
480,691.6727326749876
481,691.6914837612542
482,691.7110889463688
483,691.7315466002829
484,691.7528503627126
485,691.7749897583953
486,691.7979507064119
487,691.82171591475
488,691.8462651495087
489,691.8715753681183
490,691.8976207146924
491,691.9243723936199
492,691.9517984577884
493,691.9798635619842
494,692.0085287357158
495,692.0377512240304
496,692.0674844334837
497,692.0976780046843
498,692.1282780131039
499,692.1592272815626
500,692.1904657792296
501,692.2219310846771
502,692.2535588989028
503,692.2852836037256
504,692.3170388701323
505,692.3487583282716
506,692.3803763142267
507,692.4118287086935
508,692.4430538789888
509,692.4739937276153
510,692.504594840548
511,692.5348097204383
512,692.5645980827984
513,692.5939281827983
514,692.6227781276335
515,692.6511371203463
516,692.6790065779697
517,692.7064010655797
518,692.7333489826088
519,692.7598929291561
520,692.7860896759825
521,692.8120096717345
522,692.8377360489188
523,692.8633631319864
524,692.888994494757
525,692.9147406485347
526,692.9407164613699
527,692.9670384124496
528,692.9938217763588
529,693.0211778193567
530,693.0492110844729
531,693.0780168430541
532,693.1076787854144
533,693.1382670055294
534,693.169836308979
535,693.2024248468596
536,693.2360530563453
537,693.2707228769094
538,693.306417212252
539,693.3430996146209
540,693.3807141720621
541,693.4191855821917
542,693.4584194075094
543,693.4983025303305
544,693.538703851839
545,693.5794752965692
546,693.6204531836023
547,693.6614600101175
548,693.7023066661421
549,693.7427950660856
550,693.7827211485953
551,693.8218781657762
552,693.8600601559274
553,693.8970654712248
554,693.93270022009
555,693.9667814915181
556,693.9991402541078
557,694.0296238541438
558,694.0580980630184
559,694.0844486421025
560,694.1085824080692
561,694.1304277980987
562,694.1499349512713
563,694.1670753360283
564,694.1818409627538
565,694.194243228178
566,694.2043114464205
567,694.212091127415
568,694.2176420636815
569,694.2210362807912
570,694.2223558965447
571,694.2216909208871
572,694.2191370197527
573,694.2147932702715
574,694.2087599527671
575,694.2011364473753
576,694.1920193200477
577,694.1815006898138
578,694.169666964229
579,694.1565980103802
580,694.1423667949234
581,694.1270394842473
582,694.1106759546166
583,694.0933306310316
584,694.0750535577006
585,694.0558916027852
586,694.0358897111369
587,694.0150921349745
588,693.9935435899346
589,693.9712902998349
590,693.9483809033278
591,693.9248671962922
592,693.9008046792123
593,693.8762528781693
594,693.8512754160538
595,693.825939823064
596,693.8003170900146
597,693.7744809880863
598,693.7485072014322
599,693.7224723317247
600,693.6964528299052
601,693.670523897974
602,693.644758394621
603,693.6192257787567
604,693.5939911322091
605,693.569114307692
606,693.5446492408227
607,693.5206434448761
608,693.4971376842298
609,693.4741658075839
610,693.4517547162119
611,693.4299244398561
612,693.4086882895596
613,693.3880530544693
614,693.3680192116979
615,693.3485811234796
616,693.3297271974703
617,693.3114399806163
618,693.293696152939
619,693.2764663976656
620,693.2597151484472
621,693.2434002388533
622,693.2274724943401
623,693.2118753186867
624,693.1965443431106
625,693.1814072200547
626,693.1663836423025
627,693.1513856499785
628,693.1363182617728
629,693.1210804396482
630,693.1055663695769
631,693.0896670156128
632,693.0732718866977
633,693.0562709501369
634,693.0385566280646
635,693.0200258130072
636,693.0005818332168
637,692.980136297458
638,692.9586107625853
639,692.9359381932345
640,692.9120642073152
641,692.8869481107386
642,692.8605637188925
643,692.8328999507113
644,692.8039611746722
645,692.773767290925
646,692.7423535532448
647,692.7097701655905
648,692.6760817160114
649,692.6413665180953
650,692.6057159137047
651,692.5692335622545
652,692.5320347168196
653,692.494245477069
654,692.4560020148549
655,692.4174497801469
656,692.3787427001506
657,692.3400423774441
658,692.301517275423
659,692.2633418570994
660,692.2256956254612
661,692.1887620091127
662,692.1527270476394
663,692.1177778472963
664,692.0841007851066
665,692.0518794362819
666,692.0212921998764
667,691.9925096154141
668,691.9656914014198
669,691.9409832952704
670,691.9185138169474
671,691.8983911062394
672,691.880699992107
673,691.8654994464453
674,691.852820555104
675,691.8426651130584
676,691.8350049243314
677,691.8297818599531
678,691.8269086952448
679,691.8262707129304
680,691.8277280253493
681,691.8311185370707
682,691.8362614370413
683,691.8429610817249
684,691.8510111143556
685,691.8601986605186
686,691.87030844244
687,691.8811266645168
688,691.8924445457423
689,691.9040614101748
690,691.9157872865393
691,691.9274450051282
692,691.9388718124848
693,691.9499205514251
694,691.9604604707464
695,691.9703777283353
696,691.979575633361
697,691.9879746469658
698,691.9955121378383
699,692.0021418776972
700,692.0078332647792
701,692.0125702773493
702,692.0163501783705
703,692.0191820132553
704,692.0210849614934
705,692.0220866152247
706,692.022221261748
707,692.0215282437972
708,692.0200504611836
709,692.017833061193
710,692.0149223498021
711,692.0113649481422
712,692.0072072149559
713,692.0024949447612
714,691.9972733297038
715,691.9915871522026
716,691.9854811694757
717,691.9790006598745
718,691.9721921103622
719,691.9651040214978
720,691.9577877909175
721,691.9502986176335
722,691.9426963562895
723,691.9350462477694
724,691.9274194606592
725,691.9198933917157
726,691.9125516841624
727,691.9054839257598
728,691.898784989189
729,691.892553987417
730,691.8868928445434
731,691.8819045208647
732,691.8776909614579
733,691.8743508520156
734,691.8719772719918
735,691.870655341616
736,691.8704599642131
737,691.8714537638101
738,691.8736853072807
739,691.8771876777556
740,691.8819774352193
741,691.8880539741541
742,691.8953992759219
743,691.9039780475991
744,691.9137382260925
745,691.9246118053981
746,691.9365159241204
747,691.9493541372865
748,691.963017796845
749,691.9773874817404
750,691.9923344440829
751,692.0077220582251
752,692.0234072663327
753,692.0392420132349
754,692.0550746660977
755,692.070751423414
756,692.0861177269095
757,692.1010196952125
758,692.1153056014977
759,692.1288274191876
760,692.1414424546759
761,692.1530150704278
762,692.1634184807549
763,692.172536582653
764,692.1802657662752
765,692.1865166332275
766,692.1912155379636
767,692.1943058615806
768,692.1957489328973
769,692.1955245323036
770,692.1936309452137
771,692.1900845614734
772,692.1849190349096
773,692.178184025369
774,692.1699435534541
775,692.1602740119957
776,692.149261896437
777,692.1370013321203
778,692.123591485799
779,692.1091339543041
780,692.0937302296464
781,692.0774793449467
782,692.0604758013067
783,692.0428078566512
784,692.0245562297179
785,692.0057932497451
786,691.9865824713323
787,691.9669787659328
788,691.9470288859072
789,691.9267724744307
790,691.9062434718192
791,691.8854718485665
792,691.8644855749901
793,691.84331271727
794,691.8219835378848
795,691.800532484908
796,691.7789999802653
797,691.7574339517824
798,691.7358910859415
799,691.7144377998037
800,691.6931509345552
801,691.6721181577708
802,691.6514380389442
803,691.6312197516953
804,691.6115823638576
805,691.5926536979856
806,691.574568772869
807,691.5574678672076
808,691.5414942745118
809,691.5267918381184
810,691.5135023652978
811,691.5017630213362
812,691.4917037998536
813,691.4834451560639
814,691.4770958778245
815,691.4727512573535
816,691.4704916137805
817,691.4703812012879
818,691.4724675203132
819,691.4767810332885
820,691.4833352723956
821,691.4921273118405
822,691.5031385599403
823,691.5163358109943
824,691.531672487905
825,691.5490900035043
826,691.5685191696047
827,691.5898815881509
828,691.6130909686294
829,691.6380543279141
830,691.6646730391398
831,691.6928437025832
832,691.7224588174449
833,691.7534072461006
834,691.7855744816814
835,691.8188427446781
836,691.8530909364757
837,691.8881944750239
838,691.9240250457019
839,691.9604503220439
840,691.9973337324241
841,692.0345343558334
842,692.0719070228263
843,692.1093026845398
844,692.1465690941085
845,692.1835518154783
846,692.2200955366648
847,692.2560456311585
848,692.2912498949263
849,692.3255603860368
850,692.3588352962781
851,692.3909407801751
852,692.421752662579
853,692.4511579536314
854,692.4790561207327
855,692.5053600913326
856,692.529996979747
857,692.5529085445711
858,692.5740513920148
859,692.5933969450989
860,692.6109311985784
861,692.6266542752846
862,692.6405797947358
863,692.6527340636455
864,692.6631551017356
865,692.6718915226928
866,692.6790012954381
867,692.6845504122397
868,692.6886114864782
869,692.6912622947674
870,692.6925842688461
871,692.6926609385611
872,692.6915763347982
873,692.6894133800712
874,692.686252316251
875,692.6821692341797
876,692.6772347746034
877,692.6715130652494
878,692.6650609471769
879,692.6579275237343
880,692.6501540360966
881,692.6417740365417
882,692.632813806681
883,692.6232929593234
884,692.6132251666833
885,692.6026189688625
886,692.591478628823
887,692.5798050068744
888,692.5675964284973
889,692.5548495194604
890,692.5415599831622
891,692.527723292918
892,692.5133352656293
893,692.4983924788777
894,692.4828925001173
895,692.4668339195476
896,692.4502162110274
897,692.4330394720677
898,692.4153041038574
899,692.3970104882749
900,692.3781587093777
901,692.3587483562982
902,692.3387784326717
903,692.3182473837096
904,692.2971532360558
905,692.275493830424
906,692.2532671185531
907,692.2304714976995
908,692.2071061623029
909,692.1831714554108
910,692.1586692034016
911,692.1336030253595
912,692.1079786248787
913,692.0818040875687
914,692.0550902121162
915,692.0278508971068
916,692.000103598271
917,691.9718698650197
