frame_number,force
0,613.6950700000353
1,613.4604414327994
2,613.2375492278721
3,613.0372831046622
4,612.8689273585231
5,612.7395652085333
6,612.6536970788812
7,612.6130886275988
8,612.6168256669761
9,612.6615265624753
10,612.7416601967964
11,612.8499312916465
12,612.9777086469088
13,613.1154843364232
14,613.2533678820818
15,613.3816277497349
16,613.4912794103718
17,613.5746939671494
18,613.6261836720374
19,613.6425113382631
20,613.6232549654768
21,613.5709364543244
22,613.4908196084754
23,613.390324881283
24,613.2780956444565
25,613.1628513262627
26,613.0522342957311
27,612.9518705328952
28,612.8648172456919
29,612.7914867967249
30,612.730038983368
31,612.6771311669567
32,612.6288263966114
33,612.5814287630579
34,612.5320698930745
35,612.4789775810225
36,612.4214551558954
37,612.3596536697492
38,612.2942325340538
39,612.2259971428339
40,612.1555876999429
41,612.0832748553973
42,612.0088912767927
43,611.931891914649
44,611.8515022364577
45,611.7669064492272
46,611.6774484078401
47,611.5828339705894
48,611.4833077922804
49,611.3797489221298
50,611.2736334313023
51,611.1668617859283
52,611.0615053066072
53,610.9595429009744
54,610.8626288413457
55,610.7718882721351
56,610.6877204727648
57,610.609615136301
58,610.5360309717298
59,610.4644079659388
60,610.3913603568037
61,610.3130399482532
62,610.225608921185
63,610.1257464130301
64,610.0111225471089
65,609.8807756916038
66,609.7353184566058
67,609.5769079877376
68,609.4089705405016
69,609.2357430522917
70,609.0617392620089
71,608.8912511934293
72,608.727971364198
73,608.5747773189373
74,608.4336713500512
75,608.3058366578416
76,608.1917671209472
77,608.0914383803614
78,608.0044935917202
79,607.9304123357954
80,607.8686253522729
81,607.818543861748
82,607.7794943513962
83,607.7505790208877
84,607.7305068220252
85,607.7174551083281
86,607.7090241545714
87,607.7023308040147
88,607.6942505270526
89,607.6817637598386
90,607.6623111606235
91,607.6340464392797
92,607.5959165338255
93,607.5475781835676
94,607.4892261012053
95,607.4214214796156
96,607.3449782716954
97,607.26092859423
98,607.1705671642037
99,607.0755508914433
100,606.9779967976451
101,606.8805072470338
102,606.7860767515074
103,606.6978817430233
104,606.6189943754583
105,606.5520803907884
106,606.4991362591574
107,606.4612934768028
108,606.4386844878138
109,606.4303539620612
110,606.4342234059213
111,606.4471526515325
112,606.4651488540829
113,606.4837346016311
114,606.4984247140666
115,606.5052211808054
116,606.5010408012445
117,606.4840218038846
118,606.4536834065668
119,606.4109286610659
120,606.3578968548616
121,606.2976924714643
122,606.2340348816496
123,606.170874956035
124,606.112012813595
125,606.0607392439621
126,606.0195216497647
127,605.9897608951435
128,605.9716501982891
129,605.9641602722878
130,605.9651486388273
131,605.9715580724596
132,605.979657662547
133,605.9853013917084
134,605.9842150709698
135,605.9723430985429
136,605.9462688002092
137,605.9036656274042
138,605.843675706618
139,605.7670955909557
140,605.6762946048735
141,605.574872259654
142,605.4671346918255
143,605.3575084209502
144,605.2500092170461
145,605.1478560213573
146,605.0532804434243
147,604.9675400359015
148,604.8910987267775
149,604.823898823334
150,604.7656368571489
151,604.7159801516294
152,604.6747040728762
153,604.6417601604414
154,604.6172874192058
155,604.6015646364009
156,604.5948917425576
157,604.5973938603951
158,604.608763675925
159,604.6279885712718
160,604.6531304549795
161,604.681224484439
162,604.7083434567922
163,604.7298510886309
164,604.7408427482159
165,604.7367407956001
166,604.7139734188787
167,604.670631527712
168,604.6069822235092
169,604.5257301161502
170,604.4319606481874
171,604.3327591197714
172,604.2365531563615
173,604.1522601302389
174,604.0883344216608
175,604.0518135554175
176,604.0474683577086
177,604.0771685810682
178,604.1395686814939
179,604.2301865363418
180,604.3418882545566
181,604.4657155240324
182,604.5919213984928
183,604.7110411257102
184,604.8148299114977
185,604.896945050105
186,604.9533160468583
187,604.9822085949244
188,604.9840313214138
189,604.9609587023092
190,604.9164575373502
191,604.8548092042915
192,604.7807064848159
193,604.6989667292153
194,604.6143547193482
195,604.5314704406139
196,604.4546434244021
197,604.3877891338817
198,604.3342168139742
199,604.2964153558413
200,604.2758644040538
201,604.2729142144278
202,604.286758272532
203,604.3154994632782
204,604.3562897905189
205,604.4055136297285
206,604.4589964765427
207,604.5122506679211
208,604.5607889923556
209,604.6005202832392
210,604.6281943055199
211,604.6418217039244
212,604.6409852247411
213,604.6269761946771
214,604.6027169229785
215,604.5724580017802
216,604.541272384513
217,604.5144053451141
218,604.4965725923947
219,604.4913148343976
220,604.5005065249395
221,604.5240843533326
222,604.5600257278951
223,604.6045829350054
224,604.6527597337306
225,604.6989899672947
226,604.7379421486298
227,604.7653458162414
228,604.7787259888746
229,604.7779389563974
230,604.7654229030139
231,604.7461099825814
232,604.7269862775307
233,604.7163290087407
234,604.7227064073186
235,604.753896546736
236,604.815930921256
237,604.912446389032
238,605.0444327190769
239,605.2103475685755
240,605.4064946698388
241,605.6275444746582
242,605.8671001761985
243,606.1182353260587
244,606.3739316447362
245,606.6273557355213
246,606.8719660921067
247,607.101516456435
248,607.3100615343063
249,607.4920514765702
250,607.6425474930529
251,607.7575397766306
252,607.8343179067875
253,607.8718306883474
254,607.8709683224148
255,607.8346990845673
256,607.767998579271
257,607.6775358739098
258,607.5711364379475
259,607.4571099732631
260,607.3435745585901
261,607.237900611009
262,607.1463405214087
263,607.0738259560094
264,607.0238465719486
265,606.9983172465128
266,606.997405053561
267,607.019376238063
268,607.0605744345488
269,607.1156229799253
270,607.1778719428536
271,607.2400311957391
272,607.2948890009781
273,607.3360223803315
274,607.3584355996146
275,607.3590820171505
276,607.3372218080981
277,607.2945643951753
278,607.235163751777
279,607.1650721123026
280,607.0917880759446
281,607.0235507833166
282,606.9685448580138
283,606.9340913152407
284,606.9258948472917
285,606.9474030298845
286,606.999329641544
287,607.0794064580319
288,607.1824330306982
289,607.3006668789482
290,607.4245362728473
291,607.543594365873
292,607.6475989625087
293,607.7275947151463
294,607.776869417148
295,607.7916520181167
296,607.7714482736434
297,607.7189862368895
298,607.6398306010625
299,607.5417664918197
300,607.4340393194519
301,607.3265073952803
302,607.228757191625
303,607.1492491261796
304,607.0945774049956
305,607.068919958485
306,607.073730602912
307,607.1076994415852
308,607.1669771601933
309,607.2456230847764
310,607.3362146892226
311,607.4305614778307
312,607.5204788357194
313,607.5985688193265
314,607.6589308593992
315,607.6977162885931
316,607.7134562882351
317,607.7071185803906
318,607.681877852813
319,607.642626993801
320,607.5953084806802
321,607.5461863849565
322,607.5011897351814
323,607.4654332402228
324,607.4429653531263
325,607.4367190067031
326,607.4485802964517
327,607.4794799270913
328,607.5294509239136
329,607.5976508670886
330,607.6823861864262
331,607.7811840761024
332,607.8909333644285
333,608.0080767237949
334,608.1288111433821
335,608.2492593129305
336,608.3656058918748
337,608.4742243561968
338,608.5718262058324
339,608.655641196619
340,608.7236069056928
341,608.7745340334421
342,608.8082273715702
343,608.8255652415711
344,608.8285478679062
345,608.8203085254972
346,608.805057337355
347,608.7879202391697
348,608.7746488178992
349,608.7711961490837
350,608.7831729235775
351,608.8152262092707
352,608.8704215387932
353,608.9497365281104
354,609.0517672767459
355,609.1727075035818
356,609.3066079683656
357,609.445884382445
358,609.5820216382082
359,609.7064101342448
360,609.811235948397
361,609.8903299406827
362,609.9398684861878
363,609.9588223851069
364,609.949080857707
365,609.9152322196956
366,609.8640440673115
367,609.803729096638
368,609.7430936047414
369,609.6906513653367
370,609.6537681414677
371,609.6379018571765
372,609.6460222787265
373,609.6783083667199
374,609.7321998233336
375,609.8028160919682
376,609.8836819579922
377,609.9676514159163
378,610.0479063734182
379,610.1189002983293
380,610.1771079264261
381,610.2214517224461
382,610.2533245749064
383,610.2762058362522
384,610.2949461427189
385,610.3148548323707
386,610.3407551624797
387,610.3761750852278
388,610.4228097664846
389,610.4803264889591
390,610.5465065335893
391,610.6176658051252
392,610.6892739598545
393,610.7566799019464
394,610.8158370416044
395,610.8639164982602
396,610.8997163794837
397,610.9238200338758
398,610.9385075460184
399,610.9474604654768
400,610.9553144025854
401,610.9671207212025
402,610.987785139212
403,611.0215471457511
404,611.0715396174096
405,611.1394376600612
406,611.2251978755925
407,611.3269098488819
408,611.440807594649
409,611.5614935989754
410,611.6823997045964
411,611.7964534409355
412,611.8968594893579
413,611.9778735810881
414,612.0354552463514
415,612.0677254659179
416,612.075198894308
417,612.0607894579292
418,612.0296018871527
419,611.9885261764327
420,611.9456515798926
421,611.9095171431253
422,611.8882281322868
423,611.888505145509
424,611.9147924897748
425,611.9685999758939
426,612.0482383719273
427,612.1490190171108
428,612.2638694629142
429,612.3842341348515
430,612.5011001703562
431,612.6059897973219
432,612.6917778039207
433,612.7532353883403
434,612.7872733775857
435,612.7929347464565
436,612.7712305947073
437,612.7249064819256
438,612.6581835238976
439,612.5764743070313
440,612.4860531707394
441,612.3936697765852
442,612.3061199266258
443,612.229806005328
444,612.1703208778825
445,612.1320837717935
446,612.1180600745764
447,612.1296061955408
448,612.1664728879542
449,612.2269626685269
450,612.3081924763902
451,612.4064007390072
452,612.5172625507229
453,612.6361985128336
454,612.758654900576
455,612.8803181759299
456,612.9972419677904
457,613.1059054833509
458,613.2032493706766
459,613.2867244165499
460,613.3543553689781
461,613.4047933689493
462,613.437320463348
463,613.4517875450433
464,613.4485121205195
465,613.428206467698
466,613.3920127354862
467,613.3416805132846
468,613.2798549108168
469,613.2103778420784
470,613.1384718645872
471,613.0706967269304
472,613.0146369805576
473,612.978355681826
474,612.9696929861306
475,612.9954930001745
476,613.0608370299582
477,613.1683686038137
478,613.3178022559408
479,613.505691101806
480,613.7254898644419
481,613.9679112775015
482,614.2215476876082
483,614.4737135147992
484,614.7114484826342
485,614.9226001172009
486,615.0968829451177
487,615.2268022370736
488,615.308330227713
489,615.3412252378632
490,615.328903827234
491,615.2778439426525
492,615.196614442707
493,615.0947392509278
494,614.9816399184812
495,614.8658351650578
496,614.7544592620335
497,614.6530658173845
498,614.5656425136289
499,614.4947587186571
500,614.4417764534755
501,614.4070722599533
502,614.3902435760339
503,614.3902926836774
504,614.4057817249301
505,614.4349448906263
506,614.4757452551638
507,614.5258766392154
508,614.5827333324286
509,614.6433985960983
510,614.704718747335
511,614.7635102856326
512,614.8168915110151
513,614.8626651995249
514,614.8996429755147
515,614.9278163010536
516,614.9483332598795
517,614.9633003874675
518,614.975461313565
519,614.9878008524588
520,615.0031072121963
521,615.0235247718176
522,615.0501471570759
523,615.0827142691916
524,615.1194745949825
525,615.1572580400955
526,615.1917774086779
527,615.2181377685132
528,615.2314874881431
529,615.2277080995432
530,615.2040296072728
531,615.1594777687307
532,615.0950961027436
533,615.0139188156899
534,614.9206956733661
535,614.8213925952228
536,614.7225149512699
537,614.6303222212447
538,614.5500278548639
539,614.4851084730886
540,614.4368602263552
541,614.4043053024535
542,614.3844658695973
543,614.3729276360021
544,614.3645595980253
545,614.3542503946977
546,614.3375396728276
547,614.3110504509929
548,614.2726801566315
549,614.2215867084115
550,614.1580682954864
551,614.0834313595747
552,613.9998790208314
553,613.9103911677976
554,613.8185521768758
555,613.7283074985942
556,613.6436625835811
557,613.5683510503673
558,613.5054933191582
559,613.4572603898698
560,613.4245665362397
561,613.4068389598862
562,613.4019331397868
563,613.4062562830832
564,613.4151212283502
565,613.4232956465258
566,613.4256596717773
567,613.4178561773545
568,613.3968208231097
569,613.3611098383353
570,613.310984858117
571,613.2482520057075
572,613.1758892299504
573,613.097536806847
574,613.0169589170281
575,612.9375876682694
576,612.8622289179598
577,612.7929587156223
578,612.7311923335548
579,612.6778760313492
580,612.6337363002671
581,612.5995181347936
582,612.5761437815999
583,612.5647244868364
584,612.5663770896253
585,612.5818516494907
586,612.6110530689353
587,612.6526021322268
588,612.7035954784211
589,612.7596763019537
590,612.8154345474226
591,612.8650595369206
592,612.9031096799063
593,612.9252535756016
594,612.9288579505253
595,612.9133301528321
596,612.8801577175573
597,612.832628662161
598,612.7752704054194
599,612.7131072200992
600,612.6508821581219
601,612.5923928122571
602,612.5400465963129
603,612.4946736150381
604,612.4555764209215
605,612.4207667704204
606,612.3873384631326
607,612.3519355247842
608,612.311280835175
609,612.2627253084358
610,612.2047617652164
611,612.137430511917
612,612.0625442514213
613,611.983684536266
614,611.9059532861787
615,611.83548686209
616,611.7787677546183
617,611.7418139878137
618,611.7293745411035
619,611.744276018322
620,611.7870346256589
621,611.8557855353803
622,611.946517348267
623,612.0535507901837
624,612.1701762850024
625,612.2893598675206
626,612.4044247522739
627,612.5096140901313
628,612.6004575451982
629,612.6739085124373
630,612.7282718947315
631,612.7629828123092
632,612.7783157947796
633,612.7751005641454
634,612.7544997728518
635,612.7178785001345
636,612.6667713583803
637,612.6029253581233
638,612.5283654912556
639,612.4454138502913
640,612.3566115408997
641,612.2645400946458
642,612.1715854390355
643,612.0797061892798
644,611.9902583980053
645,611.9039077136576
646,611.8206395375039
647,611.7398621121405
648,611.6605882622085
649,611.5816745110585
650,611.5020842042892
651,611.4211299017386
652,611.3386538283567
653,611.2551238436539
654,611.1716428810336
655,611.0898808627394
656,611.0119370104026
657,610.9401373040337
658,610.8767821492594
659,610.8238783845225
660,610.7828927755609
661,610.754544561722
662,610.7386366932566
663,610.7339291586195
664,610.7380768956613
665,610.7476715283366
666,610.7584255176331
667,610.7655120690332
668,610.764034570091
669,610.7495657576893
670,610.7186775185389
671,610.6693753436579
672,610.6013610569606
673,610.5160779069395
674,610.4165333369979
675,610.306926948937
676,610.1921260676745
677,610.0770416611135
678,609.9659774543552
679,609.8620493664479
680,609.766783358176
681,609.6799848650118
682,609.5999263883295
683,609.5238244156253
684,609.4484968135445
685,609.3710478953353
686,609.2894424339174
687,609.2028855034775
688,609.1119905308773
689,609.0187682023633
690,608.9264849054398
691,608.8394178590046
692,608.7625031219608
693,608.7008729893113
694,608.6593166877202
695,608.6417344159582
696,608.6506594696127
697,608.6869080816069
698,608.7494002783834
699,608.8351721215341
700,608.9395650608352
701,609.0565490661882
702,609.179130758737
703,609.2998105422591
704,609.4110666216162
705,609.5058535195068
706,609.5781117035039
707,609.6232849820118
708,609.6388173353522
709,609.6245556430033
710,609.5829526414572
711,609.5189762651295
712,609.4396862800625
713,609.3535117262071
714,609.2693288254527
715,609.1954803752435
716,609.1388802687655
717,609.1043153796899
718,609.0940166665273
719,609.1075399411392
720,609.1419699814677
721,609.1924285158847
722,609.2528239884364
723,609.316735308573
724,609.3782904608976
725,609.4329055445965
726,609.4777924052904
727,609.5121964217598
728,609.5373623881513
729,609.5562453382248
730,609.5730024946816
731,609.5923347661268
732,609.6187873447494
733,609.6561447055334
734,609.7070322895015
735,609.7727595682948
736,609.8533510459604
737,609.9476730611866
738,610.0535931879333
739,610.1681669841743
740,610.2878812058007
741,610.4089748348327
742,610.5278262508467
743,610.641358315581
744,610.7473864814208
745,610.8448323504404
746,610.933757438399
747,611.0152276771845
748,611.0910636249027
749,611.1635368596177
750,611.2350480155592
751,611.3078026670078
752,611.383512184684
753,611.4631739256178
754,611.5469939328161
755,611.6344863445617
756,611.7247302276038
757,611.8167187013626
758,611.9097147799913
759,612.0035259073153
760,612.0986204121796
761,612.196045077979
762,612.2971612882341
763,612.4032696405279
764,612.5152147082044
765,612.6330541901584
766,612.7558540886403
767,612.881640153453
768,613.0075004783954
769,613.1298092222517
770,613.2445355430963
771,613.3476051612536
772,613.4352841103919
773,613.504555651258
774,613.5534611613521
775,613.5813715218416
776,613.5891521665179
777,613.57918826108
778,613.5552473284065
779,613.5221776473633
780,613.4854726969269
781,613.4507661779033
782,613.4233464650431
783,613.407781639024
784,613.4077141997435
785,613.4258202372168
786,613.4638608777125
787,613.5227229612576
788,613.6023673335709
789,613.7016633903585
790,613.8181594480875
791,613.9478907891435
792,614.0853391240231
793,614.2236257374262
794,614.3549650817256
795,614.471350487781
796,614.5653985897742
797,614.6312432193823
798,614.6653461646014
799,614.6670872476817
800,614.6390118326224
801,614.5866541601242
802,614.5179269290452
803,614.4421608485253
804,614.3689535344148
805,614.3070085496074
806,614.2631141109039
807,614.2413594042554
808,614.2426439788059
809,614.2645106003591
810,614.301317928497
811,614.3447557529452
812,614.3846798540301
813,614.4101988272604
814,614.4108942862669
815,614.3780287087303
816,614.3056053781538
817,614.1911670044191
818,614.0362269036423
819,613.8462410903304
820,613.6300946383085
821,613.3991831411037
822,613.1662549833999
823,612.9441907332047
824,612.7448462806058
825,612.5780337614384
826,612.4506976790148
827,612.3663526433385
828,612.3248477470876
829,612.3224875496533
830,612.3524789174236
831,612.4056190074771
832,612.4711211889329
833,612.5374919967269
834,612.5933988382926
835,612.628482551756
836,612.6340682363316
837,612.6037283868027
838,612.5336697730868
839,612.4229430804788
840,612.2734897713779
841,612.0900334145454
842,611.8798054366154
843,611.6520875239958
844,611.4175639826261
845,611.1875061719963
846,610.9728502573648
847,610.7832628995266
848,610.6262987008826
849,610.5067346496589
850,610.42613840164
851,610.3827103895629
852,610.3714304083843
853,610.3845121446382
854,610.4121212596978
855,610.443277036934
856,610.466857413826
857,610.472644575675
858,610.4523493284087
859,610.4005248293171
860,610.3152450846474
861,610.1984199653455
862,610.055668059799
863,609.8957514951555
864,609.7296505959064
865,609.5693978434085
866,609.426808405503
867,609.3122535775376
868,609.2336227426666
869,609.1955972515258
870,609.1993123056208
871,609.242421056527
872,609.3195145334034
873,609.4228025039845
874,609.5429316883989
875,609.6698188905034
876,609.7934082388172
877,609.9043061022184
878,609.9942862154007
879,610.0566860441375
880,610.086728279929
881,610.0817862700396
882,610.0415696465803
883,609.9681676253866
884,609.8658920904988
885,609.7409120166171
886,609.6007226827807
887,609.4535137239905
888,609.3075001286667
889,609.1702843146085
890,609.048321394624
891,608.9465444444918
892,608.8681746305786
893,608.8147117950922
894,608.7860797156793
895,608.7808784468763
896,608.7966757210389
897,608.830264352013
898,608.8778320548437
899,608.9350282808726
900,608.996953077736
901,609.0581229066355
902,609.1124873651827
903,609.1535774573968
904,609.1748467246576
905,609.170214405169
906,609.1347538837032
907,609.065418020574
908,608.9616695174495
909,608.8258906418516
910,608.6634776503188
911,608.4825734859561
912,608.2934536698643
913,608.1076496183633
914,607.9369511883995
915,607.792446849881
916,607.6837218722852
