frame_number,force
0,585.2661100000436
1,585.2946777316022
2,585.3223700826666
3,585.3484085662338
4,585.372226695898
5,585.393599135934
6,585.4127553196597
7,585.4304373305438
8,585.4478667542546
9,585.4665989023395
10,585.4882647809249
11,585.5142325656055
12,585.5452549627057
13,585.5811935324384
14,585.6209088747227
15,585.6623643091235
16,585.7029197975718
17,585.7397272638657
18,585.7701141341482
19,585.791869016856
20,585.80340298247
21,585.8038164639141
22,585.7929229001871
23,585.7712618656487
24,585.7401079574571
25,585.7014781012439
26,585.6581493022462
27,585.6136870116744
28,585.5724463945116
29,585.539480943241
30,585.5203056016564
31,585.5205039750379
32,585.5452098044509
33,585.5985192413202
34,585.6829118998959
35,585.7987775376442
36,585.9441444601732
37,586.1146706663371
38,586.3039003550148
39,586.5037351922937
40,586.7050400619983
41,586.8982941437636
42,587.0742031791038
43,587.2242125807679
44,587.3409039278121
45,587.4182957692175
46,587.4520789395832
47,587.4398015762581
48,587.3810033033552
49,587.2772968110152
50,587.132402405135
51,586.9521361926375
52,586.7443271703773
53,586.5186138497993
54,586.2860725063834
55,586.0586588690936
56,585.8484893152528
57,585.6670289149688
58,585.5242740761134
59,585.4280105862739
60,585.3832057769047
61,585.39157447188
62,585.4513511104045
63,585.5573012491925
64,585.7010030004404
65,585.8714132824146
66,586.055705193649
67,586.2403264858339
68,586.4121885669664
69,586.5598556044024
70,586.6745740798214
71,586.7509812893846
72,586.7873747191629
73,586.7855106154836
74,586.7499971735756
75,586.6874184619268
76,586.6053514599281
77,586.511422162139
78,586.4125070879699
79,586.314149758069
80,586.2202342324913
81,586.1329263353133
82,586.052853271693
83,585.9794555966479
84,585.9114227392615
85,585.8471192439143
86,585.7849256738081
87,585.7234519513821
88,585.6616208464799
89,585.5986520330526
90,585.5339914289344
91,585.4672233677578
92,585.3979840122469
93,585.3258800010682
94,585.250418992164
95,585.1709745995987
96,585.0868143691389
97,584.9971968935823
98,584.9015065648268
99,584.7993772749286
100,584.6907754700892
101,584.576048682107
102,584.4559677898836
103,584.3317864744189
104,584.2053151898576
105,584.0789740952688
106,583.9557699888157
107,583.8391553990066
108,583.7327736687312
109,583.6401453923714
110,583.5643747354471
111,583.5079343909701
112,583.4725389829515
113,583.4590722011583
114,583.4675257477002
115,583.4969421446389
116,583.5453966414266
117,583.6100696959194
118,583.687441292113
119,583.7735956530896
120,583.8645819974332
121,583.9567574928146
122,584.0470542271455
123,584.1331477749779
124,584.2135302437957
125,584.2874923696155
126,584.3550152976633
127,584.4165867390889
128,584.4729838251709
129,584.5250759368322
130,584.5736754591255
131,584.6194218366957
132,584.6626664340355
133,584.7033510178378
134,584.7409158720407
135,584.7742954603285
136,584.8020426659934
137,584.8225770359967
138,584.8345045049161
139,584.8369321104965
140,584.8297103036199
141,584.8135638216016
142,584.7900969557953
143,584.7616719937129
144,584.7311724390787
145,584.7016840983431
146,584.6761439380012
147,584.6569997616446
148,584.6458977447019
149,584.6433977604638
150,584.6487308975877
151,584.6596524555965
152,584.6724731490344
153,584.6823402604914
154,584.6837878768297
155,584.6715025080438
156,584.6411808575792
157,584.5903150537156
158,584.5187490534418
159,584.4289071438259
160,584.3256754734754
161,584.2159867799048
162,584.1081907174585
163,584.0112850836341
164,583.9340664521093
165,583.8842664337379
166,583.8677706081102
167,583.8880351174643
168,583.9457916088011
169,584.0390723241204
170,584.1635279978682
171,584.3129762949325
172,584.4801005467016
173,584.6571987495363
174,584.8368661829718
175,585.0125081588639
176,585.178632017368
177,585.3309338792858
178,585.4662406371677
179,585.582375996144
180,585.6779973858751
181,585.7524179012008
182,585.8054107994988
183,585.8370086508736
184,585.8473401613634
185,585.8365625332624
186,585.8049273365672
187,585.75297220833
188,585.6817849721007
189,585.5932629604465
190,585.4902937091575
191,585.3768069750719
192,585.2576830205592
193,585.1385358619821
194,585.0254075898793
195,584.9244068135029
196,584.8413142605189
197,584.7811761863586
198,584.7479101382287
199,584.7439470461483
200,584.769927382459
201,584.8244718381005
202,584.9040715039363
203,585.0031729650907
204,585.1145290962645
205,585.229827438837
206,585.3405256614385
207,585.4387654787336
208,585.518224243963
209,585.5747889264782
210,585.6069760227931
211,585.6160499287163
212,585.60580993291
213,585.5820430411717
214,585.5516941106799
215,585.5218767329782
216,585.4988991264984
217,585.4874720843884
218,585.4902072352229
219,585.5074464891532
220,585.5374147162731
221,585.5766500614601
222,585.6206308928612
223,585.6644939065008
224,585.7037338722643
225,585.7347895279629
226,585.755446514919
227,585.765026001106
228,585.7643731074767
229,585.7556966412554
230,585.7423225437875
231,585.7284082586444
232,585.7186428954739
233,585.7179407858063
234,585.7311198616619
235,585.7625430068201
236,585.8157063092825
237,585.8927888980197
238,585.9942181808278
239,586.1183318333403
240,586.2612225312688
241,586.4168275925283
242,586.5772812426559
243,586.7335075837024
244,586.8760128837623
245,586.9958183556887
246,587.085437074438
247,587.1397538426119
248,587.1566488635754
249,587.1372363665132
250,587.0856655269075
251,587.0085303044343
252,586.914022112969
253,586.8110018682158
254,586.7081496234732
255,586.6132812670005
256,586.5328402634584
257,586.4715247574826
258,586.4320216540752
259,586.4148688645894
260,586.4184996815985
261,586.4395022231454
262,586.4730709877631
263,586.5135851770674
264,586.55524241432
265,586.5926903385894
266,586.6216068363426
267,586.6391733714524
268,586.644375845885
269,586.6380762450253
270,586.6228383620794
271,586.6025445694618
272,586.5818766091337
273,586.5657390071792
274,586.5586854175672
275,586.5643779966085
276,586.5850907421544
277,586.6212858603075
278,586.6713408024146
279,586.731532704107
280,586.79635012986
281,586.859107513937
282,586.9127428334841
283,586.9506365017913
284,586.9673073237918
285,586.9588934266529
286,586.923386025828
287,586.8606402258948
288,586.7722310454138
289,586.6612364000994
290,586.5319977761499
291,586.3898492172018
292,586.2407613811006
293,586.0908605939368
294,585.9458506744375
295,585.8104401522124
296,585.687908186315
297,585.5799148467472
298,585.4865968817353
299,585.4069198575744
300,585.3392044001745
301,585.2817170407185
302,585.2332132891394
303,585.1933374353163
304,585.1628161486692
305,585.143424516995
306,585.1377395141637
307,585.1487132975566
308,585.1791042168475
309,585.230821479042
310,585.3042765933839
311,585.3978658781097
312,585.5077089418247
313,585.627737499731
314,585.7501728584172
315,585.8663491516512
316,585.9677475656634
317,586.0470404830314
318,586.098934084674
319,586.1206478285516
320,586.1119639596367
321,586.0748903979639
322,586.0130661126935
323,585.9310727825136
324,585.833805446268
325,585.7260132590188
326,585.612053362393
327,585.4958206088761
328,585.3807631768178
329,585.2698989107275
330,585.1657940396326
331,585.0705117917865
332,584.9855579810937
333,584.911849306446
334,584.8497215958804
335,584.7989862857077
336,584.7590352901665
337,584.7289833189834
338,584.7078202147491
339,584.6945341006747
340,584.68817361253
341,584.6878441007212
342,584.6926621115391
343,584.7017073977582
344,584.7140072520549
345,584.7285709262044
346,584.7444690810943
347,584.7609277281442
348,584.7773883857363
349,584.7934960185087
350,584.8090197118808
351,584.8237596820159
352,584.8375075523177
353,584.8500951523376
354,584.8615172050078
355,584.8720743536284
356,584.882466293901
357,584.893774555129
358,584.907312198063
359,584.9243665029917
360,584.9458909381034
361,584.972206584447
362,585.0027710366659
363,585.0360753887768
364,585.0697211187456
365,585.1006923129016
366,585.1257820258704
367,585.1420799966583
368,585.1474080827943
369,585.14061006969
370,585.121652954118
371,585.091552257272
372,585.052170254372
373,585.0059433102398
374,584.9555817011274
375,584.9037710127907
376,584.8528994134418
377,584.8048351958507
378,584.760773480492
379,584.7211573690266
380,584.6856642443393
381,584.653242265331
382,584.6221933007506
383,584.5903245610072
384,584.5552110992483
385,584.5145956220886
386,584.4668933863888
387,584.4117007784043
388,584.3501735127136
389,584.2851619057437
390,584.2210459208975
391,584.1632762232751
392,584.1176918276461
393,584.0897429749768
394,584.0837738996213
395,584.1024919172858
396,584.1466811491874
397,584.2151525913414
398,584.304886403727
399,584.4113177844968
400,584.5287301635556
401,584.6507314104018
402,584.7707838038766
403,584.8827340229956
404,584.9812679956967
405,585.0622262848709
406,585.1227597627745
407,585.1613509316265
408,585.1777450421627
409,585.1728305924362
410,585.1485011191884
411,585.1075269112474
412,585.0534558599027
413,584.9905345848289
414,584.9235978680828
415,584.8578428435661
416,584.7984172585741
417,584.7498166405986
418,584.7151758806014
419,584.6956141942856
420,584.6898143498064
421,584.6939738485955
422,584.7021752810296
423,584.7071265952749
424,584.7011515251135
425,584.6772707690637
426,584.6301998536859
427,584.5571032017498
428,584.4579930939298
429,584.3357408312879
430,584.1957507346542
431,584.0454029302851
432,583.8933788137923
433,583.7489566824488
434,583.6213356394654
435,583.5190260006046
436,583.4493243873272
437,583.41787050532
438,583.4282757151603
439,583.4818294729766
440,583.5773161737206
441,583.7109884331328
442,583.8767310786629
443,584.0664246110888
444,584.2704960432609
445,584.4786296249937
446,584.6805889917198
447,584.8670733128542
448,585.0305034897729
449,585.165625392204
450,585.2698338854511
451,585.3431603874683
452,585.3879201820318
453,585.4080759942195
454,585.4084276132029
455,585.3937670009714
456,585.3681370889659
457,585.33430579491
458,585.293525648758
459,585.2456023072178
460,585.1892463919696
461,585.122635944355
462,585.0440795170891
463,584.9526558012172
464,584.8487200308317
465,584.7341981933454
466,584.6126229269805
467,584.4888983631504
468,584.3688174350775
469,584.2583919281853
470,584.163091042649
471,584.0871133245226
472,584.0328233340758
473,584.0004568736989
474,583.9881465882337
475,583.9922618611837
476,584.0080042999435
477,584.0301588411885
478,584.0538791151249
479,584.0753903020585
480,584.092515736682
481,584.1049597360953
482,584.1143054501604
483,584.1237218668012
484,584.1374200885944
485,584.1599419797892
486,584.1953876511791
487,584.2466912681303
488,584.3150526341508
489,584.3996302537419
490,584.4975811209106
491,584.6044742847026
492,584.7150179418605
493,584.823956043011
494,584.9269462583288
495,585.0212462780656
496,585.1060995518529
497,585.1827905756902
498,585.254400068525
499,585.3253193612074
500,585.4005904170956
501,585.4851381028243
502,585.5829630626249
503,585.6963721950174
504,585.825343949113
505,585.9671499441774
506,586.1163558959366
507,586.265275617176
508,586.4048538696084
509,586.5258436738093
510,586.6200642746359
511,586.6815033916655
512,586.7070690747371
513,586.6968879810798
514,586.6541505611636
515,586.5845813967252
516,586.4956544766613
517,586.3956939001547
518,586.2930111097625
519,586.1952172952008
520,586.1087967736489
521,586.0389433430727
522,585.989581980987
523,585.9634562580578
524,585.962169179884
525,585.9861116606373
526,586.0342788111874
527,586.1040415913147
528,586.1909913723327
529,586.2889840420469
530,586.3904627486859
531,586.4870467406314
532,586.5702824721473
533,586.6324135908153
534,586.6670556583048
535,586.6697250908993
536,586.6382172005447
537,586.5728334271657
538,586.4764422747753
539,586.354352974792
540,586.2139968799856
541,586.0644352323922
542,585.9157241528426
543,585.778168533884
544,585.6615033006769
545,585.5740626864066
546,585.5220252168479
547,585.5088343609211
548,585.5348781891718
549,585.5974672109572
550,585.6910960696323
551,585.8079343665217
552,585.938475263229
553,586.0722728921049
554,586.1987083663041
555,586.307731545805
556,586.3905339986317
557,586.440119454359
558,586.4517447392366
559,586.4232029435311
560,586.3549189993222
561,586.2498338841123
562,586.1130684527571
563,585.9513824065897
564,585.7724770909405
565,585.5842231153782
566,585.3939153221374
567,585.2076642902581
568,585.0300199524698
569,584.8638847089001
570,584.7107182006688
571,584.5709785357042
572,584.4446958169829
573,584.3320412683383
574,584.2337515672818
575,584.1513049043374
576,584.0868173800536
577,584.0427055009745
578,584.0212056191783
579,584.0238418824498
580,584.0509136900032
581,584.1010637631917
582,584.1709984430828
583,584.2554461838117
584,584.3474291074424
585,584.4388640186794
586,584.5214164131543
587,584.5874545083271
588,584.630933980813
589,584.648082910083
590,584.637810639389
591,584.6018038093588
592,584.5443007128949
593,584.4715710689348
594,584.3911718854099
595,584.3110754465048
596,584.2387623978314
597,584.1803657847076
598,584.1399604599802
599,584.1191018177681
600,584.1167039733386
601,584.1293061025161
602,584.1517164674412
603,584.1779541097512
604,584.202338114574
605,584.2205283562275
606,584.2303256953736
607,584.2320921218474
608,584.2287249472892
609,584.2251916420638
610,584.2276993777226
611,584.2426350099867
612,584.2754565910304
613,584.329729485694
614,584.4064665689211
615,584.5038600805667
616,584.6174139480092
617,584.7404323578243
618,584.8647962452324
619,584.9819400959677
620,585.0839095266615
621,585.1643500523169
622,585.2192812354381
623,585.2475566767649
624,585.2509718154147
625,585.2340286627926
626,585.2033943956335
627,585.1671096319611
628,585.1336225823875
629,585.110749926984
630,585.1046859873833
631,585.1191883209812
632,585.1550583180816
633,585.2100079943118
634,585.2789501454446
635,585.35466930554
636,585.4287539475064
637,585.4926332138244
638,585.5385701465653
639,585.5604908286906
640,585.5545555621607
641,585.5194108667285
642,585.4561087285321
643,585.3677364380238
644,585.2588538097676
645,585.1348681878528
646,585.0014720444565
647,584.8642219093844
648,584.728278669841
649,584.5982839074412
650,584.4783172659301
651,584.3718694106846
652,584.2817890918984
653,584.2102133715199
654,584.158525608296
655,584.1273764541147
656,584.1167652838639
657,584.1261502216256
658,584.1545511695685
659,584.2006240508836
660,584.262700619949
661,584.3387977866827
662,584.426606667237
663,584.5234823687246
664,584.626468469424
665,584.7323930388143
666,584.8380585417088
667,584.9405192908948
668,585.0374045985636
669,585.1272142359153
670,585.2095019960291
671,585.2848844200585
672,585.3548582069261
673,585.4214630422053
674,585.4868685877716
675,585.5529805776412
676,585.621145921957
677,585.6919992827508
678,585.7654484382797
679,585.8407574796261
680,585.916671253337
681,585.9915363822333
682,586.0633983597141
683,586.1300736815156
684,586.1892099528733
685,586.2383598466342
686,586.2751010779101
687,586.2972237557439
688,586.3029772111228
689,586.2913346683187
690,586.2622202165232
691,586.2166611101813
692,586.1568586008817
693,586.0861773826967
694,586.0090356201437
695,585.9306695082619
696,585.8567696747789
697,585.7930206676128
698,585.7445904371127
699,585.7156162908722
700,585.7087377779967
701,585.7247376481652
702,585.7623504168648
703,585.8182743048159
704,585.8873902124559
705,585.9631667252618
706,586.0382119185084
707,586.1049168968742
708,586.1561315351724
709,586.1858262163412
710,586.1897063012241
711,586.1657324808041
712,586.1144666337254
713,586.0391496316572
714,585.9454509184859
715,585.8408931506784
716,585.7340154823323
717,585.6333822085753
718,585.546575984366
719,585.4793388178517
720,585.435021477041
721,585.4144486157753
722,585.4162031686004
723,585.4372184270699
724,585.4734940294052
725,585.5207528550493
726,585.5749192398105
727,585.6323891417774
728,585.6901398244049
729,585.7457597200716
730,585.7974589831927
731,585.8440702099299
732,585.8850101286291
733,585.9201732322002
734,585.9497566096811
735,585.9740474375562
736,585.9932265998012
737,586.0072433719525
738,586.0157891928139
739,586.0183535384778
740,586.0143114900263
741,586.0029979032798
742,585.9837635946732
743,585.9560469951163
744,585.9194971404644
745,585.874154841248
746,585.8206623534984
747,585.7604441487179
748,585.6957924452025
749,585.6298073981135
750,585.5661766652148
751,585.5088159934112
752,585.461421038148
753,585.4270030613585
754,585.4075013372538
755,585.4035701036883
756,585.4146011240864
757,585.4389609251513
758,585.4743385805792
759,585.5180734424639
760,585.5673778983906
761,585.6194492715503
762,585.6715233367104
763,585.7209313649184
764,585.7651916850732
765,585.8021278548473
766,585.8299898473623
767,585.8475655229145
768,585.8542826814675
769,585.8502985293305
770,585.8365608865349
771,585.814819113475
772,585.7875648510036
773,585.7578864986965
774,585.7292237887017
775,585.7050160422938
776,585.6882604167146
777,585.6810360787538
778,585.6840904143097
779,585.6965978343839
780,585.7161729928246
781,585.7391562186112
782,585.7611184495469
783,585.7774825252922
784,585.7841418277809
785,585.7779794524811
786,585.7572346248348
787,585.721695476833
788,585.6727054310102
789,585.6129775475271
790,585.546241465281
791,585.4767886983385
792,585.4090029359674
793,585.346954200331
794,585.2941140866623
795,585.2532211438432
796,585.2262865293363
797,585.2146893972981
798,585.2192919801685
799,585.240513922222
800,585.2783289444378
801,585.3321710431943
802,585.4007657436256
803,585.4819390146592
804,585.5724910980197
805,585.6682354171138
806,585.764279951927
807,585.855563803703
808,585.9375668579225
809,586.007028289039
810,586.0624884745155
811,586.1045148315791
812,586.135550212419
813,586.1594013821054
814,586.1804550314534
815,586.2027661794616
816,586.2291998706243
817,586.2608075514829
818,586.2965723138757
819,586.3335662029513
820,586.3674556669085
821,586.3932113093464
822,586.4058595610866
823,586.4011535695813
824,586.3760973907448
825,586.3292900383236
826,586.2610611020389
827,586.1733771320138
828,586.0695284654183
829,585.953649075928
830,585.8301550796223
831,585.7032003498147
832,585.5762407579197
833,585.451773320635
834,585.331273838649
835,585.2153037503543
836,585.1037165188549
837,584.9958943559866
838,584.8909895028048
839,584.7881921206753
840,584.6870521408717
841,584.5878340337434
842,584.4918169977499
843,584.4014230883799
844,584.3200909664376
845,584.2518908660611
846,584.20094920965
847,584.1707932615266
848,584.1637406082585
849,584.1804485950064
850,584.2197020506387
851,584.2784613089124
852,584.3521362703516
853,584.4350160760972
854,584.5207798541089
855,584.6030337929101
856,584.6758376776553
857,584.7341847129137
858,584.7743905482876
859,584.7943465630641
860,584.7936072427439
861,584.7733109687877
862,584.7359668077239
863,584.6851633771482
864,584.6252647265869
865,584.5611542463558
866,584.4980683574968
867,584.4415213683254
868,584.397268349605
869,584.3712109319399
870,584.3691495221007
871,584.39632915735
872,584.456797390329
873,584.5526690101036
874,584.6834516264747
875,584.8456058265751
876,585.0324852866677
877,585.2347354672477
878,585.4411373010363
879,585.6397793661313
880,585.8193584182761
881,585.9703802291648
882,586.0860723555957
883,586.1629040042812
884,586.2006961992608
885,586.2023674334379
886,586.1733862057725
887,586.1210045889551
888,586.0533514184685
889,585.9784884876536
890,585.9035688639585
891,585.8342449864914
892,585.7744231013553
893,585.7263608943858
894,585.6910052210156
895,585.6684111715861
896,585.6580878780163
897,585.6591698690844
898,585.6703900402786
899,585.6899047780084
900,585.7150732401533
901,585.742306412677
902,585.7670755192333
903,585.7841211492249
904,585.7878551437134
905,585.7729086734224
906,585.7347596436354
907,585.6703704122705
908,585.578767145944
909,585.4614791794673
910,585.3227383971805
911,585.1693435048678
912,585.0101409594665
913,584.8551512418271
914,584.7144484250509
915,584.5969642939377
916,584.5094236829374
917,584.4556076978919
