frame_number,force
0,880.54713039432
1,880.7001790503288
2,880.841868634052
3,880.9720724383338
4,881.0906889508856
5,881.1976419522118
6,881.2928805456077
7,881.3763791156404
8,881.4481372119857
9,881.5081793559905
10,881.5565547675682
11,881.593337009834
12,881.6186235484496
13,881.6325352226328
14,881.6352156257129
15,881.6268303949322
16,881.6075664124902
17,881.5776309221308
18,881.5372505673879
19,881.4866703583364
20,881.4261525730992
21,881.355975599118
22,881.2764327183335
23,881.1878308403668
24,881.0904891880139
25,880.9847379391333
26,880.870916828317
27,880.749373711579
28,880.620463098458
29,880.4845446580246
30,880.3419817072652
31,880.1931396916101
32,880.0383846677463
33,879.8780817981458
34,879.7125938651478
35,879.5422798106495
36,879.3674933060856
37,879.1885813565236
38,879.005882942366
39,878.8197277025313
40,878.6304346642579
41,878.4383110265991
42,878.2436510063726
43,878.0467347559359
44,877.8478273616337
45,877.6471779309422
46,877.4450187759016
47,877.2415647002933
48,877.037012397547
49,876.8315399651898
50,876.6253065401436
51,876.4184520577666
52,876.2110971362712
53,876.0033430869433
54,875.7952720496609
55,875.5869472526189
56,875.3784133943915
57,875.1696971450579
58,874.9608077612245
59,874.751737807792
60,874.5424639774365
61,874.3329479969726
62,874.1231376081021
63,873.9129676088617
64,873.7023609417698
65,873.4912298155276
66,873.2794768491976
67,873.0669962307833
68,872.8536748853747
69,872.6393936507
70,872.4240284596625
71,872.2074515304989
72,871.9895325659771
73,871.770139963774
74,871.5491420405657
75,871.3264082718896
76,871.1018105480049
77,870.875224443047
78,870.6465304918071
79,870.4156154663347
80,870.1823736432378
81,869.9467080517728
82,869.7085316924415
83,869.4677687156043
84,869.2243555493859
85,868.978241966265
86,868.7293920786533
87,868.4777852553698
88,868.223416952599
89,867.9662994542881
90,867.7064625179871
91,867.443953922843
92,867.1788399163241
93,866.9112055547984
94,866.641154930823
95,866.3688112785408
96,866.094316949091
97,865.81783325021
98,865.5395401470483
99,865.2596358238211
100,864.9783361080297
101,864.6958737607263
102,864.4124976379319
103,864.128471730328
104,863.844074090738
105,863.5595956608186
106,863.2753390090985
107,862.9916169926187
108,862.7087513550592
109,862.4270712754492
110,862.1469118823117
111,861.8686127475895
112,861.5925163731903
113,861.318966681413
114,861.0483075194628
115,860.7808811872917
116,860.5170269965682
117,860.2570798670771
118,860.0013689661145
119,859.7502163964605
120,859.5039359383879
121,859.2628318502257
122,859.0271977305221
123,858.797315443804
124,858.5734541118311
125,858.3558691727161
126,858.1448015105957
127,857.9404766585903
128,857.7431040777635
129,857.5528765143221
130,857.3699694360344
131,857.194540547422
132,857.0267293828558
133,856.8666569775746
134,856.7144256181807
135,856.5701186756847
136,856.4338005253765
137,856.3055165583464
138,856.1852932888398
139,856.0731385597966
140,855.9690418468148
141,855.8729746592257
142,855.7848910359129
143,855.7047281322589
144,855.6324068928539
145,855.5678328026297
146,855.5108967073555
147,855.4614756930595
148,855.419434012907
149,855.3846240495731
150,855.356887301558
151,855.3360553833501
152,855.3219510315624
153,855.314389111587
154,855.3131776211077
155,855.318118687408
156,855.3290095549597
157,855.3456435589438
158,855.3678110795396
159,855.3953004709683
160,855.4278989584222
161,855.4653934954844
162,855.5075715748986
163,855.5542219866304
164,855.6051355187157
165,855.6601055981199
166,855.7189288703918
167,855.781405717795
168,855.8473407155199
169,855.9165430249353
170,855.9888267223201
171,856.0640110615873
172,856.141920670425
173,856.2223856808539
174,856.3052417968529
175,856.3903303029383
176,856.4774980184035
177,856.5665972025962
178,856.6574854171257
179,856.7500253509621
180,856.8440846139947
181,856.9395355043687
182,857.0362547554548
183,857.1341232694682
184,857.2330258458076
185,857.3328509126707
186,857.4334902706896
187,857.5348388577864
188,857.6367945449016
189,857.7392579715838
190,857.8421324278949
191,857.9453237853485
192,858.0487404760339
193,858.1522935165467
194,858.2558965718898
195,858.3594660537719
196,858.462921247408
197,858.5661844607504
198,858.6691811898414
199,858.7718402935049
200,858.8740941702093
201,858.9758789306164
202,859.0771345618219
203,859.1778050830671
204,859.2778386962566
205,859.3771879369634
206,859.4758098326224
207,859.5736660743349
208,859.670723207008
209,859.7669528398069
210,859.8623318762196
211,859.9568427613025
212,860.0504737428082
213,860.143219141916
214,860.2350796273037
215,860.3260624834502
216,860.4161818614708
217,860.5054589997096
218,860.593922402331
219,860.6816079669284
220,860.7685590556058
221,860.8548265068943
222,860.9404685878065
223,861.025550886574
224,861.1101461473567
225,861.1943340483621
226,861.2782009242421
227,861.361839432559
228,861.4453481630107
229,861.52883118746
230,861.6123975488547
231,861.6961606880178
232,861.7802378092698
233,861.864749189028
234,861.9498174353193
235,862.035566709235
236,862.122121920643
237,862.2096079099078
238,862.2981486259044
239,862.3878663092413
240,862.478880688765
241,862.5713081992333
242,862.665261228333
243,862.7608474013193
244,862.8581689108311
245,862.9573218978638
246,863.0583958879538
247,863.1614732847346
248,863.2666289215008
249,863.3739296705711
250,863.4834341102456
251,863.5951922496652
252,863.7092453125099
253,863.8256255810286
254,863.9443563019819
255,864.0654516550882
256,864.188916782444
257,864.3147478753037
258,864.4429323137396
259,864.5734488550154
260,864.7062678670638
261,864.8413516038559
262,864.9786545199042
263,865.1181236216605
264,865.259698853764
265,865.4033135178187
266,865.5488947207012
267,865.6963638484079
268,865.8456370602169
269,865.9966257971446
270,866.1492372988823
271,866.3033751242248
272,866.458939670594
273,866.6158286885919
274,866.773937788237
275,866.9331609347066
276,867.0933909322927
277,867.2545198953477
278,867.416439704654
279,867.5790424476205
280,867.7422208413587
281,867.9058686385976
282,868.0698810168672
283,868.2341549512737
284,868.3985895710384
285,868.5630864999548
286,868.7275501802977
287,868.8918881779715
288,869.0560114643164
289,869.2198346680239
290,869.3832762898247
291,869.5462588734599
292,869.7087091286711
293,869.8705580045639
294,870.0317407138127
295,870.1921967096189
296,870.3518696183811
297,870.5107071319297
298,870.6686608641288
299,870.8256861777485
300,870.9817419884151
301,871.1367905526171
302,871.2907972461393
303,871.443730338601
304,871.5955607695358
305,871.7462619313908
306,871.8958094642255
307,872.0441810654904
308,872.1913563163711
309,872.3373165241112
310,872.4820445773842
311,872.6255248091195
312,872.7677428589498
313,872.9086855267226
314,873.048340609668
315,873.1866967182093
316,873.323743068193
317,873.4594692499056
318,873.5938649762353
319,873.7269198137136
320,873.8586229014235
321,873.9889626640571
322,874.1179265260431
323,874.2455006329676
324,874.3716695850517
325,874.4964161863563
326,874.6197212128781
327,874.7415632020761
328,874.8619182653787
329,874.9807599242474
330,875.0980589697396
331,875.2137833451213
332,875.3278980509485
333,875.4403650721888
334,875.5511433270577
335,875.6601886366882
336,875.7674537136173
337,875.8728881662385
338,875.9764385165555
339,876.0780482297014
340,876.1776577552491
341,876.2752045817812
342,876.3706233068497
343,876.4638457240893
344,876.5548009284532
345,876.6434154400182
346,876.7296133465217
347,876.8133164642172
348,876.8944445155904
349,876.9729153214644
350,877.0486450047383
351,877.1215482036963
352,877.1915382941933
353,877.2585276213445
354,877.3224277418218
355,877.3831496769391
356,877.4406041747083
357,877.4947019770264
358,877.5453540871101
359,877.5924720323885
360,877.6359681188457
361,877.6757556737573
362,877.711749274557
363,877.7438649619995
364,877.7720204360304
365,877.7961352332372
366,877.816130885682
367,877.8319310621747
368,877.8434616946425
369,877.8506510940945
370,877.8534300622316
371,877.8517320052198
372,877.8454930554749
373,877.8346522063828
374,877.8191514643029
375,877.7989360215395
376,877.7739544525618
377,877.7441589338313
378,877.709505485999
379,877.6699542364711
380,877.6254697002764
381,877.5760210775295
382,877.5215825664361
383,877.4621336916942
384,877.3976596492325
385,877.3281516692457
386,877.2536074000492
387,877.1740313150036
388,877.089435143529
389,876.99983832508
390,876.905268482121
391,876.8057619049861
392,876.7013640385469
393,876.5921299585921
394,876.4781248254554
395,876.3594243037186
396,876.2361149389425
397,876.1082944844752
398,875.9760721730073
399,875.8395689286833
400,875.6989175165265
401,875.5542626269158
402,875.4057608936687
403,875.2535808445613
404,875.0979027829568
405,874.9389185992005
406,874.7768315108966
407,874.6118557318084
408,874.4442160694932
409,874.2741474518394
410,874.1018943826951
411,873.9277103271158
412,873.7518570279434
413,873.5746037574912
414,873.3962265101452
415,873.217007142608
416,873.0372324683539
417,872.8571933123999
418,872.6771835322846
419,872.4974990111592
420,872.3184366291356
421,872.1402932196413
422,871.9633645185498
423,871.7879441150832
424,871.6143224146352
425,871.4427856245162
426,871.273614774132
427,871.1070847811835
428,870.9434635747157
429,870.7830112840065
430,870.6259794996723
431,870.472610610745
432,870.3231372194155
433,870.1777816337462
434,870.0367554377791
435,869.9002591375613
436,869.7684818802746
437,869.6416012420381
438,869.5197830787669
439,869.4031814342364
440,869.2919385002662
441,869.1861846253493
442,869.0860383693846
443,868.9916066028254
444,868.9029846485627
445,868.8202564647194
446,868.743494866602
447,868.6727617862942
448,868.6081085685026
449,868.5495763011573
450,868.4971961792133
451,868.4509899003549
452,868.4109700916207
453,868.3771407658071
454,868.3494978055643
455,868.328029471488
456,868.3127169284166
457,868.3035347819977
458,868.3004516160156
459,868.3034305204612
460,868.312429600852
461,868.3274024602014
462,868.3482986455789
463,868.3750640518302
464,868.4076412766981
465,868.4459699240715
466,868.4899868540045
467,868.5396263790274
468,868.5948204069701
469,868.6554985314887
470,868.7215880722102
471,868.7930140665455
472,868.8696992150326
473,868.9515637821752
474,869.0385254553632
475,869.1304991653293
476,869.2273968722039
477,869.3291273215236
478,869.4355957749947
479,869.5467037218049
480,869.6623485775237
481,869.7824233784849
482,869.9068164795225
483,870.0354112620942
484,870.1680858586876
485,870.3047128985069
486,870.4451592786635
487,870.5892859640857
488,870.7369478180445
489,870.8879934640134
490,871.0422651789261
491,871.199598817694
492,871.3598237685599
493,871.5227629381952
494,871.6882327648191
495,871.8560432577164
496,872.0259980623466
497,872.1978945511304
498,872.371523940726
499,872.5466714375266
500,872.7231164143435
501,872.900632622429
502,873.0789884435759
503,873.2579471867433
504,873.4372674326272
505,873.6167034282939
506,873.7960055328928
507,873.9749207145594
508,874.1531930976946
509,874.3305645590625
510,874.5067753709557
511,874.6815648897857
512,874.854672288316
513,875.0258373290866
514,875.1948011756182
515,875.3613072370249
516,875.5251020408444
517,875.6859361281263
518,875.843564963881
519,875.9977498545943
520,876.1482588625164
521,876.2948677042683
522,876.4373606197216
523,876.5755311964385
524,876.7091831349392
525,876.8381309406454
526,876.962200529955
527,877.0812297406195
528,877.1950687397239
529,877.3035803250493
530,877.4066401171332
531,877.5041366404458
532,877.5959712935697
533,877.6820582103265
534,877.762324016083
535,877.8367074857387
536,877.9051591122969
537,877.9676405973288
538,878.0241242765129
539,878.0745924944456
540,878.1190369432901
541,878.1574579797151
542,878.1898639339001
543,878.2162704233418
544,878.2366996830831
545,878.2511799227764
546,878.2597447194004
547,878.2624324523131
548,878.2592857847737
549,878.2503511934228
550,878.2356785447984
551,878.2153207159377
552,878.1893332545222
553,878.157774072961
554,878.1207031702993
555,878.0781823759087
556,878.0302751097734
557,877.9770461561476
558,877.9185614501243
559,877.8548878791933
560,877.7860931033354
561,877.7122453977095
562,877.6334135221101
563,877.5496666213822
564,877.4610741606084
565,877.3677058979158
566,877.2696318964655
567,877.1669225761516
568,877.0596488049188
569,876.9478820289884
570,876.8316944403492
571,876.7111591786861
572,876.5863505638225
573,876.4573443539726
574,876.3242180246457
575,876.1870510627864
576,876.0459252704782
577,875.9009250722838
578,875.7521378202737
579,875.5996540910927
580,875.4435679699299
581,875.2839773170073
582,875.1209840136087
583,874.954694186872
584,874.7852184150215
585,874.6126719162453
586,874.4371747243244
587,874.2588518529676
588,874.0778334497495
589,873.8942549398582
590,873.7082571589345
591,873.5199864727937
592,873.3295948800692
593,873.1372400923292
594,872.9430855852796
595,872.7473006141036
596,872.5500601855103
597,872.3515449788908
598,872.151941209709
599,871.9514404300218
600,871.750239263171
601,871.5485390715301
602,871.346545557689
603,871.1444683008905
604,870.9425202319288
605,870.7409170510373
606,870.5398765944574
607,870.3396181561628
608,870.1403617713569
609,869.9423274682803
610,869.7457344951772
611,869.5508005301149
612,869.3577408823443
613,869.166767694675
614,868.9780891565346
615,868.7919087366869
616,868.6084244432441
617,868.4278281174578
618,868.2503047672692
619,868.0760319464692
620,867.9051791849066
621,867.737907474101
622,867.574368810893
623,867.4147057995638
624,867.2590513105159
625,867.1075281915247
626,866.9602490261559
627,866.8173159334314
628,866.6788204030917
629,866.5448431614917
630,866.4154540639872
631,866.2907120106863
632,866.1706648837431
633,866.0553495059661
634,865.944791622267
635,865.8390059069876
636,865.737996000876
637,865.6417545812482
638,865.5502634679748
639,865.4634937668619
640,865.381406051254
641,865.3039505826773
642,865.231067572205
643,865.1626874856817
644,865.0987313972458
645,865.0391113957079
646,864.9837310468467
647,864.9324859121502
648,864.8852641218696
649,864.8419469979173
650,864.8024097202094
651,864.7665220287622
652,864.7341489533155
653,864.7051515622603
654,864.6793877228839
655,864.6567128652638
656,864.6369807424276
657,864.6200441798198
658,864.6057558082094
659,864.5939687762584
660,864.5845374416567
661,864.5773180419022
662,864.572169346299
663,864.568953289249
664,864.567535582406
665,864.5677863010753
666,864.5695804387527
667,864.5727984225816
668,864.5773265817272
669,864.5830575603707
670,864.5898906672669
671,864.5977321547579
672,864.6064954219794
673,864.6161011394148
674,864.6264772942263
675,864.6375591575842
676,864.6492891767554
677,864.6616167964221
678,864.6744982156544
679,864.6878960887536
680,864.7017791792393
681,864.7161219761667
682,864.7309042806513
683,864.7461107684762
684,864.7617305331079
685,864.7777566131397
686,864.7941855089197
687,864.8110166940614
688,864.8282521280528
689,864.8458957761383
690,864.8639531421596
691,864.8824308189809
692,864.9013360592929
693,864.9206763672345
694,864.9404591092491
695,864.9606911417839
696,864.9813784540186
697,865.0025258251995
698,865.0241364974465
699,865.046211865671
700,865.0687511865978
701,865.0917513090956
702,865.1152064283334
703,865.1391078668188
704,865.1634438860589
705,865.1881995333329
706,865.2133565287984
707,865.2388931985672
708,865.2647844592171
709,865.2910018586327
710,865.3175136774529
711,865.3442850947105
712,865.3712784202723
713,865.398453395495
714,865.4257675623201
715,865.4531766998326
716,865.4806353259116
717,865.5080972599453
718,865.5355162407395
719,865.5628465916609
720,865.5900439226955
721,865.6170658567968
722,865.6438727663244
723,865.6704285048993
724,865.6967011204825
725,865.7226635364991
726,865.7482941889456
727,865.7735776082969
728,865.7985049356159
729,865.8230743627822
730,865.8472914874652
731,865.8711695746159
732,865.8947297179866
733,865.9180008973841
734,865.9410199298711
735,865.9638313159152
736,865.9864869844945
737,866.0090459439584
738,866.0315738474958
739,866.0541424831499
740,866.0768291984878
741,866.0997162696244
742,866.1228902237444
743,866.146441123953
744,866.1704618252598
745,866.1950472104246
746,866.2202934139058
747,866.2462970413274
748,866.2731543910937
749,866.3009606842202
750,866.3298093080355
751,866.3597910792334
752,866.3909935320214
753,866.4235002376836
754,866.4573901622999
755,866.4927370694551
756,866.5296089746734
757,866.5680676580118
758,866.6081682404446
759,866.6499588283118
760,866.6934802286371
761,866.7387657371427
762,866.7858410004496
763,866.8347239538697
764,866.8854248359065
765,866.9379462799012
766,866.9922834822496
767,867.0484244454695
768,867.1063502931834
769,867.1660356527605
770,867.2274490998996
771,867.2905536578297
772,867.3553073422252
773,867.421663741767
774,867.4895726240857
775,867.5589805576105
776,867.6298315410952
777,867.7020676337181
778,867.7756295796494
779,867.8504574221356
780,867.9264911036004
781,868.003671049555
782,868.0819387348088
783,868.1612372306224
784,868.2415117313424
785,868.3227100584736
786,868.4047831385238
787,868.487685448365
788,868.5713754194741
789,868.6558157914325
790,868.7409739056521
791,868.8268219317094
792,868.9133370201298
793,869.0005013768755
794,869.0883022564182
795,869.1767318720521
796,869.2657872234371
797,869.3554698420305
798,869.4457854556035
799,869.5367435739304
800,869.6283569988539
801,869.7206412629413
802,869.8136140019323
803,869.9072942673238
804,870.0017017868428
805,870.0968561821887
806,870.1927761551088
807,870.2894786541355
808,870.3869780346879
809,870.4852852246793
810,870.58440690676
811,870.6843447273872
812,870.7850945421364
813,870.8866457058638
814,870.9889804152199
815,871.0920731097356
816,871.1958899365864
817,871.3003882836277
818,871.4055163854416
819,871.511213007637
820,871.6174072150062
821,871.7240182288288
822,871.8309553772954
823,871.938118140782
824,872.0453962910509
825,872.1526701210291
826,872.2598107602049
827,872.3666805700938
828,872.4731336140874
829,872.579016195416
830,872.6841674555543
831,872.7884200236499
832,872.8916007062976
833,872.9935312068711
834,873.0940288647105
835,873.1929074060192
836,873.2899776994204
837,873.385048509505
838,873.4779272422704
839,873.5684206781469
840,873.6563356911918
841,873.7414799557529
842,873.8236626436156
843,873.9026951154259
844,873.9783916103545
845,874.0505699375203
846,874.1190521716463
847,874.1836653539862
848,874.2442421978104
849,874.3006217957204
850,874.3526503241343
851,874.400181738999
852,874.4430784565466
853,874.4812120135593
854,874.5144637025838
855,874.5427251784103
856,874.5658990328413
857,874.5838993352821
858,874.596652136615
859,874.6040959329684
860,874.6061820848746
861,874.6028751870538
862,874.5941533851592
863,874.5800086375993
864,874.5604469220874
865,874.5354883874974
866,874.5051674520748
867,874.4695328491928
868,874.4286476217626
869,874.3825890664548
870,874.3314486293337
871,874.2753317551678
872,874.2143576930384
873,874.1486592606749
874,874.078382569168
875,874.0036867086156
876,873.9247433942229
877,873.8417365716193
878,873.7548619796695
879,873.664326669143
880,873.5703484768843
881,873.4731554574485
882,873.3729852764069
883,873.2700845705675
884,873.1647082801342
885,873.0571189571394
886,872.9475860535881
887,872.8363851913408
888,872.7237974138233
889,872.6101084177975
890,872.495607762313
891,872.3805880517759
892,872.2653440906736
893,872.1501720086798
894,872.0353683565761
895,871.9212291753846
896,871.8080490426596
897,871.6961201006446
898,871.5857310712653
899,871.4771662633273
900,871.3707045782902
901,871.2666185226801
902,871.1651732373141
903,871.0666255552995
904,870.9712231014826
905,870.8792034454588
906,870.790793318889
907,870.7062079061632
908,870.6256502157024
909,870.5493105376537
910,870.477365992568
911,870.4099801745367
912,870.3473028907341
913,870.2894699972974
914,870.2366033295001
915,870.1888107229203
916,870.1461861219182
917,870.10880977165
