frame_number,force
0,880.5471303908025
1,880.7001790468172
2,880.8418686305359
3,880.9720724348022
4,881.0906889473263
5,881.1976419486123
6,881.2928805419551
7,881.376379111922
8,881.4481372081884
9,881.5081793521006
10,881.556554763572
11,881.593337005718
12,881.6186235442011
13,881.6325352182407
14,881.635215621168
15,881.626830390227
16,881.60756640762
17,881.5776309170928
18,881.5372505621818
19,881.486670352964
20,881.4261525675644
21,881.3559755934266
22,881.2764327124937
23,881.1878308343884
24,881.0904891819089
25,880.9847379329158
26,880.8709168220028
27,880.749373705184
28,880.6204630919991
29,880.4845446515192
30,880.3419817007313
31,880.1931396850656
32,880.0383846612087
33,879.8780817916328
34,879.7125938586769
35,879.5422798042373
36,879.3674932997482
37,879.1885813502763
38,879.0058829362234
39,878.8197276965064
40,878.6304346583617
41,878.4383110208402
42,878.2436510007585
43,878.046734750473
44,877.8478273563275
45,877.6471779257972
46,877.445018770921
47,877.2415646954794
48,877.0370123929008
49,876.8315399607126
50,876.6253065358362
51,876.4184520536293
52,876.2110971323048
53,876.0033430831481
54,875.7952720460365
55,875.5869472491643
56,875.3784133911056
57,875.1696971419397
58,874.9608077582718
59,874.7517378050015
60,874.5424639748048
61,874.3329479944957
62,874.1231376057758
63,873.9129676066815
64,873.7023609397312
65,873.4912298136263
66,873.2794768474288
67,873.0669962291413
68,872.8536748838526
69,872.6393936492885
70,872.4240284583516
71,872.2074515292768
72,871.9895325648303
73,871.7701399626876
74,871.5491420395243
75,871.3264082708771
76,871.1018105470049
77,870.8752244420432
78,870.6465304907828
79,870.4156154652727
80,870.1823736421209
81,869.9467080505835
82,869.708531691163
83,869.4677687142195
84,869.2243555478776
85,868.9782419646165
86,868.7293920768489
87,868.477785253395
88,868.2234169504407
89,867.9662994519341
90,867.7064625154267
91,867.4439539200665
92,867.1788399133235
93,866.9112055515665
94,866.6411549273546
95,866.3688112748325
96,866.0943169451417
97,865.8178332460204
98,865.5395401426208
99,865.2596358191594
100,864.9783361031384
101,864.6958737556116
102,864.4124976326012
103,864.1284717247898
104,863.8440740850016
105,863.559595654893
106,863.275339002992
107,862.9916169863387
108,862.7087513486122
109,862.4270712688411
110,862.1469118755489
111,861.8686127406784
112,861.5925163661368
113,861.3189666742232
114,861.048307512143
115,860.7808811798485
116,860.517026989009
117,860.2570798594098
118,860.0013689583477
119,859.7502163886033
120,859.5039359304508
121,859.2628318422195
122,859.0271977224581
123,858.7973154356932
124,858.5734541036841
125,858.3558691645433
126,858.144801502407
127,857.9404766503952
128,857.7431040695715
129,857.552876506142
130,857.3699694278746
131,857.1945405392905
132,857.0267293747601
133,856.8666569695214
134,856.714425610177
135,856.5701186677375
136,856.4338005174923
137,856.3055165505318
138,856.1852932811015
139,856.0731385521416
140,855.9690418392499
141,855.8729746517577
142,855.7848910285476
143,855.7047281250025
144,855.6324068857119
145,855.5678327956077
146,855.5108967004592
147,855.4614756862943
148,855.4194340062791
149,855.3846240430888
150,855.3568872952236
151,855.3360553771706
152,855.3219510255415
153,855.3143891057264
154,855.3131776154071
155,855.3181186818658
156,855.3290095495728
157,855.345643553708
158,855.3678110744498
159,855.3953004660191
160,855.4278989536075
161,855.465393490798
162,855.5075715703337
163,855.5542219821792
164,855.6051355143703
165,855.6601055938718
166,855.7189288662322
167,855.7814057137157
168,855.8473407115121
169,855.9165430209899
170,855.9888267184277
171,856.064011057738
172,856.1419206666084
173,856.2223856770595
174,856.3052417930701
175,856.3903302991572
176,856.477498014615
177,856.5665971987914
178,856.6574854132955
179,856.7500253470979
180,856.8440846100898
181,856.9395355004189
182,857.036254751458
183,857.1341232654241
184,857.2330258417181
185,857.3328509085397
186,857.4334902665229
187,857.5348388535908
188,857.6367945406855
189,857.7392579673567
190,857.8421324236675
191,857.9453237811327
192,858.0487404718416
193,858.1522935123888
194,858.2558965677763
195,858.3594660497113
196,858.4629212434075
197,858.5661844568165
198,858.6691811859789
199,858.7718402897173
200,858.8740941664993
201,858.9758789269853
202,859.0771345582696
203,859.1778050795922
204,859.2778386928574
205,859.3771879336381
206,859.47580982937
207,859.5736660711555
208,859.670723203903
209,859.7669528367795
210,859.8623318732743
211,859.9568427584444
212,860.0504737400436
213,860.1432191392521
214,860.2350796247476
215,860.3260624810081
216,860.4161818591477
217,860.5054589975095
218,860.5939224002558
219,860.6816079649775
220,860.7685590537774
221,860.8548265051857
222,860.940468586214
223,861.0255508850927
224,861.11014614598
225,861.1943340470821
226,861.2782009230494
227,861.361839431444
228,861.4453481619639
229,861.5288311864721
230,861.6123975479168
231,861.6961606871217
232,861.780237808408
233,861.8647491881932
234,861.9498174345038
235,862.035566708431
236,862.1221219198437
237,862.2096079091067
238,862.298148625095
239,862.3878663084172
240,862.4788806879192
241,862.5713081983583
242,862.6652612274214
243,862.7608474003638
244,862.8581689098241
245,862.9573218967982
246,863.0583958868211
247,863.1614732835262
248,863.2666289202083
249,863.3739296691863
250,863.4834341087608
251,863.5951922480733
252,863.7092453108053
253,863.825625579206
254,863.9443563000365
255,864.0654516530159
256,864.1889167802416
257,864.3147478729686
258,864.4429323112704
259,864.5734488524114
260,864.7062678643248
261,864.8413516009822
262,864.9786545168974
263,865.1181236185224
264,865.2596988504976
265,865.4033135144274
266,865.5488947171899
267,865.6963638447824
268,865.8456370564838
269,865.9966257933116
270,866.1492372949574
271,866.3033751202158
272,866.4589396665092
273,866.6158286844402
274,866.7739377840272
275,866.9331609304484
276,867.0933909279958
277,867.2545198910221
278,867.4164397003096
279,867.5790424432671
280,867.7422208370054
281,867.9058686342535
282,868.069881012541
283,868.2341549469734
284,868.398589566771
285,868.5630864957267
286,868.7275501761146
287,868.8918881738379
288,869.0560114602357
289,869.2198346639987
290,869.383276285856
291,869.5462588695475
292,869.7087091248139
293,869.8705580007613
294,870.0317407100639
295,870.1921967059229
296,870.3518696147374
297,870.5107071283379
298,870.6686608605881
299,870.8256861742585
300,870.9817419849755
301,871.1367905492278
302,871.2907972428005
303,871.4437303353127
304,871.5955607662974
305,871.7462619282006
306,871.8958094610812
307,872.0441810623881
308,872.1913563133047
309,872.3373165210724
310,872.4820445743624
311,872.6255248061025
312,872.7677428559238
313,872.9086855236721
314,873.0483406065756
315,873.1866967150556
316,873.3237430649575
317,873.4594692465666
318,873.5938649727698
319,873.7269198100977
320,873.8586228976329
321,873.9889626600683
322,874.1179265218342
323,874.2455006285194
324,874.3716695803478
325,874.4964161813839
326,874.6197212076271
327,874.7415631965396
328,874.8619182595527
329,874.9807599181304
330,875.098058963332
331,875.2137833384257
332,875.3278980439683
333,875.4403650649289
334,875.5511433195247
335,875.6601886288906
336,875.7674537055663
337,875.8728881579476
338,875.9764385080406
339,876.07804822098
340,876.1776577463406
341,876.2752045727066
342,876.3706232976303
343,876.4638457147458
344,876.5548009190051
345,876.6434154304837
346,876.7296133369184
347,876.8133164545619
348,876.8944445058988
349,876.9729153117512
350,877.0486449950171
351,877.1215481939804
352,877.1915382844958
353,877.2585276116785
354,877.3224277322001
355,877.3831496673744
356,877.4406041652124
357,877.4947019676114
358,877.5453540777874
359,877.5924720231689
360,877.6359681097391
361,877.6757556647731
362,877.7117492657035
363,877.7438649532844
364,877.7720204274601
365,877.7961352248178
366,877.8161308774191
367,877.8319310540738
368,877.8434616867089
369,877.8506510863325
370,877.853430054644
371,877.8517319978079
372,877.8454930482383
373,877.8346521993203
374,877.8191514574125
375,877.7989360148187
376,877.7739544460078
377,877.7441589274406
378,877.7095054797676
379,877.6699542303944
380,877.6254696943491
381,877.5760210717464
382,877.5215825607921
383,877.4621336861846
384,877.3976596438523
385,877.3281516639903
386,877.2536073949142
387,877.1740313099847
388,877.0894351386218
389,876.9998383202798
390,876.9052684774226
391,876.8057619003836
392,876.7013640340333
393,876.5921299541594
394,876.4781248210952
395,876.3594242994222
396,876.2361149347017
397,876.1082944802821
398,875.9760721688546
399,875.8395689245637
400,875.6989175124327
401,875.55426262284
402,875.4057608896034
403,875.2535808404996
404,875.0979027788927
405,874.9389185951288
406,874.7768315068125
407,874.6118557277084
408,874.4442160653745
409,874.2741474476992
410,874.101894378531
411,873.9277103229261
412,873.751857023726
413,873.5746037532438
414,873.3962265058647
415,873.2170071382903
416,873.0372324639936
417,872.8571933079904
418,872.6771835278184
419,872.4974990066289
420,872.3184366245334
421,872.1402932149591
422,871.9633645137789
423,871.7879441102149
424,871.6143224096609
425,871.442785619427
426,871.2736147689197
427,871.1070847758402
428,870.9434635692337
429,870.7830112783776
430,870.6259794938871
431,870.4726106047947
432,870.3231372132911
433,870.1777816274405
434,870.0367554312859
435,869.9002591308762
436,869.7684818733956
437,869.641601234965
438,869.5197830715016
439,869.4031814267817
440,869.2919384926261
441,869.186184617529
442,869.08603836139
443,868.9916065946627
444,868.9029846402383
445,868.8202564562405
446,868.7434948579764
447,868.672761777531
448,868.6081085596119
449,868.5495762921497
450,868.4971961701004
451,868.4509898911487
452,868.410970082334
453,868.3771407564534
454,868.3494977961574
455,868.3280294620419
456,868.3127169189455
457,868.3035347725163
458,868.3004516065397
459,868.3034305110074
460,868.3124295914375
461,868.3274024508441
462,868.3482986362973
463,868.3750640426425
464,868.4076412676225
465,868.4459699151267
466,868.4899868452096
467,868.539626370401
468,868.594820398531
469,868.655498523255
470,868.7215880641998
471,868.7930140587744
472,868.8696992075147
473,868.9515637749226
474,869.0385254483855
475,869.1304991586326
476,869.2273968657921
477,869.3291273153986
478,869.4355957691562
479,869.5467037162506
480,869.6623485722495
481,869.7824233734841
482,869.9068164747865
483,870.0354112576124
484,870.1680858544488
485,870.3047128944991
486,870.4451592748741
487,870.5892859605016
488,870.7369478146521
489,870.8879934607986
490,871.0422651758754
491,871.1995988147946
492,871.3598237657986
493,871.5227629355586
494,871.6882327622928
495,871.8560432552856
496,872.0259980599957
497,872.1978945488427
498,872.3715239384845
499,872.5466714353142
500,872.7231164121436
501,872.9006326202256
502,873.078988441354
503,873.2579471844891
504,873.4372674303288
505,873.6167034259404
506,873.7960055304742
507,873.9749207120666
508,874.1531930951185
509,874.3305645563945
510,874.5067753681869
511,874.6815648869073
512,874.8546722853188
513,875.025837325962
514,875.1948011723591
515,875.361307233626
516,875.5251020373021
517,875.6859361244386
518,875.8435649600476
519,875.9977498506154
520,876.1482588583926
521,876.2948677000007
522,876.4373606153113
523,876.5755311918866
524,876.709183130247
525,876.8381309358144
526,876.9622005249865
527,877.0812297355159
528,877.195068734488
529,877.3035803196854
530,877.4066401116467
531,877.5041366348428
532,877.5959712878567
533,877.6820582045107
534,877.7623240101718
535,877.836707479741
536,877.9051591062223
537,877.9676405911878
538,878.0241242703167
539,878.0745924882059
540,878.1190369370182
541,878.1574579734225
542,878.1898639275985
543,878.2162704170427
544,878.2366996767976
545,878.2511799165151
546,878.2597447131735
547,878.2624324461301
548,878.2592857786433
549,878.2503511873529
550,878.2356785387958
551,878.2153207100088
552,878.189333248673
553,878.1577740671978
554,878.1207031646287
555,878.0781823703372
556,878.0302751043063
557,877.977046150788
558,877.918561444874
559,877.8548878740515
560,877.7860930982997
561,877.7122453927756
562,877.633413517272
563,877.549666616632
564,877.461074155937
565,877.3677058933137
566,877.2696318919224
567,877.1669225716571
568,877.0596488004621
569,876.9478820245588
570,876.8316944359366
571,876.711159174281
572,876.5863505594162
573,876.4573443495575
574,876.3242180202153
575,876.1870510583358
576,876.0459252660032
577,875.9009250677813
578,875.7521378157412
579,875.5996540865295
580,875.4435679653361
581,875.2839773123836
582,875.1209840089566
583,874.954694182194
584,874.7852184103207
585,874.6126719115261
586,874.437174719593
587,874.2588518482308
588,874.0778334450148
589,873.8942549351335
590,873.7082571542279
591,873.5199864681133
592,873.3295948754235
593,873.1372400877268
594,872.9430855807286
595,872.7473006096114
596,872.5500601810837
597,872.3515449745355
598,872.1519412054296
599,871.9514404258224
600,871.7502392590558
601,871.5485390675025
602,871.3465455537512
603,871.1444682970435
604,870.942520228173
605,870.7409170473715
606,870.53987659088
607,870.3396181526709
608,870.1403617679468
609,869.9423274649481
610,869.7457344919188
611,869.5508005269264
612,869.3577408792211
613,869.1667676916117
614,868.978089153526
615,868.791908733728
616,868.60842444033
617,868.4278281145837
618,868.2503047644298
619,868.0760319436592
620,867.9051791821206
621,867.7379074713332
622,867.5743688081368
623,867.4147057968127
624,867.259051307764
625,867.1075281887667
626,866.9602490233873
627,866.8173159306489
628,866.6788204002926
629,866.544843158674
630,866.41545406115
631,866.2907120078303
632,866.1706648808707
633,866.0553495030802
634,865.9447916193703
635,865.8390059040833
636,865.7379959979663
637,865.6417545783343
638,865.5502634650574
639,865.4634937639416
640,865.3814060483313
641,865.303950579753
642,865.2310675692796
643,865.1626874827564
644,865.0987313943224
645,865.0391113927885
646,864.9837310439343
647,864.9324859092486
648,864.8852641189834
649,864.8419469950519
650,864.8024097173712
651,864.7665220259581
652,864.7341489505532
653,864.7051515595477
654,864.6793877202291
655,864.6567128626742
656,864.6369807399099
657,864.6200441773799
658,864.6057558058523
659,864.5939687739883
660,864.5845374394779
661,864.5773180398182
662,864.5721693443127
663,864.5689532873622
664,864.5675355806195
665,864.5677862993892
666,864.5695804371669
667,864.5727984210956
668,864.5773265803412
669,864.5830575590852
670,864.5898906660829
671,864.5977321536765
672,864.6064954210026
673,864.6161011385448
674,864.6264772934644
675,864.6375591569308
676,864.6492891762105
677,864.6616167959844
678,864.6744982153215
679,864.6878960885215
680,864.7017791791023
681,864.7161219761184
682,864.730904280684
683,864.7461107685809
684,864.7617305332749
685,864.7777566133587
686,864.7941855091797
687,864.8110166943505
688,864.8282521283587
689,864.8458957764486
690,864.8639531424611
691,864.8824308192598
692,864.9013360595352
693,864.9206763674259
694,864.9404591093753
695,864.9606911418301
696,864.9813784539699
697,865.0025258250413
698,865.0241364971652
699,865.0462118652541
700,865.0687511860345
701,865.0917513083767
702,865.1152064274515
703,865.1391078657686
704,865.1634438848364
705,865.1881995319359
706,865.2133565272258
707,865.2388931968189
708,865.264784457294
709,865.2910018565353
710,865.3175136751807
711,865.3442850922631
712,865.3712784176496
713,865.398453392697
714,865.4257675593477
715,865.4531766966885
716,865.4806353225987
717,865.5080972564673
718,865.5355162371018
719,865.562846587871
720,865.590043918763
721,865.6170658527325
722,865.6438727621394
723,865.670428500605
724,865.6967011160906
725,865.7226635320206
726,865.7482941843914
727,865.7735776036777
728,865.7985049309424
729,865.8230743580651
730,865.8472914827153
731,865.871169569844
732,865.8947297132033
733,865.9180008926003
734,865.9410199250964
735,865.9638313111578
736,865.9864869797617
737,866.0090459392557
738,866.031573842827
739,866.0541424785173
740,866.0768291938917
741,866.0997162650633
742,866.1228902192145
743,866.1464411194487
744,866.1704618207747
745,866.1950472059514
746,866.2202934094364
747,866.2462970368529
748,866.2731543866045
749,866.3009606797057
750,866.3298093034846
751,866.3597910746352
752,866.3909935273655
753,866.4235002329604
754,866.4573901575009
755,866.4927370645727
756,866.5296089697006
757,866.5680676529423
758,866.6081682352735
759,866.6499588230358
760,866.6934802232543
761,866.7387657316519
762,866.7858409948509
763,866.8347239481641
764,866.8854248300966
765,866.9379462739909
766,866.9922834762446
767,867.0484244393772
768,867.1063502870124
769,867.1660356465212
770,867.227449093603
771,867.2905536514872
772,867.3553073358481
773,867.4216637353667
774,867.4895726176732
775,867.5589805511968
776,867.6298315346901
777,867.7020676273307
778,867.7756295732883
779,867.8504574158085
780,867.926491097314
781,868.0036710433152
782,868.0819387286205
783,868.1612372244902
784,868.2415117252697
785,868.3227100524634
786,868.4047831325785
787,868.4876854424855
788,868.5713754136607
789,868.6558157856854
790,868.7409738999718
791,868.8268219260965
792,868.913337014585
793,869.0005013713985
794,869.0883022510077
795,869.1767318667064
796,869.2657872181535
797,869.3554698368054
798,869.4457854504319
799,869.5367435688075
800,869.6283569937749
801,869.7206412579023
802,869.8136139969309
803,869.9072942623588
804,870.0017017819139
805,870.0968561772962
806,870.192776150254
807,870.2894786493202
808,870.3869780299152
809,870.4852852199532
810,870.5844069020859
811,870.6843447227707
812,870.785094537584
813,870.8866457013822
814,870.9889804108167
815,871.0920731054177
816,871.1958899323603
817,871.3003882794989
818,871.4055163814137
819,871.5112130037118
820,871.6174072111838
821,871.7240182251077
822,871.8309553736724
823,871.9381181372528
824,872.0453962876105
825,872.152670117672
826,872.2598107569255
827,872.3666805668865
828,872.4731336109465
829,872.5790161923352
830,872.6841674525265
831,872.7884200206682
832,872.8916007033553
833,872.9935312039618
834,873.0940288618273
835,873.1929074031544
836,873.2899776965653
837,873.38504850665
838,873.4779272394056
839,873.5684206752621
840,873.6563356882767
841,873.7414799527977
842,873.8236626406108
843,873.9026951123623
844,873.9783916072236
845,874.0505699343141
846,874.119052168357
847,874.1836653506064
848,874.244242194333
849,874.3006217921392
850,874.3526503204441
851,874.4001817351964
852,874.4430784526297
853,874.4812120095281
854,874.5144636984398
855,874.5427251741562
856,874.565899028481
857,874.5838993308199
858,874.5966521320553
859,874.6040959283156
860,874.6061820801331
861,874.6028751822284
862,874.5941533802552
863,874.5800086326217
864,874.5604469170411
865,874.5354883823877
866,874.5051674469079
867,874.469532843975
868,874.4286476165006
869,874.3825890611549
870,874.3314486240029
871,874.2753317498132
872,874.2143576876672
873,874.1486592552933
874,874.0783825637819
875,874.0036867032317
876,873.924743388848
877,873.8417365662607
878,873.7548619743338
879,873.6643266638365
880,873.5703484716132
881,873.4731554522183
882,873.3729852712233
883,873.2700845654358
884,873.1647082750587
885,873.0571189521233
886,872.9475860486336
887,872.8363851864498
888,872.7237974089974
889,872.6101084130386
890,872.4956077576226
891,872.3805880471554
892,872.2653440861244
893,872.150172004203
894,872.0353683521727
895,871.9212291710553
896,871.8080490384046
897,871.6961200964639
898,871.585731067158
899,871.4771662592926
900,871.3707045743269
901,871.2666185187859
902,871.1651732334861
903,871.0666255515342
904,870.971223097775
905,870.8792034418033
906,870.7907933152794
907,870.7062079025931
908,870.6256502121653
909,870.5493105341428
910,870.4773659890759
911,870.4099801710553
912,870.3473028872547
913,870.289469993811
914,870.2366033259984
915,870.1888107193951
916,870.1461861183611
917,870.108809768053
