frame_number,force
0,880.6233129841278
1,880.7859658181291
2,880.9373296925074
3,881.0772452323481
4,881.2055534933693
5,881.3220973745894
6,881.4267242643597
7,881.5192896428354
8,881.5996613926749
9,881.6677246001677
10,881.7233866156676
11,881.7665820567429
12,881.7972773135671
13,881.8154740534868
14,881.8212113027835
15,881.8145659023354
16,881.7956514233676
17,881.7646159190285
18,881.7216391005531
19,881.6669295695814
20,881.600722576045
21,881.5232785071333
22,881.4348821105898
23,881.3358423792017
24,881.2264929932278
25,881.1071931180238
26,880.9783281886586
27,880.8403102334862
28,880.6935774189058
29,880.5385927766978
30,880.3758423445654
31,880.2058331170712
32,880.0290912356784
33,879.8461607163081
34,879.6576027522855
35,879.4639953496719
36,879.2659328417369
37,879.0640247083757
38,878.858893095594
39,878.6511685185695
40,878.441483467988
41,878.2304639843459
42,878.0187195845592
43,877.8068320818514
44,877.5953438295808
45,877.3847458690287
46,877.1754664783336
47,876.9678606881854
48,876.762201350093
49,876.5586722597333
50,876.3573637027304
51,876.1582706746725
52,875.9612939321732
53,875.7662439453801
54,875.5728477794325
55,875.3807589368199
56,875.1895701649731
57,874.9988291040689
58,874.8080564389654
59,874.6167659881276
60,874.4244859407441
61,874.2307802375032
62,874.0352688904303
63,873.8376459022953
64,873.6376934426663
65,873.4352911097709
66,873.2304194624297
67,873.0231575017818
68,872.8136743114371
69,872.6022155022944
70,872.3890853980687
71,872.1746260774489
72,871.9591945280321
73,871.7431392920882
74,871.526778058562
75,871.3103775948078
76,871.0941371378934
77,870.8781759186011
78,870.6625250390512
79,870.4471235983098
80,870.2318187566655
81,870.0163693054424
82,869.8004522445101
83,869.5836718238353
84,869.3655704505167
85,869.1456408528871
86,868.9233390006349
87,868.6980974841447
88,868.4693392645081
89,868.236491854792
90,867.9990020833359
91,867.756351616501
92,867.5080733060092
93,867.2537680981081
94,866.9931217815799
95,866.7259205061372
96,866.4520639610248
97,866.1715753278596
98,865.8846074340915
99,865.5914448031283
100,865.2925014939451
101,864.9883147609341
102,864.6795346906499
103,864.3669101619879
104,864.0512717313898
105,863.7335122319059
106,863.4145658870791
107,863.095386669688
108,862.7769266564942
109,862.4601152532183
110,862.1458402289737
111,861.8349313822549
112,861.5281473998938
113,861.2261662131201
114,860.9295789900051
115,860.6388877652793
116,860.3545065088973
117,860.0767652352479
118,859.8059166842553
119,859.5421451608115
120,859.2855771600651
121,859.0362933264022
122,858.7943411384756
123,858.5597476261945
124,858.332531492885
125,858.1127141731586
126,857.9003294931792
127,857.6954316975249
128,857.4981016923346
129,857.3084513733448
130,857.1266258026372
131,856.9528028688575
132,856.7871900917983
133,856.6300184621282
134,856.4815335374212
135,856.3419843419474
136,856.2116108956182
137,856.0906313712417
138,855.9792298662661
139,855.87754557705
140,855.7856639176714
141,855.7036099652436
142,855.631344526069
143,855.5687629963588
144,855.5156969872197
145,855.4719184413768
146,855.4371457566554
147,855.4110512693622
148,855.3932693334402
149,855.3834041895864
150,855.3810369105349
151,855.3857309532893
152,855.3970362042293
153,855.4144917787113
154,855.4376281076004
155,855.4659689164548
156,855.4990336049218
157,855.5363403675627
158,855.5774102229468
159,855.6217719311618
160,855.6689675832242
161,855.7185584931402
162,855.7701309844847
163,855.8233017470386
164,855.8777225913108
165,855.9330846016597
166,855.9891218349715
167,856.0456147501313
168,856.1023934402606
169,856.1593405379618
170,856.2163934816853
171,856.2735457453845
172,856.3308466797532
173,856.3883997676105
174,856.4463592687238
175,856.5049253429132
176,856.5643377972701
177,856.6248686459182
178,856.6868136988178
179,856.7504833636607
180,856.8161927508119
181,856.8842511114915
182,856.9549507112207
183,857.0285554210366
184,857.1052894831149
185,857.1853270022771
186,857.2687827752574
187,857.3557051787207
188,857.4460719552101
189,857.5397896866383
190,857.6366974130191
191,857.7365743393518
192,857.8391510899048
193,857.944123650551
194,858.0511689888955
195,858.1599613056928
196,858.2701878985021
197,858.3815636696146
198,858.4938433490715
199,858.6068305050961
200,858.720382426361
201,858.8344101351237
202,858.9488732444969
203,859.0637700201486
204,859.1791236176092
205,859.2949658839416
206,859.411320318767
207,859.5281857893284
208,859.6455223666402
209,859.7632402537873
210,859.8811923840943
211,859.9991710158879
212,860.1169085237365
213,860.234082434439
214,860.3503244414438
215,860.4652326718505
216,860.5783860526582
217,860.6893594213713
218,860.7977381407693
219,860.9031313576432
220,861.0051835185676
221,861.1035841387143
222,861.1980760460474
223,861.2884624334175
224,861.3746130789785
225,861.4564700253999
226,861.5340528246436
227,861.6074631897378
228,861.6768886256866
229,861.7426044139096
230,861.8049732367442
231,861.8644417753287
232,861.9215338369639
233,861.9768399837874
234,862.0310041520028
235,862.0847081698357
236,862.1386552292183
237,862.1935532369125
238,862.25009871387
239,862.3089616792374
240,862.3707718185043
241,862.4361062126164
242,862.50547896686
243,862.5793331237533
244,862.6580351712695
245,862.7418722637701
246,862.8310520317639
247,862.9257046310325
248,863.025886516745
249,863.1315853783656
250,863.2427257557345
251,863.359175023726
252,863.4807496203097
253,863.6072215689966
254,863.7383254509439
255,863.8737659144338
256,864.0132255663223
257,864.1563728464992
258,864.3028694295506
259,864.4523768173566
260,864.6045619391218
261,864.7591016963158
262,864.915686513207
263,865.074023079157
264,865.2338365387018
265,865.3948723717751
266,865.5568981269008
267,865.7197050308042
268,865.8831093178724
269,866.0469530016794
270,866.2111038406755
271,866.3754543703342
272,866.5399199519903
273,866.7044358214279
274,866.8689532097693
275,867.0334347645926
276,867.1978496052619
277,867.3621683259265
278,867.5263581697934
279,867.6903785569549
280,867.854177209298
281,868.0176872174054
282,868.1808254260208
283,868.3434924561732
284,868.505574617575
285,868.6669479193504
286,868.827484249567
287,868.9870594815478
288,869.1455628572894
289,869.302906652559
290,869.4590349694124
291,869.613930597709
292,869.767619199554
293,869.9201704465981
294,870.0716960404685
295,870.2223447462812
296,870.3722947092604
297,870.5217434446714
298,870.6708960250736
299,870.8199521475951
300,870.9690928967497
301,871.1184680407877
302,871.2681846043354
303,871.4182973529355
304,871.5688017931154
305,871.7196302884213
306,871.8706518069858
307,872.0216756072728
308,872.1724588839832
309,872.3227180840142
310,872.4721432461018
311,872.6204143124003
312,872.7672180190432
313,872.9122638654743
314,873.0552978447889
315,873.1961129915767
316,873.3345562374893
317,873.470531466537
318,873.603998969381
319,873.7349717068901
320,873.8635089836771
321,873.9897083306352
322,874.1136964906648
323,874.2356202912416
324,874.3556379587365
325,874.4739112599975
326,874.590598779021
327,874.705850544599
328,874.8198040755918
329,874.9325817690516
330,875.0442894681239
331,875.1550159995633
332,875.2648334652964
333,875.3737981153326
334,875.4819516638805
335,875.5893228470663
336,875.6959288676406
337,875.8017762663717
338,875.9068608153765
339,876.0111662298918
340,876.1146617642994
341,876.2172990089763
342,876.3190083331884
343,876.4196953870428
344,876.5192379751485
345,876.6174835550577
346,876.7142475880471
347,876.8093128965264
348,876.9024300334455
349,876.9933185208921
350,877.0816687755971
351,877.1671446490083
352,877.2493867184108
353,877.3280166641213
354,877.4026431281835
355,877.4728692907652
356,877.5383020674856
357,877.5985624909741
358,877.6532966475603
359,877.7021865220111
360,877.744960188122
361,877.7814008930063
362,877.8113546654508
363,877.8347361061401
364,877.8515320147271
365,877.8618025427505
366,877.8656796674616
367,877.8633629457973
368,877.8551127253519
369,877.8412412525868
370,877.8221023418319
371,877.7980803296552
372,877.7695789316402
373,877.7370104781087
374,877.7007859282198
375,877.6613059793407
376,877.618953398056
377,877.5740864369081
378,877.527032997661
379,877.4780851332812
380,877.4274935288347
381,877.3754617206428
382,877.3221399816249
383,877.2676190133282
384,877.2119238272629
385,877.1550084309459
386,877.0967520945703
387,877.0369580046713
388,876.9753549876851
389,876.9116027166499
390,876.8453004315905
391,876.7759987643461
392,876.703213840345
393,876.6264425480144
394,876.5451778315645
395,876.458923073666
396,876.3672049645456
397,876.2695845664805
398,876.165666509617
399,876.0551063950405
400,875.9376165791762
401,875.8129706064848
402,875.6810066134793
403,875.541629989614
404,875.3948154674458
405,875.2406087161489
406,875.0791274811689
407,874.9105623032642
408,874.7351767964368
409,874.5533073624675
410,874.3653621094868
411,874.1718186840723
412,873.9732208021105
413,873.7701734814641
414,873.5633371963863
415,873.3534212271064
416,873.1411763696144
417,872.9273870271968
418,872.7128626091311
419,872.498428113542
420,872.2849137699283
421,872.0731436851763
422,871.8639235813106
423,871.6580279042538
424,871.4561867735874
425,871.25907340094
426,871.0672927213968
427,870.8813720407607
428,870.7017544436665
429,870.5287954889301
430,870.3627633891649
431,870.2038425483661
432,870.0521400992793
433,869.9076949623902
434,869.7704889082642
435,869.6404590659138
436,869.517511212015
437,869.4015330258052
438,869.292406409225
439,869.1900180324026
440,869.0942674778116
441,869.0050726647239
442,868.9223725283529
443,868.8461271097216
444,868.776315287182
445,868.7129304262168
446,868.6559742964783
447,868.6054496966445
448,868.5613522945457
449,868.5236622140233
450,868.4923359235514
451,868.4672990466868
452,868.4484407817575
453,868.4356106014205
454,868.428617759709
455,868.4272338765004
456,868.4311985299497
457,868.4402274323153
458,868.4540224904642
459,868.4722829356933
460,868.49471674582
461,868.5210516690897
462,868.5510451875463
463,868.5844927909403
464,868.6212341252287
465,868.6611568937609
466,868.7041986107822
467,868.7503463666176
468,868.7996347928273
469,868.8521424852204
470,868.9079871771436
471,868.9673198962349
472,869.030318233979
473,869.0971787986858
474,869.1681089500754
475,869.2433179836955
476,869.323007967944
477,869.407364426504
478,869.4965470811674
479,869.5906809811373
480,869.6898485027396
481,869.7940828066622
482,869.9033633139439
483,870.0176136137834
484,870.1367020300767
485,870.2604449277115
486,870.3886127221517
487,870.5209384041759
488,870.6571281989934
489,870.7968738117928
490,870.9398656317154
491,871.0858062595617
492,871.2344237110567
493,871.3854835778102
494,871.5387993683552
495,871.6942403102767
496,871.8517360685345
497,872.0112780257014
498,872.1729169397048
499,872.3367569972094
500,872.5029465395587
501,872.6716659922162
502,872.8431136942374
503,873.017490358495
504,873.1949828150457
505,873.3757475737368
506,873.5598946591501
507,873.7474721193121
508,873.9384515559191
509,874.1327149986391
510,874.3300435020228
511,874.5301079460481
512,874.7324625778934
513,874.9365418024395
514,875.1416606437712
515,875.3470192069433
516,875.5517113867414
517,875.7547379828364
518,875.9550242538463
519,876.1514417302832
520,876.3428337862283
521,876.5280441057251
522,876.7059468920505
523,876.8754775063459
524,877.0356621467193
525,877.1856451828883
526,877.3247129105797
527,877.4523128023917
528,877.5680676951769
529,877.6717846128295
530,877.7634580264116
531,877.8432673883632
532,877.9115688675768
533,877.9688813955507
534,878.0158673574037
535,878.0533084890257
536,878.0820777970457
537,878.1031085872496
538,878.1173618829419
539,878.1257935920629
540,878.1293227742657
541,878.1288022892384
542,878.1249929681986
543,878.1185422687016
544,878.1099681951764
545,878.0996490895511
546,878.0878196717144
547,878.0745734129935
548,878.0598709755868
549,878.0435540954472
550,878.025363974462
551,878.0049630016531
552,877.9819584492678
553,877.9559267005576
554,877.9264365657535
555,877.8930703308602
556,877.8554413950355
557,877.8132077323345
558,877.7660809156135
559,877.7138309043116
560,877.656287092358
561,877.593336252159
562,877.5249180879025
563,877.451019165358
564,877.3716659771477
565,877.2869177966162
566,877.1968598147246
567,877.1015969316471
568,877.001248511303
569,876.8959443426917
570,876.7858219336517
571,876.671025103798
572,876.551703695115
573,876.4280141169604
574,876.3001203894115
575,876.1681953235186
576,876.0324214506746
577,875.8929912849524
578,875.7501065072029
579,875.6039757143169
580,875.4548104607175
581,875.302819440392
582,875.1482008753059
583,874.9911335173631
584,874.8317670475324
585,874.6702128864199
586,874.5065364040383
587,874.3407513237368
588,874.1728169333979
589,874.002638586969
590,873.830071809568
591,873.6549300568878
592,873.4769958710622
593,873.296034903018
594,873.1118120799587
595,872.9241090584773
596,872.7327419743174
597,872.537578413334
598,872.3385525790399
599,872.1356778407461
600,871.9290561118544
601,871.7188837255972
602,871.5054536396049
603,871.2891539538979
604,871.0704628786057
605,870.8499404285456
606,870.6282172449012
607,870.40598101119
608,870.1839609071305
609,869.962910489257
610,869.743589404022
611,869.5267444453899
612,869.313090607173
613,869.1032928946215
614,868.8979496909985
615,868.6975783743168
616,868.5026036889984
617,868.313349220279
618,868.1300322708108
619,867.9527624527354
620,867.7815442831501
621,867.6162839458833
622,867.456800157376
623,867.3028387788579
624,867.1540904983184
625,867.010210627634
626,866.870839884171
627,866.7356249872065
628,866.6042379814525
629,866.4763933425331
630,866.3518620810111
631,866.2304822503618
632,866.1121654956916
633,865.9968995539394
634,865.8847469136282
635,865.7758401001809
636,865.6703741892883
637,865.5685971378971
638,865.4707984054448
639,865.377296195632
640,865.2884235603515
641,865.2045136336732
642,865.1258844273306
643,865.0528238790611
644,864.9855760813786
645,864.9243296745701
646,864.8692091945527
647,864.8202698124985
648,864.7774955324162
649,864.7408005917634
650,864.7100335528588
651,864.6849834131075
652,864.6653870191337
653,864.650937107327
654,864.6412903644009
655,864.6360749805639
656,864.6348972380689
657,864.6373467636105
658,864.6430002561193
659,864.6514238340627
660,864.6621745634707
661,864.6748020593731
662,864.6888511162757
663,864.7038660682883
664,864.7193971611539
665,864.7350088422771
666,864.7502895993156
667,864.7648627547447
668,864.7783974453938
669,864.7906189080403
670,864.80131716229
671,864.8103532576381
672,864.817662463903
673,864.8232540823095
674,864.8272078299865
675,864.8296669497942
676,864.8308283579252
677,864.8309303303595
678,864.8302384586156
679,864.8290308116426
680,864.8275833371318
681,864.8261564592877
682,864.8249835674854
683,864.8242617270015
684,864.8241446543859
685,864.8247379112095
686,864.8260963488608
687,864.8282239544869
688,864.8310763043007
689,864.8345658066497
690,864.8385698287898
691,864.8429416305373
692,864.8475237415768
693,864.8521630571873
694,864.8567266232554
695,864.8611169696061
696,864.8652859621952
697,864.8692463856779
698,864.8730807008907
699,864.8769465791449
700,864.8810789144596
701,864.8857880982869
702,864.8914544469413
703,864.8985188192198
704,864.9074696390987
705,864.918826732139
706,864.933122581924
707,864.9508817675561
708,864.9725994120469
709,864.9987194835056
710,865.0296137996601
711,865.0655625855404
712,865.1067373907722
713,865.1531870963353
714,865.20482766215
715,865.2614361829477
716,865.3226497010244
717,865.3879690583368
718,865.4567678639924
719,865.528306399994
720,865.6017499789003
721,865.676190952779
722,865.7506733565663
723,865.8242191079897
724,865.8958547550604
725,865.9646378982657
726,866.0296825484344
727,866.0901827595281
728,866.145433893144
729,866.1948508617171
730,866.2379827025966
731,866.2745228968051
732,866.3043149868522
733,866.3273532520915
734,866.3437784441417
735,866.3538688696586
736,866.3580274225912
737,866.356765449812
738,866.3506845046129
739,866.3404570656572
740,866.3268071881668
741,866.3104918605396
742,866.2922836352155
743,866.2729549471906
744,866.2532644361348
745,866.2339454977422
746,866.2156971512617
747,866.1991771341768
748,866.1849969817515
749,866.173718747015
750,866.165852954206
751,866.161857368189
752,866.1621362364256
753,866.167039796252
754,866.176863966877
755,866.1918502327696
756,866.2121857953026
757,866.2380041176973
758,866.2693859680985
759,866.3063609661804
760,866.3489095288458
761,866.3969650814736
762,866.4504164745332
763,866.5091106606302
764,866.572855770851
765,866.6414247502954
766,866.7145596814321
767,866.7919768664353
768,866.8733726679843
769,866.9584300136854
770,867.0468253446251
771,867.1382356362718
772,867.2323449601703
773,867.3288499523601
774,867.4274635906102
775,867.5279168631063
776,867.62995814998
777,867.7333503503321
778,867.8378659639035
779,867.9432805291889
780,868.0493650442551
781,868.1558781866149
782,868.2625592330628
783,868.3691225694772
784,868.4752546182727
785,868.580613864225
786,868.6848343385849
787,868.7875324421229
788,868.8883165295057
789,868.9867984279548
790,869.0826060504787
791,869.1753963713767
792,869.2648681410175
793,869.3507738118519
794,869.4329302743661
795,869.511228147128
796,869.585639441254
797,869.656223393881
798,869.7231302203401
799,869.7866025492149
800,869.8469743582225
801,869.9046672755744
802,869.9601841606056
803,870.0140999634278
804,870.0670500003844
805,870.1197159674687
806,870.172810220489
807,870.2270590084299
808,870.2831853799321
809,870.3418923871297
810,870.4038470615593
811,870.4696655132002
812,870.5398994230922
813,870.6150241257182
814,870.6954283740777
815,870.7814057590749
816,870.8731476739241
817,870.970737734373
818,871.0741476972615
819,871.1832351136475
820,871.2977431278567
821,871.4173029079843
822,871.5414391113552
823,871.6695785616213
824,871.801062020107
825,871.935158671347
826,872.0710828001944
827,872.2080121456181
828,872.3451074867658
829,872.4815330069163
830,872.6164768341397
831,872.7491709449553
832,872.8789094697333
833,873.0050644592227
834,873.1270983656442
835,873.2445727497224
836,873.3571529005667
837,873.4646081116817
838,873.5668074328206
839,873.6637109790526
840,873.7553573017444
841,873.8418477211623
842,873.9233287532743
843,873.9999738503326
844,874.0719656648043
845,874.1394799393536
846,874.2026719268334
847,874.2616659847923
848,874.316548681739
849,874.3673654061798
850,874.414120137684
851,874.4567778103478
852,874.4952686342647
853,874.5294938165573
854,874.559332251592
855,874.5846478642054
856,874.6052973810571
857,874.6211383643683
858,874.6320373159074
859,874.6378775096006
860,874.638566022926
861,874.6340393834953
862,874.6242674038958
863,874.6092550424937
864,874.5890423536467
865,874.5637027235271
866,874.533339649228
867,874.4980823295886
868,874.4580803134703
869,874.4134974467971
870,874.3645054189527
871,874.3112773000187
872,874.2539815060464
873,874.1927765864039
874,874.1278070948115
875,874.0592006202145
876,873.9870658782826
877,873.9114916302593
878,873.8325461000782
879,873.750276554318
880,873.6647088834023
881,873.5758473575762
882,873.4836750505129
883,873.3881555509781
884,873.2892365151221
885,873.1868554648336
886,873.0809480573848
887,872.9714587881275
888,872.8583537398073
889,872.7416346559253
890,872.6213533923827
891,872.4976257239439
892,872.3706435250568
893,872.2406844806079
894,872.1081187022924
895,871.9734118870896
896,871.837124857777
897,871.6999094103918
898,871.5625004075496
899,871.4257041006605
900,871.2903828088838
901,871.1574363454656
902,871.0277809188605
903,870.9023265343261
904,870.7819540620002
905,870.667493091683
906,870.5597015323677
907,870.4592477117694
908,870.3666955288408
909,870.2824930524837
910,870.2069648640861
911,870.1403083603965
912,870.0825940909783
913,870.0337699906747
914,869.9936691606789
915,869.9620207560204
916,869.9384635768093
917,869.9225620407882
