frame_number,force
0,880.4807855994595
1,880.6334574115169
2,880.7749962476356
3,880.9052848707377
4,881.0242305495776
5,881.131765035348
6,881.2278444698493
7,881.3124492235294
8,881.3855836620772
9,881.4472758406374
10,881.4975771249583
11,881.536561738754
12,881.5643262363903
13,881.5809889000855
14,881.5866890614533
15,881.5815863483948
16,881.5658598597951
17,881.5397072719406
18,881.5033438817335
19,881.457001592276
20,881.4009278461123
21,881.3353845107113
22,881.2606467203182
23,881.1770016783016
24,881.0847474243022
25,880.9841915703707
26,880.8756500098968
27,880.7594456030533
28,880.635906843182
29,880.5053665098067
30,880.3681603151358
31,880.2246255516886
32,880.0750997488676
33,879.9199193458566
34,879.7594183872196
35,879.5939272464701
36,879.423771381994
37,879.2492701291444
38,879.0707355320528
39,878.8884712188558
40,878.7027713247195
41,878.5139194681072
42,878.3221877866621
43,878.1278360393366
44,877.9311107809867
45,877.7322446150421
46,877.5314555294921
47,877.3289463212321
48,877.1249041134038
49,876.9194999695432
50,876.7128886073183
51,876.5052082136702
52,876.2965803622826
53,876.0871100334533
54,875.8768857357616
55,875.6659797284433
56,875.454448342797
57,875.24233239998
58,875.0296577213013
59,874.816435725815
60,874.6026641087763
61,874.3883275933375
62,874.1733987467718
63,873.9578388516927
64,873.7415988224732
65,873.5246201574934
66,873.3068359190198
67,873.0881717342477
68,872.868546812929
69,872.647874978564
70,872.4260657111372
71,872.2030251999801
72,871.9786574057945
73,871.7528651312894
74,871.5255511001151
75,871.2966190435028
76,871.0659747929336
77,870.8335273754283
78,870.5991901063068
79,870.3628816730255
80,870.1245272029656
81,869.8840593076296
82,869.6414190955522
83,869.3965571461802
84,869.1494344369219
85,868.9000232157256
86,868.6483078121905
87,868.3942853812762
88,868.1379665747955
89,867.8793761368117
90,867.6185534198004
91,867.3555528189847
92,867.0904441222964
93,866.823312772667
94,866.5542600381245
95,866.2834030844181
96,866.0108749453298
97,865.7368243873225
98,865.4614156670044
99,865.1848281815701
100,864.907256013769
101,864.6289073741126
102,864.35000394412
103,864.0707801257256
104,863.7914822035013
105,863.5123674275939
106,863.2337030257921
107,862.9557651532964
108,862.6788377892133
109,862.4032115895977
110,862.129182707372
111,861.857051589206
112,861.587121758578
113,861.3196985933276
114,861.0550881054023
115,860.7935957299358
116,860.5355251299446
117,860.2811770220263
118,860.0308480279925
119,859.7848295573639
120,859.5434067255496
121,859.3068573119368
122,859.0754507611922
123,858.8494472303914
124,858.6290966844853
125,858.4146380428266
126,858.2062983796025
127,858.0042921809711
128,857.8088206616053
129,857.6200711429819
130,857.438216494907
131,857.2634146408204
132,857.095808127077
133,856.9355237568343
134,856.7826722900026
135,856.6373482115179
136,856.4996295708258
137,856.3695778956948
138,856.2472381829868
139,856.1326389678276
140,856.0257924712452
141,855.9266948253354
142,855.8353263742783
143,855.7516520486997
144,855.6756218097435
145,855.6071711579579
146,855.5462217009889
147,855.4926817731845
148,855.4464470995329
149,855.4074014960012
150,855.3754175985385
151,855.3503576138372
152,855.3320740862348
153,855.3204106765603
154,855.3152029497767
155,855.3162791686091
156,855.3234610900599
157,855.3365647612096
158,855.3554013102034
159,855.3797777278179
160,855.4094976344983
161,855.4443620274545
162,855.484170002575
163,855.5287194465838
164,855.5778076958327
165,855.6312321591788
166,855.6887909033725
167,855.7502831999532
168,855.8155100326472
169,855.8842745639103
170,855.9563825589938
171,856.0316427660033
172,856.1098672510051
173,856.1908716882338
174,856.2744756064877
175,856.3605025935881
176,856.4487804613151
177,856.5391413736797
178,856.6314219417485
179,856.7254632883204
180,856.8211110855594
181,856.9182155685774
182,857.0166315283223
183,857.1162182878563
184,857.2168396667813
185,857.3183639388775
186,857.420663788175
187,857.5236162689747
188,857.6271027756258
189,857.7310090274909
190,857.8352250730329
191,857.9396453147297
192,858.0441685543991
193,858.1486980570115
194,858.2531416302024
195,858.3574117162666
196,858.4614254932224
197,858.565104981445
198,858.6683771522194
199,858.7711740342868
200,858.8734328142339
201,858.9750959269752
202,859.0761111340847
203,859.1764315899906
204,859.2760158981843
205,859.3748281610009
206,859.4728380271422
207,859.5700207409479
208,859.6663571964066
209,859.7618339972544
210,859.8564435229036
211,859.9501839989167
212,860.0430595702222
213,860.1350803746916
214,860.2262626135145
215,860.3166286131126
216,860.4062068717883
217,860.4950320836718
218,860.5831451331509
219,860.6705930546511
220,860.7574289547074
221,860.8437118950219
222,860.9295067363917
223,861.0148839441412
224,861.0999193561644
225,861.1846939147806
226,861.2692933632839
227,861.3538079074384
228,861.438331841524
229,861.5229631381604
230,861.6078030011835
231,861.692955381384
232,861.778526456128
233,861.8646240757894
234,861.9513571822066
235,862.0388352062376
236,862.1271674522555
237,862.2164624770917
238,862.3068274700556
239,862.3983676398298
240,862.4911856135246
241,862.5853808530615
242,862.6810490942055
243,862.7782818136247
244,862.8771657288912
245,862.9777823353838
246,863.0802074828675
247,863.1845109933698
248,863.290756321025
249,863.3990002540273
250,863.5092926588022
251,863.6216762667801
252,863.7361865044985
253,863.8528513680529
254,863.9716913429417
255,864.0927193697061
256,864.2159408544651
257,864.3413537221481
258,864.4689485096781
259,864.598708496498
260,864.730609870134
261,864.8646219246863
262,865.0007072903741
263,865.138822192535
264,865.2789167385641
265,865.4209352310693
266,865.5648165050952
267,865.7104942866314
268,865.857897568856
269,866.0069510020668
270,866.1575752933488
271,866.3096876125041
272,866.4632020011042
273,866.6180297817104
274,866.774079964729
275,866.9312596510562
276,867.0894744291968
277,867.2486287655744
278,867.4086263865464
279,867.5693706506232
280,867.7307649097846
281,867.892712859338
282,868.0551188760585
283,868.2178883442998
284,868.3809279696898
285,868.544146080035
286,868.7074529127061
287,868.8707608867514
288,869.0339848565957
289,869.1970423430198
290,869.3598537366832
291,869.5223424699834
292,869.6844351544167
293,869.846061682202
294,870.0071552922362
295,870.1676526013509
296,870.3274936025011
297,870.486621632084
298,870.6449833092006
299,870.8025284503605
300,870.9592099637097
301,871.1149837270015
302,871.2698084531969
303,871.4236455472019
304,871.5764589571324
305,871.7282150235
306,871.8788823293781
307,872.028431553803
308,872.1768353295463
309,872.3240681051933
310,872.4701060100684
311,872.6149267189772
312,872.7585093124142
313,872.9008341274694
314,873.0418825953758
315,873.1816370630886
316,873.3200805979748
317,873.4571967762538
318,873.5929694570392
319,873.7273825446598
320,873.8604197426962
321,873.9920643039495
322,874.1222987809426
323,874.251104781135
324,874.3784627301538
325,874.5043516456883
326,874.6287489243754
327,874.7516301436335
328,874.8729688797866
329,874.9927365432337
330,875.1109022310205
331,875.2274325969271
332,875.3422917390799
333,875.455441105181
334,875.566839415485
335,875.676442603301
336,875.7842037721
337,875.8900731677793
338,875.9939981647279
339,876.0959232649936
340,876.1957901107577
341,876.2935375111667
342,876.3891014849455
343,876.4824153199652
344,876.5734096504401
345,876.6620125520856
346,876.7481496553728
347,876.8317442766426
348,876.9127175661894
349,876.9909886717913
350,877.0664749159621
351,877.1390919855921
352,877.20875413344
353,877.275374391702
354,877.3388647981454
355,877.3991366347145
356,877.4561006772948
357,877.5096674540822
358,877.559747509355
359,877.6062516694777
360,877.6490913084168
361,877.688178610593
362,877.72342682935
363,877.75475053956
364,877.7820658830105
365,877.8052908054804
366,877.8243452849458
367,877.8391515511054
368,877.8496342973465
369,877.855720887373
370,877.8573415596348
371,877.8544296329635
372,877.8469217164129
373,877.8347579257395
374,877.8178821086047
375,877.796242080186
376,877.7697898700311
377,877.7384819798456
378,877.7022796509418
379,877.6611491396267
380,877.6150619987702
381,877.5639953640258
382,877.5079322435679
383,877.4468618107768
384,877.3807796999637
385,877.3096883058612
386,877.2335970879549
387,877.152522880598
388,877.0664902091331
389,876.9755316109828
390,876.879687959007
391,876.7790087825585
392,876.6735525799262
393,876.5633871146824
394,876.4485896882668
395,876.3292473819474
396,876.2054572626214
397,876.0773265482098
398,875.9449727294219
399,875.8085236453888
400,875.6681175112794
401,875.523902896642
402,875.3760386537549
403,875.2246937954756
404,875.0700473220264
405,874.9122879961953
406,874.7516140667419
407,874.5882329402212
408,874.4223608016928
409,874.2542221848647
410,874.084049492263
411,873.9120824662571
412,873.7385676125125
413,873.5637575787135
414,873.3879104926356
415,873.2112892642286
416,873.0341608562885
417,872.8567955280387
418,872.6794660558254
419,872.5024469351413
420,872.3260135683477
421,872.1504414428258
422,871.9760053048954
423,871.8029783355697
424,871.6316313348938
425,871.4622319221096
426,871.2950437591842
427,871.1303258052518
428,870.9683316090503
429,870.8093086452956
430,870.6534976993412
431,870.5011323028667
432,870.3524382220614
433,870.2076329989042
434,870.0669255455662
435,869.9305157913914
436,869.7985943810547
437,869.6713424214923
438,869.5489312744413
439,869.4315223912414
440,869.3192671869684
441,869.21230695177
442,869.110772798034
443,869.0147856423691
444,868.9244562213454
445,868.8398851398152
446,868.7611629506439
447,868.6883702647875
448,868.6215778906972
449,868.560847001943
450,868.5062293318852
451,868.4577673943519
452,868.4154947294594
453,868.3794361735855
454,868.3496081519413
455,868.3260189912007
456,868.3086692483912
457,868.2975520509546
458,868.2926534419468
459,868.2939527240404
460,868.3014227963168
461,868.3150304783736
462,868.3347368166153
463,868.3604973679825
464,868.3922624573906
465,868.4299774066644
466,868.4735827339159
467,868.5230143228661
468,868.5782035620485
469,868.6390774544404
470,868.7055586985261
471,868.7775657418954
472,868.8550128084012
473,868.9378098999766
474,869.0258627746126
475,869.1190729025383
476,869.2173374030326
477,869.32054896449
478,869.4285957506495
479,869.5413612965098
480,869.6587243982106
481,869.7805590016887
482,869.9067340949127
483,870.0371136080041
484,870.1715563248812
485,870.3099158095142
486,870.45204034943
487,870.5977729184874
488,870.7469511601516
489,870.8994073917847
490,871.0549686300644
491,871.213456637507
492,871.3746879898898
493,871.5384741639513
494,871.7046216443428
495,871.8729320488576
496,872.0432022714192
497,872.2152246428307
498,872.3887871097003
499,872.563673432479
500,872.7396634042668
501,872.9165330927271
502,873.09405510778
503,873.2719988975427
504,873.4501310743475
505,873.6282157718593
506,873.8060150336407
507,873.9832892329414
508,874.15979752292
509,874.335298316043
510,874.5095497912727
511,874.6823104277147
512,874.8533395632959
513,875.0223979766413
514,875.1892484897329
515,875.3536565883609
516,875.5153910568891
517,875.6742246233965
518,875.8299346107048
519,875.9823035879742
520,876.1311200163681
521,876.2761788810017
522,876.4172823004621
523,876.5542401048026
524,876.6868703729334
525,876.8149999207019
526,876.9384647319476
527,877.057110326484
528,877.1707920608558
529,877.2793753592537
530,877.3827358729126
531,877.4807595670222
532,877.5733427350947
533,877.6603919419985
534,877.741823898276
535,877.8175652697611
536,877.8875524279781
537,877.9517311482862
538,878.010056263878
539,878.0624912843826
540,878.1090079880706
541,878.1495859966101
542,878.1842123409367
543,878.212881026198
544,878.2355926030756
545,878.2523537520789
546,878.2631768864493
547,878.2680797780467
548,878.2670852090547
549,878.2602206507564
550,878.247517969184
551,878.2290131562182
552,878.2047460837514
553,878.1747602778677
554,878.1391027096819
555,878.0978235994957
556,878.050976231422
557,877.9986167767835
558,877.9408041262176
559,877.8775997319176
560,877.8090674622923
561,877.7352734715943
562,877.6562860871162
563,877.5721757165207
564,877.4830147776157
565,877.3888776522757
566,877.2898406654
567,877.1859820891545
568,877.0773821723317
569,876.964123194268
570,876.8462895421676
571,876.7239678099415
572,876.597246915993
573,876.4662182368836
574,876.3309757535245
575,876.1916162063612
576,876.0482392558533
577,875.900947644386
578,875.7498473557234
579,875.5950477682915
580,875.4366617988765
581,875.2748060337872
582,875.1096008453605
583,874.9411704930296
584,874.7696432096494
585,874.5951512747046
586,874.4178310759802
587,874.237823160613
588,874.0552722758182
589,873.8703273992062
590,873.6831417580693
591,873.4938728361644
592,873.3026823654911
593,873.1097362997094
594,872.9152047653189
595,872.719261986414
596,872.5220861785899
597,872.323859407502
598,872.1247674080658
599,871.9249993613771
600,871.7247476277659
601,871.5242074355415
602,871.3235765259246
603,871.1230547555542
604,870.9228436588365
605,870.7231459732255
606,870.5241651312588
607,870.3261047236673
608,870.1291679379997
609,869.9335569771698
610,869.7394724625547
611,869.5471128267903
612,869.3566737020269
613,869.1683473098904
614,868.9823218595232
615,868.7987809596613
616,868.6179030499098
617,868.4398608556821
618,868.2648208709603
619,868.0929428729488
620,867.9243794724284
621,867.7592757029549
622,867.59776865099
623,867.4399871277092
624,867.286051381797
625,867.136072851266
626,866.990153951448
627,866.8483878959654
628,866.7108585476112
629,866.5776402964332
630,866.4487979627746
631,866.324386723581
632,866.2044520610226
633,866.0890297333898
634,865.9781457692243
635,865.871816486501
636,865.7700485390739
637,865.672838992405
638,865.5801754300124
639,865.4920360913808
640,865.4083900415885
641,865.3291973728582
642,865.2544094387052
643,865.1839691221974
644,865.117811140575
645,865.0558623885192
646,864.9980423214239
647,864.9442633784754
648,864.8944314437251
649,864.8484463419085
650,864.8062023645901
651,864.7675888214228
652,864.7324906109699
653,864.7007888055393
654,864.6723612446086
655,864.6470831316107
656,864.624827629025
657,864.6054664469816
658,864.5888704212438
659,864.5749100777073
660,864.5634561821803
661,864.554380275528
662,864.5475551945943
663,864.5428555784368
664,864.5401583579402
665,864.5393432255954
666,864.540293081374
667,864.5428944499971
668,864.5470378644675
669,864.5526182105986
670,864.5595350274627
671,864.5676927592899
672,864.5770009554982
673,864.587374417035
674,864.5987332886108
675,864.6110030975296
676,864.6241147407834
677,864.6380044231456
678,864.6526135502125
679,864.6678885814499
680,864.6837808489761
681,864.7002463477946
682,864.717245502434
683,864.7347429137803
684,864.7527070889881
685,864.7711101571913
686,864.7899275741972
687,864.8091378199338
688,864.8287220927352
689,864.8486640045425
690,864.8689492808035
691,864.8895654682304
692,864.9105016524686
693,864.9317481863125
694,864.9532964278926
695,864.9751384877524
696,864.9972669840766
697,865.0196748061438
698,865.0423548868342
699,865.0652999854666
700,865.0885024824232
701,865.1119541871302
702,865.1356461611198
703,865.1595685581943
704,865.1837104840971
705,865.2080598785126
706,865.2326034226306
707,865.2573264757272
708,865.2822130440827
709,865.3072457851869
710,865.3324060497833
711,865.3576739638668
712,865.383028552128
713,865.4084479036113
714,865.4339093796082
715,865.4593898630734
716,865.4848660479946
717,865.5103147661414
718,865.535713347501
719,865.5610400094469
720,865.5862742682638
721,865.611397365268
722,865.6363926988173
723,865.6612462532222
724,865.6859470158629
725,865.7104873744355
726,865.7348634869306
727,865.7590756174858
728,865.7831284316211
729,865.8070312446961
730,865.8307982178637
731,865.8544484965115
732,865.8780062872438
733,865.9015008707976
734,865.9249665498096
735,865.9484425320514
736,865.9719727515768
737,865.9956056319181
738,866.0193937967332
739,866.0433937339652
740,866.0676654197108
741,866.0922719077595
742,866.117278890456
743,866.1427542363607
744,866.1687675101846
745,866.1953894804362
746,866.2226916199373
747,866.2507456038732
748,866.2796228095732
749,866.3093938218817
750,866.3401279477254
751,866.3718927433741
752,866.404753558045
753,866.4387730978234
754,866.47401101412
755,866.510523520919
756,866.5483630449924
757,866.5875779130538
758,866.6282120793218
759,866.6703048961166
760,866.7138909292162
761,866.7589998190737
762,866.8056561887723
763,866.8538795995117
764,866.90368455422
765,866.9550805494466
766,867.0080721750566
767,867.0626592605311
768,867.1188370659263
769,867.1765965147257
770,867.2359244649208
771,867.2968040136714
772,867.3592148299301
773,867.4231335087085
774,867.4885339405222
775,867.5553876900259
776,867.6236643785833
777,867.6933320661981
778,867.7643576288256
779,867.8367071277863
780,867.9103461688786
781,867.9852402495785
782,868.0613550931492
783,868.1386569685919
784,868.2171129953305
785,868.2966914312045
786,868.3773619413948
787,868.4590958443914
788,868.5418663297177
789,868.6256486415731
790,868.7104202229481
791,868.7961608156526
792,868.8828525126248
793,868.9704797597676
794,869.0590293055865
795,869.1484900980103
796,869.2388531286159
797,869.3301112249278
798,869.422258791826
799,869.5152915036728
800,869.6092059494687
801,869.7039992340044
802,869.7996685385889
803,869.8962106456567
804,869.993621432428
805,870.0918953397974
806,870.1910248236485
807,870.2909997965802
808,870.391807068254
809,870.4934297922447
810,870.5958469266799
811,870.699032715378
812,870.8029561957303
813,870.9075807390716
814,871.0128636286091
815,871.1187556791816
816,871.2252009024353
817,871.3321362206603
818,871.4394912325846
819,871.5471880346864
820,871.6551411017633
821,871.763257230255
822,871.8714355469865
823,871.979567584594
824,872.0875374232551
825,872.1952218968308
826,872.3024908605037
827,872.4092075165801
828,872.5152287949865
829,872.6204057845761
830,872.7245842104581
831,872.8276049514543
832,872.9293045909695
833,873.029515994442
834,873.1280689071252
835,873.2247905668358
836,873.3195063269013
837,873.4120402847202
838,873.5022159116363
839,873.5898566808634
840,873.6747866918804
841,873.7568312913136
842,873.835817691309
843,873.9115755868426
844,873.9839377734846
845,874.0527407668457
846,874.1178254242928
847,874.1790375686459
848,874.2362286125045
849,874.2892561806525
850,874.3379847268195
851,874.3822861403249
852,874.4220403379925
853,874.4571358371313
854,874.4874703059829
855,874.5129510885832
856,874.5334957014535
857,874.5490322998598
858,874.5595001113909
859,874.5648498341252
860,874.565043996042
861,874.5600572722278
862,874.5498767571376
863,874.5345021902999
864,874.5139461348292
865,874.4882341087313
866,874.457404669335
867,874.4215094513281
868,874.3806131588996
869,874.334793512585
870,874.2841411517494
871,874.2287594941051
872,874.1687645539484
873,874.104284720753
874,874.035460499359
875,873.962444212406
876,873.8853996651046
877,873.8045017720546
878,873.7199361455799
879,873.631898645172
880,873.5405948884473
881,873.44623972548
882,873.3490566797593
883,873.2492773596919
884,873.147140844484
885,873.0428930478596
886,872.9367860625687
887,872.829077487826
888,872.7200297406797
889,872.6099093512202
890,872.4989862408858
891,872.3875329830233
892,872.2758240452298
893,872.1641350137053
894,872.0527418008791
895,871.94191983873
896,871.8319432611362
897,871.7230840790326
898,871.6156113522767
899,871.5097903623413
900,871.4058817905143
901,871.3041409072645
902,871.2048167796511
903,871.1081515046848
904,871.0143794769205
905,870.9237266981759
906,870.836410136384
907,870.7526371395138
908,870.6726049093776
909,870.5965000391574
910,870.5244981177216
911,870.4567634030653
912,870.3934485662246
913,870.3346945057343
914,870.2806302314522
915,870.2313728157449
916,870.1870274097395
917,870.1476873222214
918,870.1134341583313
