frame_number,force
0,648.0556600000141
1,648.0929915957033
2,648.1306087235905
3,648.1686966579152
4,648.2072907372634
5,648.2463035363934
6,648.285624939023
7,648.3252676448045
8,648.3655091181652
9,648.4069595593897
10,648.4504839275038
11,648.4969463962108
12,648.5468188890364
13,648.5997650839322
14,648.6543431292962
15,648.7079450505305
16,648.7570118999123
17,648.7974695614819
18,648.8252715210137
19,648.8369291259634
20,648.8299384540885
21,648.8030542343495
22,648.7564015162508
23,648.6914421275726
24,648.6108180369193
25,648.5180851353562
26,648.4173452034117
27,648.312789885636
28,648.2081870470463
29,648.1063659661347
30,648.008790429348
31,647.9153302277444
32,647.8243267618602
33,647.7329896977989
34,647.6380760613785
35,647.5367188616127
36,647.4272178134565
37,647.309604216993
38,647.1858522898254
39,647.0597067231924
40,646.9361864504431
41,646.8208761798716
42,646.7191349963779
43,646.6353529734944
44,646.5723713960458
45,646.5311428217041
46,646.5106531916589
47,646.5080791004125
48,646.5191233781812
49,646.5384624000093
50,646.5602418111062
51,646.5785720786786
52,646.5880018207989
53,646.5839708352399
54,646.5632441507007
55,646.5242974831838
56,646.4675802082356
57,646.3955552504714
58,646.3124390317921
59,646.2236501655615
60,646.1350873517804
61,646.0524237736234
62,645.9805778661935
63,645.9234216933627
64,645.8836930271156
65,645.863036111852
66,645.8620999576099
67,645.8806426846639
68,645.9176176652044
69,645.9712544799021
70,646.0391801604673
71,646.1186230855802
72,646.2066908352896
73,646.3006461777411
74,646.398076684666
75,646.4968896782308
76,646.5951424168268
77,646.6907911832562
78,646.781474138639
79,646.8644165836739
80,646.9364839518255
81,646.9943545781892
82,647.0347691498661
83,647.0548207576503
84,647.052253427565
85,647.0257367720006
86,646.9750871958919
87,646.901407766901
88,646.8071185445118
89,646.6958602634638
90,646.5722826741933
91,646.4417592220194
92,646.3100836418278
93,646.1831952917973
94,646.0669530053691
95,645.9669442253687
96,645.8882938968145
97,645.835438416394
98,645.8118537478477
99,645.8197574521556
100,645.8598195448573
101,645.9309122497602
102,646.0299256879265
103,646.151695175677
104,646.2891110553219
105,646.4334747692008
106,646.5751099375873
107,646.7041658660198
108,646.8115057586856
109,646.889563183276
110,646.9330611014884
111,646.9395064237001
112,646.9094026203876
113,646.8461644720662
114,646.7557601871528
115,646.6461329526011
116,646.5264693809031
117,646.4063980587615
118,646.2952111231643
119,646.2011861549682
120,646.1310498150874
121,646.0895989682773
122,646.0794931402477
123,646.1012376049397
124,646.153370729659
125,646.2328483013483
126,646.3355856985789
127,646.457085952959
128,646.5930637699985
129,646.7399838261786
130,646.8954594209209
131,647.0584819843358
132,647.2294575172926
133,647.41002507385
134,647.6026513572373
135,647.8100416710539
136,648.0344601104803
137,648.277083047924
138,648.5375047135954
139,648.813477880647
140,649.1009283381126
141,649.3942454804367
142,649.6868175578011
143,649.9717379745308
144,650.2425680024949
145,650.4940255375986
146,650.7224885276005
147,650.9262409232705
148,651.1054316725224
149,651.2617615533043
150,651.3979612405143
151,651.517166566301
152,651.6223125851476
153,651.7156481755992
154,651.7984355842736
155,651.8708689521826
156,651.9322226273889
157,651.9812085660286
158,652.0164823611441
159,652.0372044735993
160,652.0435476790775
161,652.0370487090622
162,652.020735153482
163,651.9990110935175
164,651.9773355546151
165,651.9617554081105
166,651.9583551950844
167,651.9726764109466
168,652.0091547312683
169,652.0706259455341
170,652.1579521607581
171,652.2698164011341
172,652.4027242814324
173,652.5512335208628
174,652.7084094077784
175,652.8664798683554
176,653.0176337315896
177,653.1548717176798
178,653.2727923213023
179,653.3681853023471
180,653.44032606384
181,653.4909217349394
182,653.523737147297
183,653.5439905061589
184,653.557632012892
185,653.5706081456566
186,653.5881869102253
187,653.6143935584826
188,653.6515963938904
189,653.7002881120075
190,653.7591107708896
191,653.8251488372794
192,653.8944594994375
193,653.9627461015316
194,654.0260451449288
195,654.0813057287504
196,654.1267790343363
197,654.1621813645289
198,654.1886330001945
199,654.2084048785041
200,654.2245289919426
201,654.2403444638247
202,654.2590518735574
203,654.2833287096172
204,654.3150262864057
205,654.3549448432301
206,654.4026866506068
207,654.4566094341428
208,654.5139195595576
209,654.5709371075436
210,654.6235282872726
211,654.6676442172947
212,654.6998548202466
213,654.7177542018317
214,654.7201515820848
215,654.7070272681735
216,654.6792899287569
217,654.6384055522232
218,654.5859910950911
219,654.5234803446648
220,654.451957298215
221,654.3722003774534
222,654.2849071326832
223,654.1910071924723
224,654.0919425218755
225,653.9898073014499
226,653.8872942859706
227,653.7874695439442
228,653.6934563236241
229,653.6081237764845
230,653.5338461104077
231,653.4723471431662
232,653.4246102843749
233,653.3908359793692
234,653.3704562419889
235,653.3622383946978
236,653.3645050391298
237,653.3754611779423
238,653.3935675712655
239,653.4178632318261
240,653.4481457258122
241,653.4849591427906
242,653.5293882831602
243,653.5827024640611
244,653.6459370446673
245,653.7195284176165
246,653.8030971463513
247,653.8954072111552
248,653.994466625253
249,654.0977183304711
250,654.2022890589536
251,654.3052794148584
252,654.4040787238531
253,654.4966870684148
254,654.5820264500289
255,654.660208662816
256,654.7326999104035
257,654.8023094796823
258,654.8729550774672
259,654.9492098302904
260,655.0356870395955
261,655.1363535457047
262,655.2538816562903
263,655.3891516756311
264,655.5409922422816
265,655.7061931461536
266,655.8797684329285
267,656.0554157478463
268,656.2261163825204
269,656.3848274733538
270,656.52520686291
271,656.6422795358444
272,656.7329322344079
273,656.7961435457678
274,656.8329192812168
275,656.845973397319
276,656.8392395238316
277,656.8173042539686
278,656.7848309029971
279,656.7460199227467
280,656.7041533978993
281,656.6612867568099
282,656.6181442370302
283,656.5742272294418
284,656.528084842866
285,656.4776656340357
286,656.4206759185233
287,656.3548926362533
288,656.2784026761015
289,656.1897638173955
290,656.0881035552597
291,655.9731866627066
292,655.8454827314947
293,655.7062443221091
294,655.5575727882474
295,655.4024248177573
296,655.2445141409031
297,655.0880873461991
298,654.9375860706306
299,654.7972349812095
300,654.6706094250808
301,654.5602404435068
302,654.4673101139945
303,654.3914755468951
304,654.3308377292745
305,654.2820533163351
306,654.2405824788422
307,654.2010655872581
308,654.1578077236014
309,654.1053171630564
310,654.038808678024
311,653.9545724383206
312,653.8501406386775
313,653.7242480701302
314,653.5766521853626
315,653.40792075283
316,653.2192883792064
317,653.0126290423434
318,652.7905216661445
319,652.5563406148958
320,652.3143019121001
321,652.0694237797801
322,651.8273854736774
323,651.5942756844537
324,651.3762253126849
325,651.1789427150894
326,651.0072113423142
327,650.8644395662288
328,650.7523419769193
329,650.6707853989508
330,650.6177857020272
331,650.5896219110949
332,650.5810409457212
333,650.5855392505608
334,650.5957109558199
335,650.6036459725981
336,650.6013548236388
337,650.5811938622445
338,650.5362624098753
339,650.4607471011932
340,650.3502051879615
341,650.2017963303169
342,650.014470705103
343,649.7890993386184
344,649.5285116569572
345,649.2374027806126
346,648.9220865323467
347,648.5900886004451
348,648.2495979246589
349,647.9088276672429
350,647.5753704731071
351,647.2556488964199
352,646.9545502535136
353,646.6752926873448
354,646.4195081386506
355,646.1874794430421
356,645.9784564362408
357,645.790990293878
358,645.6232384916867
359,645.4731927157673
360,645.3387859685276
361,645.217867291508
362,645.1080873123959
363,645.0067746708417
364,644.9108709156184
365,644.8169468136032
366,644.7212911028298
367,644.6200626628975
368,644.5095054081088
369,644.386211460311
370,644.2473855072875
371,644.0910481653341
372,643.9161445564441
373,643.7225758545063
374,643.5112027130979
375,643.2838624772229
376,643.0434123421807
377,642.7937787962967
378,642.5399702588095
379,642.287999603169
380,642.0446701704382
381,641.8172031332688
382,641.6127167764872
383,641.4375977652467
384,641.2968306414048
385,641.1933784940247
386,641.127720074027
387,641.0976235509229
388,641.0981841077944
389,641.122115996054
390,641.1602929926311
391,641.202537393997
392,641.2386115575357
393,641.2592734808763
394,641.2571968801476
395,641.227594672939
396,641.1685016517815
397,641.0807757719647
398,640.9678991966659
399,640.8356160234366
400,640.6914008586418
401,640.5437561051892
402,640.4013813132686
403,640.2723117464602
404,640.1631486210571
405,640.0784832164616
406,640.020568510496
407,639.9892481897251
408,639.9821266840797
409,639.9949453056935
410,640.022115058768
411,640.0573541792297
412,640.0943836510781
413,640.1276310136072
414,640.1528798153829
415,640.1677922799149
416,640.1722339476372
417,640.1683397255603
418,640.1602804935656
419,640.153722586741
420,640.1550243604481
421,640.1702793049208
422,640.2043689866648
423,640.2602039199734
424,640.3382986467128
425,640.4367558242698
426,640.5516370010041
427,640.6776055806163
428,640.8086784929019
429,640.9389318479238
430,641.0630536168243
431,641.1766938975995
432,641.2766142388806
433,641.3606779693589
434,641.4277470626125
435,641.4775476353216
436,641.5105379703284
437,641.5277806183566
438,641.5308072557003
439,641.5214768994838
440,641.501845678028
441,641.4740650492004
442,641.440303070407
443,641.4026624938883
444,641.363071360229
445,641.3231493495488
446,641.2840923991565
447,641.2466410569018
448,641.2111772036609
449,641.1779318799445
450,641.1472237186407
451,641.1196269103283
452,641.0960034300376
453,641.0774015011326
454,641.0648739874644
455,641.0592761426739
456,641.061078410301
457,641.0702169115242
458,641.0860124603206
459,641.1071908078667
460,641.1320102342831
461,641.1584607803301
462,641.1844731447843
463,641.2080825787629
464,641.2275300512588
465,641.2413286903155
466,641.2483489821827
467,641.2479618679922
468,641.2402324289739
469,641.2261090663554
470,641.2075322281819
471,641.1873987932886
472,641.1693532212594
473,641.1574250871332
474,641.1555831725807
475,641.1673064875778
476,641.1952643551898
477,641.2411587439583
478,641.3057361520767
479,641.3889352217107
480,641.4900988402367
481,641.6081555150103
482,641.7416848820498
483,641.8888332417915
484,642.0471193460157
485,642.2132331131543
486,642.3829449532282
487,642.5512032445778
488,642.7124326893357
489,642.8609946854662
490,642.9917442645083
491,643.1006066533865
492,643.1850932449518
493,643.2446843061659
494,643.281023620937
495,643.2978909609376
496,643.3009364741595
497,643.2971790041828
498,643.2942966167748
499,643.2997803999338
500,643.3200754524512
501,643.3598685093048
502,643.4216690900588
503,643.5057632156066
504,643.610520213207
505,643.7329438239574
506,643.8693098133821
507,644.0157329004019
508,644.1685500966657
509,644.3244836997072
510,644.4806301837951
511,644.634370808318
512,644.7832914308389
513,644.9251510293783
514,645.0578902927075
515,645.1796480721046
516,645.288759927141
517,645.3837435530515
518,645.4633114215084
519,645.5264646333605
520,645.5727005384733
521,645.6023227500048
522,645.6167971767863
523,645.6190615209729
524,645.6136759367196
525,645.6067165471649
526,645.6053699322438
527,645.6172658580188
528,645.6496525643166
529,645.7085506109325
530,645.798015334522
531,645.9196075429587
532,646.072136247233
533,646.2517058301863
534,646.4520676586852
535,646.6652375644078
536,646.8823015027297
537,647.0943028049295
538,647.29309843668
539,647.4720961526277
540,647.6268263321222
541,647.7553329310684
542,647.8583715114034
543,647.9393905574412
544,648.0042715665735
545,648.0608312482486
546,648.1181381862102
547,648.1857362458406
548,648.2728713203765
549,648.3877916870737
550,648.5371636825349
551,648.7256320245702
552,648.955551858444
553,649.2269122410845
554,649.537454803061
555,649.8829761241316
556,650.2577900315544
557,650.6553053563691
558,651.0686453828934
559,651.491218394326
560,651.9171607796319
561,652.3416095301686
562,652.7608066575065
563,653.1720825926848
564,653.5737875845119
565,653.9652189201134
566,654.3465436209015
567,654.7186865596912
568,655.0831613551811
569,655.441845353824
570,655.7967232286313
571,656.1496445577548
572,656.5021529914342
573,656.8554379291486
574,657.2104268371252
575,657.567976777535
576,657.9290628352691
577,658.2948503698778
578,658.6666017127209
579,659.0454614040484
580,659.4322118663337
581,659.8270656802272
582,660.2295045036103
583,660.6381478150046
584,661.0506547431016
585,661.4637015728586
586,661.873094406537
587,662.2740482341205
588,662.6616070835559
589,663.031136714199
590,663.3788155564675
591,663.702067632518
592,663.9998952905933
593,664.2730702878177
594,664.5241418433469
595,664.7572335874606
596,664.9776317052995
597,665.1912153062805
598,665.4038371072673
599,665.6207908867003
600,665.8464671334018
601,666.0842143779951
602,666.3363456270149
603,666.6042008403958
604,666.8882008103523
605,667.1878781545037
606,667.5019145789399
607,667.8282266691114
608,668.1641216805444
609,668.5065115196629
610,668.8521517765845
611,669.1978650660308
612,669.5407064030176
613,669.878038483981
614,670.207514905284
615,670.5270101173976
616,670.8345605801928
617,671.128371148146
618,671.4068993450608
619,671.6689868142737
620,671.9139876908926
621,672.1418534788547
622,672.3531635914438
623,672.5491201761369
624,672.7315308604745
625,672.9027751345712
626,673.0657087501435
627,673.2234382682897
628,673.3789178199787
629,673.5343836910173
630,673.6907268802705
631,673.8469705464807
632,674.0000307618934
633,674.1448784556267
634,674.2751039130162
635,674.3837598368912
636,674.4642835848019
637,674.5113088332561
638,674.521254295376
639,674.4926635232235
640,674.4263130975032
641,674.32510229698
642,674.1937240047496
643,674.038131831367
644,673.8648655898006
645,673.6803483387713
646,673.4902882347596
647,673.2992912315523
648,673.1107290860896
649,672.9268391449773
650,672.7489829512713
651,672.5779741195998
652,672.4143995893578
653,672.2588846476889
654,672.1122756937882
655,671.9757321915092
656,671.850731898406
657,671.739001186637
658,671.6423834680049
659,671.5626527289468
660,671.5012711567718
661,671.4590901295098
662,671.4360094016703
663,671.430636719075
664,671.4400160929703
665,671.4595024646533
666,671.4828476098454
667,671.5025342231103
668,671.5103610855898
669,671.4982390439424
670,671.45910301314
671,671.3878006347832
672,671.2818123923249
673,671.1416900729758
674,670.9711460922614
675,670.7767747376438
676,670.5674412275544
677,670.3534231969843
678,670.1454098731684
679,669.9534595120979
680,669.7860089714707
681,669.6490300999386
682,669.5454249930355
683,669.4747357737006
684,669.4332149283794
685,669.4142620280537
686,669.4091802979731
687,669.408146777241
688,669.4012453426095
689,669.3794094056213
690,669.3351630987073
691,669.2631108181583
692,669.1601789967165
693,669.025651934384
694,668.8610625278989
695,668.6699913429981
696,668.4577936727411
697,668.2312348028961
698,667.9979966249659
699,667.7660368304867
700,667.5428314896545
701,667.3345934632105
702,667.1455951932018
703,666.9777079541194
704,666.8302169629821
705,666.6999210364764
706,666.5814941459616
707,666.4680670238004
708,666.3519676628508
709,666.2255332737855
710,666.0818809416996
711,665.9155254360013
712,665.7227743026274
713,665.5018878530004
714,665.2530302134066
715,664.9780547387918
716,664.6801818871119
717,664.3636433469349
718,664.0333661800768
719,663.6947439565199
720,663.3534967029719
721,663.0155769206242
722,662.6870553967045
723,662.3739346726861
724,662.0818859109307
725,661.8159533035436
726,661.58028493903
727,661.377929812691
728,661.2107119642877
729,661.0791707377194
730,660.9825459974221
731,660.9187967653536
732,660.8846670524631
733,660.8758269806457
734,660.8871040498786
735,660.9127937138215
736,660.9470215384518
737,660.9841243874043
738,661.019016690766
739,661.0475061277014
740,661.0665287108975
741,661.0742903019875
742,661.0703154495511
743,661.0554026883377
744,661.0314814046908
745,661.0013765658872
746,660.9685071888905
747,660.9365552339477
748,660.9091400116852
749,660.8895235620607
750,660.8803569164618
751,660.8834648586776
752,660.8996753393063
753,660.9287278700531
754,660.9693084550776
755,661.0192275440744
756,661.0757036550718
757,661.1356891886209
758,661.1961922780513
759,661.2545774958551
760,661.308836311114
761,661.3578057173671
762,661.4013037856117
763,661.4401627774203
764,661.4761677025051
765,661.5119256405117
766,661.5506854279862
767,661.5961129720528
768,661.6520246402944
769,661.722090382482
770,661.8095272200169
771,661.9168073943756
772,662.045407271598
773,662.1956241879907
774,662.3664847545435
775,662.5557577284085
776,662.7600727617083
777,662.9751385184802
778,663.1960448884679
779,663.4176171777399
780,663.6347728751122
781,663.8428312045936
782,664.0377445391849
783,664.2162397123876
784,664.375860497808
785,664.514898792864
786,664.6322136794428
787,664.7269732871985
788,664.7983969561064
789,664.8455953427364
790,664.8675860510497
791,664.863505751506
792,664.8329681182173
793,664.7764585928426
794,664.6956339007411
795,664.5934163665102
796,664.4738354221051
797,664.3416480417104
798,664.201835067105
799,664.0590995155237
800,663.9174773617432
801,663.780115615826
802,663.6492026336517
803,663.5259946767136
804,663.4108946035956
805,663.3035749781942
806,663.2031485603741
807,663.1083650641201
808,663.0177919746972
809,662.9299479589919
810,662.8433865576744
811,662.7567447703008
812,662.6687681860756
813,662.578320918939
814,662.4843980268606
815,662.3861686619991
816,662.2830745453258
817,662.1749882897335
818,662.0624030645845
819,661.9465894554056
820,661.8296413331083
821,661.7143620365116
822,661.6040077768296
823,661.5019650097348
824,661.4114478592628
825,661.335258657267
826,661.2756057782175
827,661.2339620778371
828,661.2109692010611
829,661.2064092997217
830,661.2192548853501
831,661.2477838034222
832,661.2897342567326
833,661.3424824337085
834,661.4032406424503
835,661.4692777328198
836,661.5381474651487
837,661.6078874961846
838,661.6771450433563
839,661.7452023064986
840,661.8119003637581
841,661.8774791443212
842,661.9423635541142
843,662.0069372199629
844,662.0713500760572
845,662.1353938562467
846,662.1984542232441
847,662.2595256789136
848,662.3172637260609
849,662.3700468896069
850,662.4160308431494
851,662.45319722419
852,662.4794190233348
853,662.4925697224587
854,662.4906909600847
855,662.4722090342773
856,662.4361670238465
857,662.3824309824745
858,662.3118372132178
859,662.2262585225805
860,662.128568936038
861,662.0224857757638
862,661.9122778510226
863,661.8023485856116
864,661.6967284484252
865,661.5985435791132
866,661.5095572435005
867,661.4298780602809
868,661.3578827040649
869,661.290345256159
870,661.2227384325129
871,661.1496691075266
872,661.0654061063519
873,660.9644482609696
874,660.8420797962891
875,660.6948682273847
876,660.5210590259338
877,660.3208073991768
878,660.0961854564852
879,659.8509383935051
880,659.5900309964262
881,659.3190899963804
882,659.043868880996
883,658.7698305817404
884,658.50188859036
885,658.2442979416574
886,658.000647791
887,657.7738775092012
888,657.566236413341
889,657.3791485580789
890,657.2130131836533
891,657.067026724138
892,656.9391191705299
893,656.8260598104008
894,656.7237393587205
895,656.6276033271629
896,656.533189905157
897,656.4366962516707
898,656.335462199239
899,656.2282489978708
900,656.1152280564066
901,655.9976731564043
902,655.877434183398
903,655.7563239575161
904,655.635553572551
905,655.5153137165681
906,655.3945497204245
907,655.2709459976011
908,655.1411220327087
909,655.0010212187292
910,654.8464307808578
911,654.6735295133689
912,654.4793593497899
913,654.2621644007987
914,654.0216020228974
915,653.7588620153283
916,653.476715009603
917,653.179465451054
