acceleration,velocity,displacement
-0.0011062598812300686,0.0,0.0
-0.0005949000704847714,-4.2528998792871003e-07,-1.063224969821775e-10
-5.609144964523283e-05,-5.88037867961211e-07,-3.596544609546578e-10
0.0005086358789298356,-4.749017606400603e-07,-6.253893681049757e-10
0.0010979179941238307,-7.326329237664372e-08,-7.624306313591517e-10
0.001710636644218598,6.288753672089635e-07,-6.235276126510717e-10
0.0023459777167618564,1.643028957454077e-06,-5.5551531485311534e-11
0.003003461042657425,2.9803886473088975e-06,1.100302869705432e-09
0.0036829368734493588,4.651988126335594e-06,3.008397063116555e-09
0.004384547344752444,6.668859180886045e-06,5.838608889921965e-09
0.005108654179116096,9.04215956185318e-06,9.766363575606771e-09
0.005855737122921591,1.1783257387362602e-05,1.4972717812910718e-08
0.006626270801343723,1.4903759368428931e-05,2.1644472001858602e-08
0.007420589745123022,1.8415474505045616e-05,2.997428047022724e-08
0.008238751810696481,2.2330309894000494e-05,4.016072656998877e-08
0.009080409808520496,2.666010029880474e-05,5.240832911819008e-08
0.009944700490127417,3.1416377873466714e-05,6.692744866125793e-08
0.010830158778501176,3.661009269062386e-05,8.393406630228059e-08
0.011734663051384972,4.2251298148095404e-05,1.036494140119604e-07
0.012655414752074517,4.8348817598960274e-05,1.2629944294872433e-07
0.01358895251550082,5.490990941585411e-05,1.5211412470242794e-07
0.01453119725878408,6.193994685942534e-05,1.813265887712478e-07
0.015477521614002492,6.944212657762199e-05,2.1417210713050963e-07
0.016422836452679657,7.741721609429253e-05,2.508869427984883e-07
0.017361688947924052,8.586334744444346e-05,2.9170708368317227e-07
0.01828836872689331,9.47758618631478e-05,3.3686688601007006e-07
0.019197019634225553,0.00010414720895342752,3.865976537142139e-07
0.020081754402791772,0.00011396690246268185,4.411261815682412e-07
0.020936769063199287,0.0001242215333291796,5.006732905162066e-07
0.021756454103919645,0.00013489483912095934,5.654523836287413e-07
0.02253550018158458,0.0001459678276923354,6.35668050332065e-07
0.023268996859580667,0.00015741895195262671,7.115147452433056e-07
0.02395252305204863,0.00016922433193053405,7.931755662140957e-07
0.024582227828827637,0.00018135801965075312,8.808211541094175e-07
0.0251549003559395,0.0001937923016969449,9.74608734446342e-07
0.025668028067375077,0.00020649803380277357,1.0746813183212716e-06
0.02611984232673602,0.00021944500140130135,1.1811670771222903e-06
0.026509350442967095,0.00023260229959372713,1.2941789023710474e-06
0.026836352269852842,0.0002459387252719321,1.4138141585874623e-06
0.027101439550363926,0.0002594231732269863,1.5401546332121919e-06
0.027305976819162858,0.000273025027319368,1.6732666833487805e-06
0.027452063491225476,0.00028671453739696507,1.8132015745278638e-06
0.027542477596888066,0.00030046317266899347,1.9599960020443536e-06
0.027580602943119484,0.0003142439428039954,2.1136727809126006e-06
0.02757034320953813,0.0003280316793421598,2.2742416864491396e-06
0.02751602750929804,0.00034180327202186885,2.4417004242901466e-06
0.027422311305808328,0.00035553785672564546,2.616035706477025e-06
0.02729407474636638,0.0003692169532386891,2.797224408968109e-06
0.02713631902485449,0.00038282455168149436,2.9852347851981546e-06
0.02695406161838355,0.00039634714684230385,3.1800277098291043e-06
0.026752233167698442,0.00040977372053882435,3.3815579266743865e-06
0.02653558105282134,0.0004230956740939543,3.5897752753325813e-06
0.026308585602439514,0.0004363067157577695,3.8046258727955124e-06
0.02607539362822295,0.0004494027105654351,4.026053229376314e-06
0.02583977149798195,0.0004623815018469863,4.253999282479419e-06
0.025605077863884242,0.00047524271418745284,4.488405336488029e-06
0.025374255269707786,0.00048798754747085083,4.729212901902605e-06
0.025149839610724093,0.0005006185711909588,4.976364431568057e-06
0.024933985482990605,0.0005131395274643874,5.229803956231894e-06
0.02472850325028552,0.0005255551496477065,5.489477625509917e-06
0.02453490141014147,0.0005378710008128132,5.755334163125048e-06
0.024354427558840708,0.0005500933330550588,6.027325246592015e-06
0.024188103544987377,0.0005622289658310158,6.305405821313534e-06
0.024036753925251994,0.0005742851801985756,6.589534357820932e-06
0.023901029554000433,0.0005862696260683887,6.879673059387673e-06
0.02378142868470063,0.000598190240628064,7.175788026061786e-06
0.023678316375921986,0.0006100551768932197,7.477849380442107e-06
0.023591940580098645,0.0006218727411322248,7.785831359948468e-06
0.023522441754335394,0.0006336513367158333,8.099712379410483e-06
0.0234698532621874,0.0006453994104699641,8.419475066206932e-06
0.02343409190496293,0.0006571253967617516,8.745106268014862e-06
0.02341493990355265,0.0006688376547138806,9.07659703088377e-06
0.023412019822040234,0.0006805443946452789,9.41394254322356e-06
0.023424762376707767,0.0006922535901949658,9.757142039433622e-06
0.023452365792135287,0.0007039728722371766,1.0106198655041659e-05
0.023493746142543594,0.0007157094002208463,1.0461119223156164e-05
0.023547480941490343,0.0007274697069918548,1.082191399995934e-05
0.023611751793697254,0.0007392595151756517,1.1188596305501217e-05
0.02368429465228255,0.0007510835267871467,1.1561182065991916e-05
0.02376236703624155,0.0007629451922092777,1.1939689245741023e-05
0.023842740277753263,0.0007748464690377764,1.2324137161052787e-05
0.023921722042492134,0.0007867875846178378,1.2714545674466691e-05
0.023995210769549507,0.0007987668178208482,1.3110934275076362e-05
0.024058780259871675,0.0008107803155782034,1.3513321058426124e-05
0.024107790299675885,0.0008228219582180903,1.3921721626875198e-05
0.024137518050645387,0.0008348832853056706,1.4336147937756137e-05
0.024143304270709178,0.0008469534908860093,1.4756607131804057e-05
0.024120707574152234,0.0008590194938472247,1.5183100377987365e-05
0.02406565882865342,0.0008710660854479261,1.5615621772811154e-05
0.023974606967987436,0.0008830761518970863,1.6054157332147408e-05
0.02384464770356364,0.000895030965564974,1.6498684111512922e-05
0.023673627952387866,0.0009069105344789619,1.6949169486523906e-05
0.023460220722356758,0.000918693996647648,1.7405570619305557e-05
0.023203967567719,0.000930360043720167,1.786783412939751e-05
0.022905288806506222,0.0009418873578137233,1.8335895979780986e-05
0.022565464703170172,0.0009532550461911423,1.8809681580782203e-05
0.02218659200103565,0.0009644430603671938,1.9289106107421787e-05
0.021771519010504663,0.0009754325881200789,1.9774075019543604e-05
0.02132376065134873,0.0009862064080355423,2.026448476858251e-05
0.020847394406134038,0.000996749196799913,2.0760223669791372e-05
0.020346939075943052,0.0010070477801704324,2.1261172914033957e-05
0.01982721908984758,0.0010170913197118801,2.1767207689004534e-05
0.01929321714947108,0.0010268714287717097,2.227819837612543e-05
0.018749917779200386,0.0010363822125038775,2.2794011786444327e-05
0.018202144766198067,0.0010456202281402271,2.3314512396605354e-05
0.017654396836297045,0.001054584363540851,2.3839563544525623e-05
0.017110687860400875,0.0010632756347150254,2.436902854408959e-05
0.016574399480923856,0.0010716969065503565,2.4902771679405936e-05
0.0160481543728573,0.0010798525450138017,2.5440659042296976e-05
0.015533717218502795,0.0010877480129116417,2.5982559181778338e-05
0.015031928477039429,0.0010953894243355272,2.652834354109013e-05
0.014542674077432005,0.0011027830749741451,2.707788666591755e-05
0.014064892858713865,0.0011099349667081815,2.7631066176338132e-05
0.013596622841563604,0.001116850345633251,2.818776250442349e-05
0.013135086527159045,0.0011235332729754317,2.874785840907566e-05
0.012676813544104304,0.0011299862479932476,2.931123828931783e-05
0.01221779597850078,0.001136209900373899,2.9877787326409616e-05
0.011753668696247778,0.001142202766542586,3.0447390493138738e-05
0.011279905315978537,0.0011479611600456426,3.1019931474785795e-05
0.01079202030604775,0.0011534791414511492,3.1595291550159996e-05
0.010285767481478776,0.0011587485883980308,3.2173348482622294e-05
0.009757324016382178,0.0011637593612724962,3.2753975470039924e-05
0.0092034481584049,0.001168499554316193,3.33370401989371e-05
0.008621600053780142,0.0011729558163692392,3.392240404160846e-05
0.00801001872230406,0.0011771137210632601,3.4509921425966585e-05
0.007367752713719556,0.0011809581639222661,3.509943939721297e-05
0.006694645801026796,0.0011844737635509526,3.569079737908127e-05
0.005991282066721487,0.0011876452455178896,3.6283827131348485e-05
0.0052588976348342765,0.0011904577904432786,3.687835289033878e-05
0.004499269158056897,0.0011928973321415014,3.747419167098497e-05
0.0037145909377699505,0.0011949507971654582,3.807115370331171e-05
0.002907352364721699,0.001196606282991081,3.866904297335085e-05
0.0020802256041633905,0.0011978531774833024,3.926765783846944e-05
0.0012359711135701214,0.0011986822266627358,3.986679168950595e-05
0.00037736621227579695,0.0011990855609941974,4.046623363642018e-05
-0.0004928403807196042,0.0011990566924520865,4.106576919978175e-05
-0.0013719471381131653,0.0011985904955723783,4.1665180996787865e-05
-0.0022572920744531925,0.0011976831857692367,4.226424941712327e-05
-0.0031462210236754724,0.0011963323074947046,4.286275329043925e-05
-0.004036036382300597,0.0011945367431432105,4.346047055309873e-05
-0.004923933871610726,0.0011922967505797327,4.4057178926529465e-05
-0.005806937070252817,0.0011896140328442669,4.4652656622385464e-05
-0.006681839719336402,0.0011864918386468696,4.524668309025825e-05
-0.0075451646674490344,0.0011829350875501733,4.5839039821807506e-05
-0.00839314712195499,0.0011789505096028222,4.6429511221095755e-05
-0.009221748659233408,0.001174546785657525,4.7017885544910845e-05
-0.01002670593317153,0.0011697346720094238,4.760395590932758e-05
-0.010803613702064913,0.0011645270921006147,4.818752135035509e-05
-0.011548037171545716,0.001158939179382212,4.87683879182258e-05
-0.0122556458357929,0.0011529882586303775,4.934636977772894e-05
-0.01292236060289996,0.0011466937570207042,4.992129028164171e-05
-0.013544506859493925,0.0011400770401551058,5.0492982980935666e-05
-0.01411896688913611,0.0011331611717179482,5.106129253390393e-05
-0.014643325345529458,0.0011259705986592819,5.162607547649824e-05
-0.015116001589801163,0.0011185307669254493,5.218720081789442e-05
-0.015536362714982712,0.0011108676758492533,5.274455042858809e-05
-0.015904810872372617,0.0011030073824524144,5.329801919316351e-05
-0.016222838207759153,0.0010949754701823815,5.3847514906322205e-05
-0.016493042746363377,0.001086796499943851,5.439295789885376e-05
-0.016719099467045653,0.0010784934643904987,5.493428038993735e-05
-0.016905683055043547,0.0010700872687599765,5.547142557322497e-05
-0.017058342614518135,0.001061596262342586,5.600434645600061e-05
-0.017183333515903097,0.0010530358433099806,5.653300448241375e-05
-0.017287416344936496,0.0010444181558447708,5.705736798220244e-05
-0.017377636086762044,0.0010357518927368462,5.7577410494347845e-05
-0.01746109520552436,0.0010270422099137747,5.80931090200105e-05
-0.017544732389231706,0.0010182907530150857,5.8604442260742714e-05
-0.01763511578161256,0.0010094957909723746,5.9111388896739577e-05
-0.017738256813595723,0.0010006524478235726,5.9613925956438566e-05
-0.0178594485681802,0.0009917530214781287,6.011202732376399e-05
-0.018003130852346116,0.000982787376622997,6.060566242328927e-05
-0.018172783068503763,0.0009737433981427846,6.109479511698071e-05
-0.018370845667717146,0.0009646074909587293,6.157938283925609e-05
-0.018598670774126094,0.0009553651118482685,6.205937598995785e-05
-0.01885650172609107,0.0009460013187232142,6.253471759760072e-05
-0.019143479711913533,0.000936501323363713,6.300534325812246e-05
-0.019457674037922288,0.0009268510349262541,6.347118134769495e-05
-0.01979613178493402,0.00091703758347054,6.393215350229415e-05
-0.020154943328395996,0.0009070498146922075,6.438817535183484e-05
-0.020529322284401404,0.0008968787482890082,6.483915749258014e-05
-0.02091370092399985,0.0008865179924869078,6.528500667777412e-05
-0.02130184358150755,0.000875964106360531,6.572562720248598e-05
-0.021686980040095467,0.0008652169004551302,6.616092245418989e-05
-0.02206195844980253,0.0008542796658326557,6.659079659576183e-05
-0.022419414403554574,0.0008431593226193165,6.701515634287483e-05
-0.022751950980675145,0.000831866481273259,6.743391279384797e-05
-0.023052324501255297,0.0008204154124027763,6.784698326726698e-05
-0.02331363174909021,0.00080882392334019,6.825429310120272e-05
-0.023529495094060403,0.0007971131416294023,6.865577736744511e-05
-0.02369424104617302,0.000785307207594344,6.905138245475106e-05
-0.023803065254491433,0.0007734328810191779,6.944106747690444e-05
-0.023852174270254805,0.0007615190711379913,6.982480546494373e-05
-0.02383889352864389,0.0007495963041882666,7.020258430877529e-05
-0.023761733055925795,0.0007376961475421242,7.05744074217079e-05
-0.02362040685868842,0.0007258506125634706,7.09402941117343e-05
-0.023415807291759377,0.0007140915590258587,7.130027965463163e-05
-0.023149940506943672,0.000702450122076183,7.165441507490715e-05
-0.022825832425838542,0.0006909561788429875,7.200276665013694e-05
-0.022447416074586887,0.0006796378667178811,7.234541516152716e-05
-0.02201941057492762,0.0006685211600555025,7.26824549182205e-05
-0.021547199962625423,0.0006576295074211143,7.301399258508966e-05
-0.021036716873426394,0.0006469835282121014,7.334014584399796e-05
-0.020494332977947373,0.0006366007657492579,7.366104191748829e-05
-0.019926755985054407,0.0006264954935085075,7.397681598230273e-05
-0.019340932481644917,0.0006166785713918327,7.428760949852782e-05
-0.018743956272917424,0.0006071573492031921,7.459356847867658e-05
-0.018142982262445758,0.0005979356145693513,7.489484171961971e-05
-0.017545145530272973,0.0005890135826211717,7.519157901891735e-05
-0.016957484053930553,0.0005803879252251208,7.548392939587892e-05
-0.016386862128024784,0.000572051838679632,7.577203933685511e-05
-0.015839890934361483,0.0005639951504140355,7.605605108412852e-05
-0.015322843562733586,0.0005562044667897617,7.633610098842947e-05
-0.014841563959789437,0.0005486633649091309,7.66123179463542e-05
-0.014401371702829823,0.0005413526309934762,7.688482194532985e-05
-0.014006965751903421,0.0005342505466297929,7.715372273973567e-05
-0.013662329906176692,0.0005273332227152728,7.741911868207193e-05
-0.013370641342163122,0.0005205749799031879,7.768109573272655e-05
-0.013134182619118456,0.0005139487739128675,7.793972667118056e-05
-0.012954257905392008,0.0005074266637817398,7.81950705306042e-05
-0.012831116175264825,0.0005009803202615756,7.844717227661503e-05
-0.012763886788885275,0.0004945815695205381,7.869606274906055e-05
-0.012750534536838044,0.0004882029641891072,7.894175888248797e-05
-0.012787841270941411,0.00048181837023716234,7.918426421609454e-05
-0.01287142034865853,0.00047540355483226233,7.942356969736189e-05
-0.012995768650529234,0.0004689367575824654,7.965965477546557e-05
-0.013154358497908017,0.00046239922579535605,7.989248877131002e-05
-0.01333976860231943,0.0004557756940202992,8.012203250126393e-05
-0.01354385026753413,0.0004490547893028358,8.034824012209472e-05
-0.013757923258228773,0.0004422293459213951,8.057106115590078e-05
-0.013972995124478057,0.0004352966163257184,8.079044264646255e-05
-0.014179997868384007,0.0004282583680775029,8.100633139256335e-05
-0.014370035797180084,0.00042112085966111186,8.1218676199498e-05
-0.014534637424736865,0.0004138946913556326,8.142743008725218e-05
-0.014666002480681761,0.00040659453137927796,8.163255239293591e-05
-0.014757233428696292,0.00039923872240193347,8.183401070638122e-05
-0.014802540111646988,0.00039184877901684765,8.203178258173592e-05
-0.014797406529830288,0.00038444879235647835,8.222585697457925e-05
-0.014738710820191687,0.00037706476301897285,8.241623536342312e-05
-0.014624793501348089,0.0003697238869385879,8.260293252591251e-05
-0.014455473983118455,0.0003624538200674713,8.278597695266402e-05
-0.014232019288253775,0.00035528194674962823,8.29654108943683e-05
-0.013957070537241026,0.00034823467429325453,8.314129004962902e-05
-0.013634532111038522,0.00034133677363118464,8.331368291161012e-05
-0.013269426828417868,0.0003346107838963205,8.3482669800992e-05
-0.012867719588240003,0.00032807649729215603,8.364834162128911e-05
-0.012436112650549804,0.0003217505392324586,8.381079838042027e-05
-0.011981817487048945,0.0003156460566980589,8.39701475294029e-05
-0.01151230941660591,0.00030977252497214517,8.412650217482046e-05
-0.01103507130270393,0.00030413567979231773,8.427997922601158e-05
-0.01055733225066388,0.0002987375789039758,8.443069754068566e-05
-0.010085807922746316,0.0002935767938606232,8.45787761338768e-05
-0.009626451257582753,0.000288648729065541,8.472433251460835e-05
-0.009184225043674839,0.0002839460599902266,8.486748121187228e-05
-0.008762909238550175,0.0002794592764196703,8.500833254597476e-05
-0.008364954840315228,0.000275177310399954,8.514699169267966e-05
-0.007991392420388342,0.0002710882235847781,8.528355807617585e-05
-0.0076417982296890456,0.0002671799259222587,8.541812511355262e-05
-0.007314315626573447,0.0002634408974581931,8.555078031939773e-05
-0.007005725796195595,0.00025986088710250083,8.56816057655379e-05
-0.006711560291757233,0.0002564315655805126,8.581067887870865e-05
-0.006426248912749511,0.00025314711327938593,8.593807354842363e-05
-0.0061432987569862,0.000250004726361952,8.606386150833397e-05
-0.005855502185853703,0.000247005026126242,8.618811394645601e-05
-0.005555171469983959,0.0002441523577122826,8.631090329241564e-05
-0.005234395706601892,0.00024145496591813616,8.643230512332324e-05
-0.004885312163200884,0.00023892503895068547,8.655240012454046e-05
-0.004500381222268044,0.00023657861560431824,8.667127603817921e-05
-0.004072653325014887,0.00023443535696749751,8.678902953132217e-05
-0.0035960182586294988,0.00023251818907158643,8.690576791783194e-05
-0.003065430099092457,0.00023085282698215594,8.702161067184537e-05
-0.0024771025627313478,0.00022946719381669998,8.713669067704508e-05
-0.0018286688585219526,0.00022839075096138666,8.72511551632396e-05
-0.001119299159333318,0.00022765375895692283,8.736516629071918e-05
-0.00034976923075040765,0.0002272864918594019,8.747890135342326e-05
0.0004775244017841557,0.00022731843065216032,8.759255258405115e-05
0.0013586048307949394,0.0002277774629603051,8.770632655745426e-05
0.002288009819405002,0.00022868911662285508,8.782044320235005e-05
0.0032589373615249926,0.00023007585341808758,8.793513444486028e-05
0.00426343431839582,0.00023195644633806778,8.805064251979931e-05
0.005292617845647205,0.00023434545937907854,8.81672179962286e-05
0.006336917161816303,0.00023725284313094443,8.82851175718561e-05
0.007386322356163469,0.00024068365301043937,8.840460169589145e-05
0.00843062813535577,0.0002446378906333192,8.852593208180239e-05
0.009459663668863352,0.00024911046358437394,8.864936917035681e-05
0.010463503797742389,0.00025409125545102537,8.877516960011567e-05
0.01143265995154451,0.0002595652963883471,8.890358373807551e-05
0.012358250118129773,0.00026551302390576565,8.903485331814904e-05
0.013232146758475815,0.00027191062312491705,8.916920922990672e-05
0.014047100971734916,0.00027873043505746974,8.930686949445231e-05
0.014796841080156711,0.0002859414205704426,8.944803745835929e-05
0.015476144007398851,0.00029350966684233153,8.959290023021248e-05
0.01608087832118711,0.00030139892242447803,8.974162737752918e-05
0.016608018627741795,0.00030957114666171025,8.989436989480073e-05
0.017055631978158816,0.0003179870593131854,9.005125944629445e-05
0.017422838073402117,0.0003266066768260756,9.021240788032927e-05
0.017709746542830643,0.0003353898229801338,9.037790700528082e-05
0.01791737613056082,0.0003442966036484817,9.054782861193797e-05
0.01804756149113991,0.00035328783805390685,9.072222472236358e-05
0.018102853171644274,0.0003623254417196029,9.090112804230696e-05
0.018086415597319334,0.00037137275891184376,9.108455259246483e-05
0.018001926874109127,0.0003803948445297009,9.127249449332521e-05
0.01785348311845035,0.00038935869702784074,9.14649328787146e-05
0.017645508882388687,0.0003982334450280505,9.166183091422858e-05
0.017382674173446973,0.0004069904907920094,9.18631368981836e-05
