frame_number,force
0,859.454866273556
1,859.499671599152
2,859.5468819883599
3,859.5963633736742
4,859.6479962483826
5,859.7016826313155
6,859.7573511899734
7,859.8149598519598
8,859.8744954963211
9,859.935970576974
10,859.9994167880335
11,860.0648761648578
12,860.1323902940851
13,860.2019884872852
14,860.2736758138368
15,860.3474218530063
16,860.4231509669984
17,860.5007347858252
18,860.5799874130319
19,860.6606636391949
20,860.7424601796494
21,860.8250196253209
22,860.9079365264225
23,860.9907649737263
24,861.0730271907642
25,861.1542228349024
26,861.2338387900489
27,861.3113592141
28,861.3862755634959
29,861.4580963330673
30,861.5263563183663
31,861.5906252671389
32,861.6505158040237
33,861.7056905106784
34,861.7558680539619
35,861.8008282829436
36,861.8404162297751
37,861.8745449149069
38,861.9031968015358
39,861.9264237381567
40,861.9443452852405
41,861.9571453934411
42,861.9650674736624
43,861.9684080149319
44,861.9675090574973
45,861.9627499180751
46,861.954538508178
47,861.9433024261114
48,861.9294798762777
49,861.9135104898152
50,861.8958262892631
51,861.876843239864
52,861.8569539078331
53,861.8365216366386
54,861.8158764352731
55,861.7953125887016
56,861.7750879224888
57,861.7554246316741
58,861.7365115018757
59,861.7185071570933
60,861.7015437718187
61,861.6857306603869
62,861.6711573571305
63,861.6578961096711
64,861.6460039458416
65,861.6355245225902
66,861.6264898263339
67,861.6189215826547
68,861.6128320983984
69,861.6082242968782
70,861.6050908882283
71,861.6034127906521
72,861.60315693323
73,861.6042734353462
74,861.6066920454712
75,861.6103177900728
76,861.6150260309475
77,861.6206574403758
78,861.6270136426629
79,861.6338543417359
80,861.640896641853
81,861.6478170208326
82,861.6542561000763
83,861.659826056205
84,861.6641203138779
85,861.6667250581958
86,861.6672320465599
87,861.6652521249365
88,861.6604287561189
89,861.6524507958304
90,861.6410637704241
91,861.6260790268566
92,861.6073802941343
93,861.5849274032593
94,861.5587571824802
95,861.5289818085158
96,861.49578499793
97,861.4594163195629
98,861.4201837505407
99,861.378444559718
100,861.33459468426
101,861.2890568404435
102,861.2422676123801
103,861.1946637438916
104,861.1466678950109
105,861.0986742439104
106,861.0510344857938
107,861.0040449200304
108,860.9579353452951
109,860.9128603829787
110,860.8688936740798
111,860.826025223699
112,860.7841620529562
113,860.7431322533037
114,860.7026924604089
115,860.6625386004729
116,860.6223195002445
117,860.5816526868534
118,860.5401415589503
119,860.4973930944367
120,860.4530352427596
121,860.4067330480717
122,860.3582024681651
123,860.3072209611572
124,860.2536342300349
125,860.1973589087658
126,860.1383813087465
127,860.0767526072614
128,860.0125811134471
129,859.9460224975396
130,859.8772690241356
131,859.80653881355
132,859.7340660007924
133,859.6600924570332
134,859.5848615308784
135,859.5086140649736
136,859.4315867670301
137,859.3540128801038
138,859.2761249621161
139,859.198159376973
140,859.1203618354604
141,859.0429931314949
142,858.9663341973487
143,858.8906897008857
144,858.8163895130817
145,858.7437874804485
146,858.6732571571972
147,858.6051845304248
148,858.5399581766316
149,858.4779575345594
150,858.4195400140736
151,858.3650275846468
152,858.3146934204651
153,858.2687491540719
154,858.2273332809801
155,858.1905012564724
156,858.1582178440685
157,858.1303523020158
158,858.1066769914512
159,858.086869910878
160,858.070521464568
161,858.0571454402425
162,858.0461937426014
163,858.0370740094003
164,858.0291689593304
165,858.0218562747754
166,858.0145279881772
167,858.0066085990524
168,857.99757138607
169,857.9869525695154
170,857.9743631336835
171,857.959498213478
172,857.9421439766771
173,857.9221819502193
174,857.8995908128073
175,857.874445813487
176,857.8469161195584
177,857.8172604656789
178,857.7858214129913
179,857.7530183442565
180,857.7193391036564
181,857.6853300599618
182,857.6515844192929
183,857.6187288264495
184,857.5874085504764
185,857.5582717092594
186,857.5319529937343
187,857.5090572634211
188,857.4901433260088
189,857.4757082924573
190,857.4661731197981
191,857.4618701898557
192,857.4630338478897
193,857.4697946453373
194,857.4821776409294
195,857.5001046465728
196,857.5233998833288
197,857.5517982200714
198,857.5849550452117
199,857.6224568694969
200,857.6638319439346
201,857.7085604512247
202,857.7560841058496
203,857.8058151786342
204,857.8571450099203
205,857.9094520407878
206,857.9621093588797
207,858.0144917887761
208,858.065982663175
209,858.115980532865
210,858.1639061263683
211,858.2092097958149
212,858.2513794948399
213,858.2899491222987
214,858.3245069555052
215,858.35470393414
216,858.3802616741278
217,858.4009801777204
218,858.4167451737405
219,858.427534847072
220,858.4334254831429
221,858.4345954069183
222,858.4313265924098
223,858.4240033970561
224,858.4131080039581
225,858.3992123680503
226,858.3829667423238
227,858.3650851152073
228,858.346328048563
229,858.3274834604837
230,858.3093458885724
231,858.2926947730635
232,858.2782723852237
233,858.2667621844221
234,858.2587685325075
235,858.2547987628099
236,858.2552485670376
237,858.2603914827032
238,858.2703729134972
239,858.2852086827239
240,858.3047877739019
241,858.3288787721627
242,858.3571395758073
243,858.3891300856613
244,858.4243276575319
245,858.4621450396693
246,858.5019503632195
247,858.5430886410506
248,858.5849042249719
249,858.6267637010722
250,858.6680786433003
251,858.7083274554182
252,858.7470752981012
253,858.7839909716263
254,858.81885971964
255,858.8515912435172
256,858.8822226721347
257,858.9109166843572
258,858.937955312609
259,858.963730082015
260,858.9887290533147
261,859.0135211343309
262,859.0387378580624
263,859.0650528230406
264,859.0931591822413
265,859.1237458679635
266,859.1574735011839
267,859.1949510019576
268,859.2367137468802
269,859.2832038596068
270,859.3347530941571
271,859.3915688286634
272,859.4537237725447
273,859.5211499532523
274,859.5936373873257
275,859.6708376182951
276,859.75227204519
277,859.8373446765165
278,859.9253586585835
279,860.0155356769324
280,860.1070371400848
281,860.1989859800733
282,860.2904880095156
283,860.3806520606587
284,860.468608491484
285,860.5535259138389
286,860.6346260861849
287,860.7111968738868
288,860.7826031285505
289,860.8482953260292
290,860.9078158205886
291,860.9608026163025
292,861.0069906282926
293,861.0462104916551
294,861.0783850746247
295,861.1035239829215
296,861.1217164788629
297,861.1331233148051
298,861.1379679695779
299,861.1365277099912
300,861.1291248115368
301,861.1161181757684
302,861.0978954817543
303,861.0748659153618
304,861.0474534377562
305,861.0160904751755
306,860.9812118413437
307,860.9432486854975
308,860.9026223487639
309,860.8597382205095
310,860.8149799350865
311,860.7687043976857
312,860.7212380990389
313,860.6728750405066
314,860.6238764550232
315,860.5744723819496
316,860.5248649734665
317,860.4752331963122
318,860.4257384460025
319,860.3765305471545
320,860.3277535906069
321,860.2795509568166
322,860.2320687034003
323,860.185456403696
324,860.139864712301
325,860.0954394660228
326,860.0523128436726
327,860.0105927361941
328,859.9703518192188
329,859.9316178200916
330,859.894366195898
331,859.8585159996218
332,859.8239292202915
333,859.7904134453427
334,859.7577273868958
335,859.7255886523146
336,859.6936830866831
337,859.6616750315848
338,859.6292179052996
339,859.5959645958893
340,859.5615772739252
341,859.525736398389
342,859.4881488916352
343,859.4485556192598
344,859.4067383551704
345,859.3625263253687
346,859.3158022389083
347,859.2665075009423
348,859.2146461500217
349,859.1602870488576
350,859.1035640164976
351,859.0446738449832
352,858.9838723258488
353,858.921468423168
354,858.8578166623615
355,858.793307816504
356,858.7283580942957
357,858.6633971735918
358,858.598855522021
359,858.5351515249924
360,858.4726790100771
361,858.4117957666406
362,858.3528135904213
363,858.2959902831949
364,858.2415239391123
365,858.189549728339
366,858.1401392458323
367,858.0933023760458
368,858.048991558887
369,858.0071083144871
370,857.9675118705165
371,857.9300296945098
372,857.8944696089146
373,857.8606329464877
374,857.8283279616735
375,857.7973825762663
376,857.7676555945684
377,857.7390457419449
378,857.7114981349255
379,857.6850080005622
380,857.6596216576124
381,857.6354349897974
382,857.6125898282835
383,857.5912687274911
384,857.5716885551253
385,857.5540932051648
386,857.5387456705328
387,857.5259197128534
388,857.5158914061514
389,857.5089308268103
390,857.5052940503359
391,857.5052154410224
392,857.5089001128359
393,857.5165164776452
394,857.5281889360314
395,857.5439909102785
396,857.5639385269407
397,857.5879853570062
398,857.6160187403659
399,857.6478583030296
400,857.6832572091736
401,857.721906423202
402,857.7634418665309
403,857.8074539886683
404,857.8534990361837
405,857.9011112007695
406,857.9498148255474
407,857.9991359595724
408,858.0486127952885
409,858.0978048304341
410,858.1463008109749
411,858.1937255290745
412,858.2397454113805
413,858.2840727005399
414,858.3264680565054
415,858.3667416011965
416,858.404752680119
417,858.4404087453366
418,858.4736636816232
419,858.5045156736112
420,858.5330045014155
421,858.5592080393914
422,858.5832377350968
423,858.605232995301
424,858.6253546920477
425,858.6437782950798
426,858.6606872841064
427,858.6762674467292
428,858.6907024723844
429,858.7041709914033
430,858.7168449927162
431,858.7288894901438
432,858.7404633797736
433,858.7517214802766
434,858.7628176407449
435,858.7739085675992
436,858.7851578014707
437,858.7967391786511
438,858.8088391572867
439,858.8216575303937
440,858.8354062611002
441,858.8503064620111
442,858.8665838376476
443,858.884463078243
444,858.9041616524861
445,858.925883273854
446,858.9498111872099
447,858.9761014491908
448,859.0048765030859
449,859.0362194408159
450,859.0701693430943
451,859.1067180500849
452,859.1458086992022
453,859.187336347015
454,859.2311508978097
455,859.2770623753307
456,859.324848345248
457,859.3742630639
458,859.4250476905679
459,859.4769406863988
460,859.5296874516529
461,859.5830484196401
462,859.6368051620236
463,859.6907643716601
464,859.7447597369691
465,859.7986517579918
466,859.852325652045
467,859.9056877185611
468,859.958660740745
469,860.011179056727
470,860.0631838693998
471,860.1146192822265
472,860.1654294423801
473,860.2155569846461
474,860.2649427371657
475,860.313526469054
476,860.3612483420269
477,860.4080506245874
478,860.4538791615408
479,860.4986841537625
480,860.5424200276939
481,860.5850444904537
482,860.6265171503678
483,860.6667982274587
484,860.7058478436614
485,860.7436261990557
486,860.7800946783976
487,860.8152176744848
488,860.848964742188
489,860.8813126526913
490,860.9122469689956
491,860.9417628304534
492,860.9698646719871
493,860.9965646500239
494,861.021879677245
495,861.045827204959
496,861.0684201536429
497,861.0896615497538
498,861.10953942607
499,861.1280224439944
500,861.1450565809661
501,861.16056310136
502,861.1744378649031
503,861.186551869233
504,861.1967528860727
505,861.2048681567989
506,861.2107082375935
507,861.2140720937151
508,861.2147534171716
509,861.2125479463563
510,861.2072613884691
511,861.1987174686057
512,861.1867656739262
513,861.17128836292
514,861.1522069952377
515,861.1294872968064
516,861.1031432412094
517,861.0732398163065
518,861.039894623194
519,861.0032783766192
520,860.963614324008
521,860.9211764870009
522,860.8762865011956
523,860.8293087767969
524,860.7806437837535
525,860.7307194236209
526,860.6799806061836
527,860.6288773251052
528,860.5778517596208
529,860.5273251162556
530,860.4776849168688
531,860.4292732386625
532,860.3823761656728
533,860.3372145565849
534,860.293936217839
535,860.2526096708509
536,860.2132198481589
537,860.1756661632454
538,860.1397634291721
539,860.1052460436341
540,860.0717756890634
541,860.0389524928415
542,860.006329214974
543,859.9734277164374
544,859.9397567886126
545,859.9048303503845
546,859.8681849971073
547,859.8293959427302
548,859.7880905653325
549,859.7439590224619
550,859.6967616880655
551,859.64633340909
552,859.5925847468894
553,859.5355004997075
554,859.4751359628231
555,859.4116115293851
556,859.3451062462325
557,859.2758507853844
558,859.2041200814499
559,859.130225722689
560,859.0545080753511
561,858.9773280487757
562,858.8990584047933
563,858.8200746217094
564,858.740745519132
565,858.6614240364753
566,858.5824386368372
567,858.5040857823666
568,858.4266238856488
569,858.3502691262646
570,858.2751934774398
571,858.2015251703433
572,858.1293516791959
573,858.0587251926144
574,857.9896704133401
575,857.9221943322955
576,857.856297359642
577,857.7919849673038
578,857.7292789229176
579,857.668227304899
580,857.6089127013248
581,857.5514582028186
582,857.4960309564419
583,857.4428431794892
584,857.3921506554192
585,857.3442488000436
586,857.2994663707408
587,857.2581568887693
588,857.2206879567694
589,857.187428854968
590,857.1587369950244
591,857.13494394
592,857.1163417458456
593,857.103170350133
594,857.0956066433683
595,857.0937557110225
596,857.09764452929
597,857.107218156133
598,857.1223382313883
599,857.1427834575474
600,857.168251733129
601,857.1983637221095
602,857.2326677602151
603,857.2706460672008
604,857.3117222764519
605,857.3552702992438
606,857.4006244669304
607,857.4470907854565
608,857.4939590971117
609,857.5405159761076
610,857.5860581850394
611,857.6299064400829
612,857.6714191434959
613,857.7100057217466
614,857.7451392353739
615,857.7763679300449
616,857.803325373654
617,857.8257388352558
618,857.8434356361645
619,857.8563472983863
620,857.8645113708972
621,857.8680708103271
622,857.8672707655655
623,857.8624526359262
624,857.8540454007559
625,857.8425544509361
626,857.8285483759452
627,857.8126442130746
628,857.795491519682
629,857.7777554608924
630,857.7600991227692
631,857.7431655053714
632,857.7275599850689
633,857.7138342741277
634,857.7024729232811
635,857.6938831945594
636,857.688388763985
637,857.6862273333699
638,857.6875519312784
639,857.6924354509239
640,857.7008777453832
641,857.712814396453
642,857.7281261922428
643,857.7466484455174
644,857.7681795338051
645,857.7924883936554
646,857.8193210580783
647,857.8484065305342
648,857.8794622682057
649,857.9121994036902
650,857.9463277190223
651,857.9815603699922
652,858.0176184290251
653,858.0542354019062
654,858.0911618873937
655,858.1281704467992
656,858.1650605801924
657,858.2016635642347
658,858.2378468463238
659,858.2735176766183
660,858.3086256379091
661,858.3431637029959
662,858.3771674671153
663,858.4107123337214
664,858.443908685505
665,858.4768953625538
666,858.5098319529556
667,858.5428904021182
668,858.5762463394906
669,858.610070448355
670,858.6445202258193
671,858.6797325432578
672,858.71581744396
673,858.7528535536943
674,858.7908853226996
675,858.8299221241897
676,858.8699390910881
677,858.9108794922395
678,858.9526583825667
679,858.9951672065391
680,859.0382790383991
681,859.0818541963225
682,859.1257459924678
683,859.1698063405157
684,859.2138909012888
685,859.2578634983038
686,859.3015996917738
687,859.3449895638732
688,859.3879398283128
689,859.4303753447963
690,859.4722401090434
691,859.5134978496806
692,859.5541324165118
693,859.5941481136865
694,859.6335700176979
695,859.6724441533041
696,859.7108372162055
697,859.7488354025079
698,859.7865419072299
699,859.8240727958081
700,859.8615511846634
701,859.8990999260474
702,859.9368331965434
703,859.9748474695338
704,860.0132123395995
705,860.051961663529
706,860.0910855320443
707,860.1305236348967
708,860.1701605564733
709,860.2098234149055
710,860.2492820836055
711,860.2882520939118
712,860.3264002201811
713,860.3633526050638
714,860.3987050481402
715,860.4320348469165
716,860.4629134709653
717,860.4909194046171
718,860.515650657008
719,860.5367366231709
720,860.5538491186386
721,860.5667124819563
722,860.5751126503391
723,860.5789050711087
724,860.5780212418648
725,860.5724736206995
726,860.562358626263
727,860.5478574201977
728,860.5292341171898
729,860.5068310687101
730,860.4810610160612
731,860.4523962216526
732,860.4213550575545
733,860.388486818646
734,860.3543556551392
735,860.3195244852786
736,860.2845396135319
737,860.2499166203804
738,860.2161279498642
739,860.1835924994107
740,860.1526673998751
741,860.12364205371
742,860.0967343723797
743,860.0720890281417
744,860.0497774334503
745,860.0297991257208
746,860.0120843119959
747,859.9964975050971
748,859.9828423517981
749,859.9708677862861
750,859.9602755099363
751,859.9507285918924
752,859.9418608256641
753,859.9332864241431
754,859.924609669686
755,859.9154342132492
756,859.9053718118561
757,859.8940503912569
758,859.8811214057624
759,859.8662665321962
760,859.8492037602565
761,859.8296928987174
762,859.8075404264887
763,859.7826035581369
764,859.7547934133111
765,859.7240772409309
766,859.6904796814521
767,859.6540830290152
768,859.6150264153428
769,859.5735038174664
770,859.5297607769077
771,859.4840896879416
772,859.4368235240414
773,859.388328003627
774,859.3389924124784
775,859.2892194578591
776,859.2394145434334
777,859.1899747928011
778,859.1412781295213
779,859.0936727419978
780,859.0474672223512
781,859.0029215555554
782,858.9602390770268
783,858.9195596059006
784,858.8809541225426
785,858.8444214645475
786,858.8098875383876
787,858.777207512779
788,858.7461713337852
789,858.7165126071291
790,858.6879204774741
791,858.6600537841911
792,858.6325566540388
793,858.6050748036286
794,858.5772720103165
795,858.5488462911286
796,858.5195452639337
797,858.4891800662899
798,858.4576371925137
799,858.4248876864953
800,858.390993261777
801,858.3561091096458
802,858.3204833718613
803,858.2844534133459
804,858.2484391013196
805,858.2129333529749
806,858.1784903070733
807,858.1457115458569
808,858.1152307588281
809,858.0876971346257
810,858.0637577321639
811,858.0440391943451
812,858.0291293383499
813,858.0195592377524
814,858.0157863581425
815,858.0181792032522
816,858.0270038862841
817,858.042413085715
818,858.064437889906
819,858.092982993061
820,858.1278255783915
821,858.1686180597335
822,858.2148946733747
823,858.2660817241375
824,858.321511113278
825,858.380436650318
826,858.4420526253368
827,858.5055141871542
828,858.5699591212743
829,858.6345305188181
830,858.6983995945498
831,858.7607877138656
832,858.8209866487963
833,858.8783761813461
834,858.9324383329429
835,858.982767680628
836,859.0290774094873
837,859.0712009578131
838,859.1090893779369
839,859.1428048545392
840,859.1725110829673
841,859.1984613019266
842,859.220984710035
843,859.2404718743938
844,859.257359644844
845,859.2721160522779
846,859.2852256781543
847,859.297175974434
848,859.308444922415
849,859.3194902359648
850,859.3307401012597
851,859.342585289661
852,859.3553724304578
853,859.3693982610951
854,859.3849047306096
855,859.4020748962927
856,859.4210296292359
857,859.4418252256921
858,859.4644520902868
859,859.4888346948644
860,859.5148330119158
861,859.5422455866092
862,859.5708143635361
863,859.6002313187682
864,859.6301468714962
865,859.6601799895799
866,859.6899298361592
867,859.718988655538
868,859.7469553593928
869,859.7734490622848
870,859.7981217536695
871,859.8206693952116
872,859.8408409178116
873,859.85844480371
874,859.8733531667687
875,859.8855034576627
876,859.8948980429658
877,859.9016018934084
878,859.9057385273619
879,859.9074843033964
880,859.9070611752693
881,859.9047280525624
882,859.9007709194732
883,859.8954919115376
884,859.8891976855862
885,859.8821876044748
886,859.8747424027358
887,859.8671140196338
888,859.8595171623621
889,859.8521229609393
890,859.8450549019752
891,859.83838713394
892,859.8321451856144
893,859.826309058099
894,859.8208185167961
895,859.8155802743993
896,859.8104766685309
897,859.8053753757356
898,859.8001396151343
899,859.7946382028699
900,859.7887548129387
901,859.7823959104463
902,859.7754969822175
903,859.7680268449162
904,859.7599899840721
905,859.7514270934338
906,859.7424141912983
907,859.7330607740688
908,859.7235073679144
909,859.7139226385503
910,859.7045000497286
911,859.6954539706759
912,859.6870150822295
913,859.6794248884031
914,859.672929150378
915,859.667770215255
916,859.6641785128204
917,859.6623637775072
918,859.6625066308377
