acceleration,velocity,displacement
0.0015405412863471067,0.0,0.0
0.002089029039506871,9.073925814634945e-07,2.2684814536587362e-10
0.002648861215692354,2.0918651452633005e-06,9.766625770475723e-10
0.0032193219222636828,3.5589109297523093e-06,2.3893565958014747e-09
0.003799658618439183,5.313656064928026e-06,4.607498344471559e-09
0.004389083816782205,7.360841673733373e-06,7.776122779136908e-09
0.004986776983035155,9.704806873687712e-06,1.204253491599218e-08
0.005591886615468857,1.2349472773313716e-05,1.7556104827742538e-08
0.006203532488557407,1.5298327549320283e-05,2.446805490840104e-08
0.006820808049454181,1.855441268382318e-05,3.2931239966686905e-08
0.0074427829592776835,2.2120310436006143e-05,4.309992074664424e-08
0.008068505775436713,2.5998132619684742e-05,5.512953151056696e-08
0.00869700677535944,3.018951075738378e-05,6.917644235483409e-08
0.009327300924113708,3.469558768225207e-05,8.539771696474306e-08
0.009958390987644226,3.9517010660191555e-05,1.0395086655035397e-07
0.010589270791095963,4.4653926104876605e-05,1.24993600741621e-07
0.011218928618995599,5.010597595739949e-05,1.4868357625719005e-07
0.011846350750449295,5.587229579976071e-05,1.751781441964801e-07
0.012470525117483394,6.195151476674388e-05,2.0463409683810623e-07
0.013090445068926206,6.834175731334629e-05,2.3720741485812877e-07
0.013705113215674034,7.504064688449634e-05,2.7305301590758945e-07
0.014313545325572235,8.20453115198079e-05,3.1232450550866554e-07
0.014914774229972458,8.935239140869408e-05,3.55173931240791e-07
0.015507853702577925,9.695804839183168e-05,4.017515411909225e-07
0.016091862274237725,0.00010485797738603559,4.522055476353893e-07
0.016665906951388917,0.00011304741969244225,5.066818969050088e-07
0.01722912680801725,0.00012152117813229379,5.653240463611928e-07
0.01778069642123304,0.00013027363393960635,6.282727493791679e-07
0.01831982912055231,0.0001392987653250527,6.956658491953326e-07
0.018845780022448532,0.0001485901676108029,7.676380824292966e-07
0.01935784882453247,0.00015814107482254816,8.443208930376343e-07
0.01985538233656445,0.0001679443826128224,9.258422573964769e-07
0.020337776727623397,0.00017799267237886935,1.0123265211443998e-06
0.020804479470775888,0.00018827823642846917,1.1038942483462345e-06
0.021254990968937033,0.0001987931040383974,1.2006620834629511e-06
0.021688865848591338,0.0002095290682427795,1.3027426265332454e-06
0.022105713910786008,0.00022047771318262383,1.4102443218895964e-06
0.022505200730698213,0.0002316304418429949,1.523271360646001e-06
0.02288704789857138,0.0002429785040003123,1.6419235971068278e-06
0.02325103289739747,0.0002545130241993045,1.766296479156732e-06
0.023596988616715962,0.00026622502957783284,1.8964809926010163e-06
0.023924802506122358,0.0002781054773585424,2.03256361933511e-06
0.024234415376338594,0.0002901452818291576,2.174626309132035e-06
0.02452581986075685,0.00030233534063843145,2.3227464647489323e-06
0.024799058556114667,0.0003146665602426493,2.4769969399692024e-06
0.02505422186525033,0.0003271298803479906,2.6374460501168625e-06
0.025291445565992752,0.00033971629720580136,2.8041575945053105e-06
0.02551090812894528,0.0003524168856295359,2.977190890214145e-06
0.025712827806159962,0.0003652228196133122,3.156600816524857e-06
0.025897459514803215,0.00037812539144355296,3.3424378692890733e-06
0.02606509154495995,0.00039111602920849375,3.534748224452085e-06
0.026216042126103834,0.0004041863126262597,3.7335738099107733e-06
0.02635065588943816,0.0004173279871301452,3.938952384849875e-06
0.02646930026169251,0.00043053297616792787,4.150917625674393e-06
0.026572361821866747,0.00044379339168881766,4.369499217638579e-06
0.026660242648775787,0.00045710154280647827,4.594722951262403e-06
0.0267333566855591,0.000470449942640062,4.826610822624038e-06
0.02679212614659768,0.0004838313133481012,5.065181136621079e-06
0.026836977990014325,0.0004972385893822543,5.310448612303668e-06
0.0268683404741869,0.0005106649189983046,5.562424489398807e-06
0.026886639811558376,0.000524103664069741,5.821116635165819e-06
0.026892296931423733,0.0005375483982554865,6.086529650747126e-06
0.026885724366238622,0.0005509929035799021,6.358664976205974e-06
0.02686732328106545,0.0005644311654917282,6.637520993473881e-06
0.026837480669140663,0.0005778573664792797,6.923093126466633e-06
0.02679656673578167,0.0005912658783305103,7.21537393766908e-06
0.026744932488106762,0.0006046512531364825,7.5143532205358285e-06
0.02668290754159288,0.0006180082131439073,7.820018087105926e-06
0.02661079814962914,0.0006313316395667128,8.13235305028358e-06
0.026528885460959013,0.0006446165604693598,8.451340100292598e-06
0.026437424011569986,0.0006578581378374921,8.77695877486931e-06
0.026336640459130995,0.0006710516539551673,9.109186222817476e-06
0.02622673256623934,0.0006841924972115099,9.447997260609144e-06
0.026107868433779793,0.0006972761474615147,9.7933644217774e-06
0.025980185981257217,0.000710298161065274,1.0145257998909097e-05
0.02584379267036466,0.0007232541557281795,1.050364607810746e-05
0.02569876547131068,0.0007361397952635983,1.0868494565855405e-05
0.025545151076135784,0.0007489507744004598,1.1239767208271419e-05
0.025382966366543455,0.0007616828037611297,1.1617425602811817e-05
0.025212199143616856,0.0007743315951386697,1.2001429202536766e-05
0.0250328091229556,0.0007868928472053128,1.2391735313122762e-05
0.02484472919218733,0.0007993622317840985,1.2788299082870115e-05
0.024647866920008397,0.0008117353808121474,1.3191073486019176e-05
0.024442106298596323,0.0008240078741167986,1.3600009299751412e-05
0.024227309696067786,0.0008361752281154645,1.4015055075309478e-05
0.02400331999289711,0.0008482328855377058,1.443615710372277e-05
0.023769962874505505,0.0008601762062545564,1.4863259376670835e-05
0.023527049250368023,0.0008720004592857748,1.529630354305592e-05
0.02327437776786511,0.0008837008160403331,1.5735228861887447e-05
0.02301173738764076,0.0008952723448292096,1.617997215210483e-05
0.022738909987839055,0.0009067100066730795,1.6630467739980403e-05
0.02245567296749216,0.0009180086524119124,1.708664740475165e-05
0.022161801823357613,0.0009291630211096248,1.7548440323132033e-05
0.021857072679531884,0.0009401677397353472,1.8015773013343277e-05
0.02154126475561054,0.0009510173240941328,1.8488569279300647e-05
0.021214162765504932,0.0009617061809744117,1.8966750155567785e-05
0.020875559242115954,0.0009722286114763168,1.9450233853680468e-05
0.020525256781770553,0.0009825788154822885,1.9938935710420118e-05
0.020163070199913258,0.0009927508972277094,2.0432768138597617e-05
0.01978882858966052,0.0010027388719251028,2.093164058088582e-05
0.01940237727742589,0.0010125366733918745,2.1435459467215066e-05
0.0190035796722515,0.0010221381626292938,2.194412817622036e-05
0.01859231900633534,0.0010315371372989406,2.2457547001202416e-05
0.01816849996456922,0.0010407273420416667,2.297561312103757e-05
0.017732050202301196,0.0010497024795833843,2.3498220576443833e-05
0.01728292175363198,0.0010584562225723676,2.402526025198277e-05
0.01682109233660572,0.001066982226094927,2.4556619864149593e-05
0.01634656656504964,0.0010752741408203408,2.509218395587841e-05
0.01585937707768397,0.0010833256267310243,2.563183389776625e-05
0.015359585593326371,0.0010911303673987768,2.61754478962987e-05
0.014847283897530074,0.001098682084771491,2.6722901009341266e-05
0.014322594762555313,0.0011059745544365123,2.727406516914327e-05
0.013785672800315877,0.00111300162132723,2.7828809213084204e-05
0.013236705246686747,0.0011197572158389807,2.8386998922375758e-05
0.012675912674093829,0.0011262353703191759,2.8948497068915296e-05
0.012103549625956675,0.0011324302358941885,2.9513163470468638e-05
0.011519905161291182,0.0011383360995910006,3.0080855054339934e-05
0.010925303292446432,0.0011439474017044349,3.0651425929663794e-05
0.010320103296199291,0.0011492587533515964,3.12247274684278e-05
0.009704699878513277,0.0011542649541452746,3.180060839530202e-05
0.009079523173361729,0.0011589610099082433,3.23789148863154e-05
0.008445038554482927,0.0011633421503402044,3.2959490676377514e-05
0.007801746237839706,0.001167403846538285,3.3542177175597136e-05
0.007150180655546893,0.0011711418282616317,3.4126813594297115e-05
0.006490909589594238,0.001174552100822917,3.4713237076568254e-05
0.005824533062851622,0.0011776309614860284,3.530128284214549e-05
0.005151681992844935,0.0011803750152499526,3.589078433632948e-05
0.004473016620336917,0.001182781189903248,3.648157338761779e-05
0.003789224731121881,0.0011848467502411128,3.7073480372653875e-05
0.003101019695772389,0.0011865693113478363,3.766633438805111e-05
0.0024091383563681168,0.0011879468508608714,3.825996342860329e-05
0.0017143387899403568,0.0011889777201474485,3.885419457135537e-05
0.0010173979760976042,0.001189660654338958,3.944885416497697e-05
0.00031910939294102595,0.0011899947811812176,4.004376802385701e-05
-0.0003797194381142363,0.0011899796286699244,4.06387616263198e-05
-0.0010782694414291705,0.0011896151314500386,4.1233660316349786e-05
-0.0017757124959438828,0.0011889016359656953,4.182828950820372e-05
-0.002471213951729243,0.001187839904353777,4.242247489328359e-05
-0.0031639351446325075,0.0011864311170796866,4.301604264864195e-05
-0.003853035903344254,0.0011846768743176924,4.36088196464913e-05
-0.0045376770485064674,0.0011825791960797297,4.420063366409065e-05
-0.005217022887415618,0.0011801405210957491,4.479131359338452e-05
-0.0058902437083261155,0.0011773637044468137,4.538068964977016e-05
-0.0065565182763834065,0.0011742520139506362,4.5968593579369526e-05
-0.00721503633132169,0.0011708091252987099,4.655485886418186e-05
-0.007865001085190159,0.001167039115944582,4.7139320924492686e-05
-0.008505631714326146,0.0011629464577447028,4.772181731791501e-05
-0.009136165832487305,0.0011585360083579993,4.830218793444068e-05
-0.009755861924363382,0.0011538130014187866,4.8880275186884876e-05
-0.010364001714416822,0.0011487830355090916,4.9455924196116846e-05
-0.01095989244632834,0.0011434520619689054,5.002898297048635e-05
-0.01154286905109125,0.0011378263715945505,5.059930257887721e-05
-0.012112296184420489,0.0011319125802856725,5.1166737316847264e-05
-0.012667570115979607,0.0011257176137105724,5.1731144865346325e-05
-0.013208120454476868,0.0011192486910679583,5.229238644154096e-05
-0.01373341169408421,0.001112513308030818,5.285032694131565e-05
-0.014242944568647472,0.001105519218965135,5.340483507306464e-05
-0.014736257200895837,0.0010982744185227492,5.395578348243661e-05
-0.015212926035261077,0.00109078712271371,5.450304886774572e-05
-0.015672566545836507,0.0010830657495684356,5.504651208581626e-05
-0.016114833716241016,0.001075118899502916,5.5586058248084097e-05
-0.016539422296194074,0.0010669553354998073,5.612157680683478e-05
-0.016946066849537436,0.0010585839632133744,5.665296163151307e-05
-0.0173345416179784,0.0010500138110964953,5.7180111075090536e-05
-0.01770466023122229,0.0010412540106341953,5.770292803052321e-05
-0.01805627529549045,0.001032313776752517,5.822131997736989e-05
-0.018389277889125765,0.001023202388456363,5.8735199018672106e-05
-0.018703596988504288,0.0010139291697369554,5.924448190822044e-05
-0.01899919884225205,0.0010045034707792664,5.9749090068349494e-05
-0.019276086307397123,0.000994934649491854,6.024894959841728e-05
-0.01953429815721287,0.0009852320533757016,6.0743991274134165e-05
-0.019773908367853626,0.0009754050017444349,6.12341505379142e-05
-0.019995025389443734,0.0009654627683051106,6.171936748042658e-05
-0.02019779140597437,0.000955414564106256,6.219958681352941e-05
-0.02038238158579609,0.0009452695208583134,6.267475783477055e-05
-0.020549003320505306,0.000935036674631738,6.314483438364306e-05
-0.020697895445931713,0.0009247249499401288,6.360977478978603e-05
-0.0208293274363973,0.0009143431442195465,6.406954181332595e-05
-0.020943598563735316,0.0009038999127195134,6.452410257756071e-05
-0.021041037015483457,0.0008934037538247087,6.497342849419677e-05
-0.02112199897039067,0.0008828629948282402,6.541749518136e-05
-0.02118686763143868,0.0008722857781777828,6.58562823746115e-05
-0.021236052215071695,0.0008616800482161552,6.628977383120998e-05
-0.021269986890499644,0.0008510535384397623,6.671795722787396e-05
-0.021289129657420906,0.0008404137593027822,6.71408240523096e-05
-0.02129396114724715,0.0008297679866016152,6.75583694887857e-05
-0.02128498333313611,0.0008191232504815194,6.797059229805648e-05
-0.021262718136547634,0.0008084863251140985,6.837749469195538e-05
-0.02122770592005976,0.0007978637190999466,6.87790822030089e-05
-0.02118050385554973,0.0007872616666560442,6.91753635494479e-05
-0.0211216841534117,0.0007766861196538039,6.956635049602536e-05
-0.02105183213490564,0.0007661427405817246,6.995205771108424e-05
-0.020971544129759247,0.0007556368965155584,7.033250262035856e-05
-0.020881425186597954,0.0007451736541864691,7.070770525803406e-05
-0.020782086593876734,0.0007347577762413504,7.107768811564102e-05
-0.02067414322073212,0.0007243937187876982,7.144247598939829e-05
-0.020558210698018824,0.0007140856303080105,7.180209582667221e-05
-0.02043490246792932,0.0007038373520165235,7.215657657225335e-05
-0.020304826735096964,0.0006936524197157669,7.250594901518642e-05
-0.020168583352972145,0.0006835340671937497,7.28502456369138e-05
-0.020026760677127824,0.0006734852311862247,7.318950046150879e-05
-0.019879932412981933,0.0006635085579136973,7.352374890878376e-05
-0.019728654481086585,0.0006536064111901801,7.385302765105973e-05
-0.019573461920581913,0.000643780882089763,7.417737447437972e-05
-0.01941486585145637,0.0006340338001467534,7.449682814493885e-05
-0.019253350517752777,0.0006243667460544512,7.481142828148916e-05
-0.01908937043508926,0.0006147810658162407,7.512121523445683e-05
-0.01892334766540898,0.0006052778862911161,7.542622997248368e-05
-0.01875566923958361,0.0005958581320648679,7.572651397707267e-05
-0.018586684745580152,0.000586522543568577,7.602210914598103e-05
-0.018416704098142517,0.0005772716963576463,7.631305770596258e-05
-0.018245995506543933,0.0005681060214564747,7.659940213541612e-05
-0.018074783659790934,0.0005590258266648909,7.688118509744646e-05
-0.017903248151569903,0.0005500313187120508,7.715844938379069e-05
-0.017731522167839645,0.0005411226261321984,7.743123787000174e-05
-0.01755969145715653,0.0005322998227259494,7.769959348221628e-05
-0.01738779359908549,0.0005235629514618889,7.796355917576324e-05
-0.017215817581886526,0.0005149120486666459,7.822317792579538e-05
-0.017043703698764165,0.0005063471683464832,7.847849273004866e-05
-0.016871343772987248,0.0004978684064785453,7.872954662375491e-05
-0.016698581724350563,0.0004894759251042109,7.89763827066506e-05
-0.016525214489732713,0.00048116997605069,7.921904418193933e-05
-0.01635099330782015,0.0004729509241013018,7.945757440697733e-05
-0.016175625373612883,0.00046481926943094353,7.969201695536038e-05
-0.015998775862933818,0.0004567756691218069,7.992241568999858e-05
-0.015820070320108983,0.0004488209575760462,8.014881484667304e-05
-0.01563909739364195,0.0004409561656476085,8.037125912747895e-05
-0.015455411897082681,0.00043318253832492733,8.058979380347209e-05
-0.015268538166902781,0.00042550155080893097,8.080446482575556e-05
-0.01507797368618131,0.00041791492284565994,8.101531894416921e-05
-0.014883192941545715,0.0004104246311887282,8.12224038326778e-05
-0.014683651479416205,0.0004030329200834877,8.142576822049586e-05
-0.014478790124720232,0.0003957423096824536,8.162546202793734e-05
-0.014268039321188985,0.0003885556023209763,8.18215365059382e-05
-0.014050823548779783,0.00038147588660348414,8.201404437816932e-05
-0.01382656577210865,0.00037450653927326204,8.22030399846385e-05
-0.013594691874502731,0.0003676512248616092,8.238857942567221e-05
-0.013354635036380947,0.0003609138931338883,8.257072070517108e-05
-0.013105840024479707,0.0003542987743686731,8.274952387204673e-05
-0.012847767368220929,0.00034781037252049795,8.292505115876902e-05
-0.012579897407634277,0.00034145345632653415,8.309736711598077e-05
-0.012301734201106794,0.0003352330484243489,8.32665387421685e-05
-0.012012809281124187,0.00032915441255379116,8.343263560741303e-05
-0.01171268524433848,0.0003232230389224255,8.359572997028208e-05
-0.011400959161779118,0.0003174446278208961,8.375589688696792e-05
-0.011077265797504076,0.00031182507158107527,8.391321431181841e-05
-0.010741280628332862,0.00030637043497461604,8.406776318845733e-05
-0.010392722660759838,0.0003010869341523429,8.421962753073907e-05
-0.010031357042271228,0.0002959809142265851,8.436889449283381e-05
-0.009656997464618702,0.00029105882559986264,8.451565442779043e-05
-0.00926950835868886,0.00028632719914403575,8.46600009339764e-05
-0.008868806885432005,0.0002817926203330055,8.480203088884566e-05
-0.008454864732942116,0.000277461702428412,8.494184446953602e-05
-0.008027709733079539,0.0002733410588119066,8.50795451598461e-05
-0.0075874273095889126,0.00026943727455123947,8.52152397431869e-05
-0.0071341617634602585,0.0002657568772829772,8.534903828114545e-05
-0.00666811739217272,0.00026230630749406896,8.548105407733971e-05
-0.006189559430511571,0.0002590918882883979,8.561140362628533e-05
-0.005698814794227837,0.00025611979473221305,8.574020654704047e-05
-0.005196272605793521,0.0002533960228822077,8.586758550144408e-05
-0.004682384484034269,0.0002509263586097508,8.599366609681707e-05
-0.004157664584504911,0.000248716346342616,8.611857677305516e-05
-0.0036226893819263136,0.0002467712578510082,8.624244867410356e-05
-0.0030780971871308075,0.0002450960612087439,8.63654155038685e-05
-0.0025245873881556747,0.00024369539006492227,8.648761336668691e-05
-0.0019629194002170336,0.0002425735133678291,8.660918059254509e-05
-0.0013939113053040644,0.0002417343056914488,8.673025754730991e-05
-0.0008184381624591901,0.000241181218324508,8.68509864283139e-05
-0.0002374299752735848,0.00024091725129007482,8.697151104571755e-05
0.00034813068937306833,0.0002409449264685997,8.709197659015722e-05
0.0009372114325352493,0.00024126626199907678,8.721252938727415e-05
0.00152873310452164,0.000241882748133341,8.733331663980725e-05
0.0021215732359725855,0.00024279532471846454,8.74544861580202e-05
0.0027145698152189817,0.00024400436048126244,8.757618607932014e-05
0.003306525402699974,0.0002455096342857422,8.769856457801189e-05
0.0038962115662505847,0.0002473103185279798,8.782176956621532e-05
0.004482373613411262,0.00024940496482289524,8.794594838705304e-05
0.005063735588680006,0.00025179149212341804,8.807124750128962e-05
0.0056390054957402526,0.0002544671773945231,8.81978121686691e-05
0.006206880697637992,0.0002574286489428676,8.832578612525345e-05
0.006766053442408775,0.0002606718824778793,8.845531125810864e-05
0.007315216458844852,0.00026419219995319274,8.85865272787164e-05
0.007853068568362974,0.0002679842712099947,8.871957139650719e-05
0.008378320264343906,0.00027204211841817144,8.885457799391423e-05
0.008889699217572966,0.00027635912328865067,8.899167830434093e-05
0.009385955672125018,0.00028092803701107514,8.913100009441586e-05
0.009865867698322296,0.000285740992853687,8.927266735188206e-05
0.010328246269253275,0.00029078952134558087,8.941679998043187e-05
0.010771940127345994,0.0002960645679447307,8.956351350275445e-05
0.01119584040863237,0.0003015565130787253,8.97129187730103e-05
0.011598884994436731,0.00030725519442949256,8.986512169988736e-05
0.01198006256308026,0.00031314993131887183,9.002022298132445e-05
0.012338416317988148,0.00031922955103913894,9.017831785191395e-05
0.012673047372805802,0.00032548241696183744,9.03394958439142e-05
0.012983117778885687,0.00033189645824976033,9.05038405627171e-05
0.013267853186041593,0.0003384592009909921,9.067142947752729e-05
0.013526545133270774,0.0003451578005708202,9.084233372791773e-05
0.01375855297074016,0.00035197907509682295,9.101661794683464e-05
0.01396330541717567,0.0003589095396938019,9.11943401005323e-05
0.014140301758402524,0.00036593544148769646,9.137555134582767e-05
0.014289112693939265,0.0003730427951007819,9.15602959049748e-05
0.014409380839482356,0.0003802174184841373,9.174861095837103e-05
0.014500820893820203,0.00038744496891746294,9.194052655522143e-05
0.014563219479484843,0.0003947109790107892,9.213606554220349e-05
0.014596434667242328,0.000402000892547471,9.233524351009305e-05
