acceleration,velocity,displacement
0.0015405412904291522,0.0,0.0
0.0020890290439968344,9.073925836064966e-07,2.2684814590162416e-10
0.002648861220499421,2.0918651497305608e-06,9.766625792358885e-10
0.0032193219273022287,3.5589109366809736e-06,2.389356600838772e-09
0.0037996586236326638,5.3136560744146965e-06,4.60749835361269e-09
0.004389083822065753,7.360841685839301e-06,7.77612279367619e-09
0.004986776988349096,9.704806888443013e-06,1.2042534937246768e-08
0.005591886620756106,1.2349472790719313e-05,1.7556104857037348e-08
0.006203532493762177,1.5298327569348885e-05,2.4468054947054398e-08
0.006820808054520686,1.8554412706419602e-05,3.293124001599652e-08
0.007442782964150136,2.2120310461087307e-05,4.309992080787325e-08
0.00806850578005543,2.59981326471387e-05,5.512953158492975e-08
0.008697006779660846,3.018951078706777e-05,6.917644244348137e-08
0.009327300928032932,3.4695587713991215e-05,8.539771706874611e-08
0.009958390991111203,3.951701069377725e-05,1.0395086667068822e-07
0.010589270794032843,4.465392614006326e-05,1.2499360087914835e-07
0.011218928621315448,5.010597599390033e-05,1.4868357641263925e-07
0.011846350752057394,5.587229583724354e-05,1.7517814437042522e-07
0.012470525118278536,6.195151480482753e-05,2.04634097030943e-07
0.013090445068799396,6.8341757351597e-05,2.3720741507004913e-07
0.01370511321450979,7.504064692242431e-05,2.730530161385545e-07
0.014313545323249884,8.204531155686423e-05,3.123245057583766e-07
0.014914774226370027,8.93523914442692e-05,3.5517393150866e-07
0.015507853697572146,9.695804842525475e-05,4.0175154147604097e-07
0.016091862267715706,0.00010485797741657671,4.5220554793649883e-07
0.016665906943249445,0.00011304741971931801,5.066818972204725e-07
0.01722912679817209,0.00012152117815467339,5.653240466889703e-07
0.017780696409616,0.0001302736339566204,6.282727497167938e-07
0.018319829107117973,0.0001392987653358039,6.956658495398999e-07
0.018845780007174826,0.0001485901676143771,7.676380827774452e-07
0.019357848807418084,0.00015814107481802533,8.443208933855458e-07
0.019855382317619755,0.00016794438259928478,9.258422577398733e-07
0.02033777670687043,0.00017799267235540732,1.0123265214785463e-06
0.020804479448245775,0.00018827823639418637,1.1038942486659447e-06
0.0212549909446622,0.00019879310399241337,1.2006620837625948e-06
0.021688865822601613,0.00020952906818422933,1.3027426268067553e-06
0.02210571388311381,0.00022047771311065818,1.4102443221304773e-06
0.022505200701385047,0.0002316304417567829,1.5232713608473376e-06
0.022887047867667834,0.00024297850389904614,1.6419235972612949e-06
0.023251032864961912,0.00025451302408220356,1.7662964792566073e-06
0.02359698858280936,0.0002662250294441464,1.896480992638195e-06
0.023924802470814757,0.0002781054772075524,2.0325636193011195e-06
0.024234415339715615,0.000290145281660185,2.1746263090180536e-06
0.02452581982291968,0.0003023353404508438,2.322746464545811e-06
0.024799058517181366,0.0003146665600358691,2.4769969396674893e-06
0.02505422182534803,0.00032712988012150145,2.637446049706832e-06
0.025291445525258974,0.00033971629695915323,2.8041575939769957e-06
0.02551090808753441,0.00035241688536235156,2.9771908895573718e-06
0.02571282776423417,0.0003652228193252937,3.156600815729283e-06
0.02589745947253246,0.00037812539113448536,3.342437868344228e-06
0.026065091502512888,0.0003911160288782467,3.534748223347411e-06
0.026216042083650422,0.0004041863122747875,3.7335738086356694e-06
0.02635065584714576,0.0004173279867574866,3.938952383393738e-06
0.02646930021971551,0.0004305329757742019,4.15091762402666e-06
0.026572361780351755,0.0004437933912742187,4.369499215788765e-06
0.026660242607857723,0.00045710154237127106,4.594722949200137e-06
0.02673335664536381,0.00047044994218457646,4.826610820339099e-06
0.02679212610724063,0.00048383131287272756,5.065181134103425e-06
0.02683697795160319,0.0004972385888874385,5.310448609543466e-06
0.026868340436820275,0.0005106649184845444,5.562424486386462e-06
0.026886639775311513,0.0005241036635375774,5.8211166318919925e-06
0.026892296896349813,0.0005375483977054927,6.08652964720276e-06
0.026885724332372667,0.0005509929030126732,6.358664972382302e-06
0.02686732324842691,0.0005644311649078732,6.637520989362438e-06
0.026837480637737315,0.0005778573658794142,6.92309312205926e-06
0.026796566705613502,0.0005912658777152519,7.215373932957927e-06
0.026744932459171172,0.0006046512525064481,7.514353215513352e-06
0.026682907513879476,0.0006180082124997108,7.820018081764892e-06
0.026610798123119745,0.0006313316389089606,8.13235304461706e-06
0.02652888543562637,0.0006446165597986472,8.451340094293963e-06
0.02643742398737906,0.0006578581371543985,8.776958768532225e-06
0.02633664043603636,0.0006710516532602524,9.109186216135889e-06
0.026226732544192985,0.0006841924965053098,9.447997253577278e-06
0.026107868412723317,0.0006972761467445389,9.793364414389741e-06
0.025980185961119253,0.0007102981603379995,1.0145257991160375e-05
0.025843792651064755,0.0007232541549910455,1.0503646069992636e-05
0.02569876545277098,0.0007361397945170044,1.086849455736965e-05
0.025545151058286208,0.0007489507736447687,1.1239767199410092e-05
0.02538296634932302,0.000761682802996671,1.1617425593570452e-05
0.025212199126976243,0.0007743315943657458,1.2001429192911057e-05
0.025032809106858473,0.0007868928464242045,1.2391735303108544e-05
0.024844729176602545,0.0007993622309950697,1.2788299072463362e-05
0.024647866904907396,0.0008117353800154472,1.3191073475215991e-05
0.024442106283955743,0.000824007873312663,1.360000928854802e-05
0.024227309681864265,0.000836175227304118,1.4015055063702215e-05
0.0240033199791008,0.0008482328847193593,1.4436157091708084e-05
0.023769962861082662,0.0008601762054294052,1.4863259364245275e-05
0.023527049237286195,0.0008720004584539974,1.5296303530216126e-05
0.023274377755095752,0.0008837008152020929,1.5735228848630148e-05
0.023011737375154013,0.0008952723439846553,1.6179972138426835e-05
0.022738909975612853,0.0009067100058223471,1.6630467725878585e-05
0.022455672955509626,0.0009180086515551277,1.7086647390222955e-05
0.02216180181160317,0.0009291630202469058,1.7548440308173462e-05
0.02185707266799514,0.0009401677388668054,1.801577299795189e-05
0.021541264744281106,0.0009510173232198744,1.848856926347356e-05
0.0212141627543815,0.0009617061800945401,1.8966750139302164e-05
0.020875559231208894,0.0009722286105909377,1.9450233836973532e-05
0.020525256771096723,0.000982578814591514,1.9938935693269144e-05
0.020163070189498592,0.000992750896331663,2.043276812099994e-05
0.019788828579545236,0.0010027388710239238,2.0931640562838835e-05
0.01940237726765668,0.0010125366724857243,2.143545944871625e-05
0.019003579662875067,0.0010221381617183571,2.1944128157267268e-05
0.018592318997395788,0.0010315371363834249,2.2457546981792713e-05
0.01816849995610546,0.0010407273411218003,2.297561310116902e-05
0.017732050194346947,0.0010497024786594133,2.349822055611432e-05
0.01728292174621838,0.0010584562216445546,2.4025260231190313e-05
0.016821092329766484,0.001066982225163551,2.455661984289234e-05
0.0163465665588159,0.0010752741398856965,2.509218393415465e-05
0.01585937707207907,0.0010833256257934203,2.5631833875574428e-05
0.015359585588355488,0.001091130366458529,2.6175447873637414e-05
0.014847283893189305,0.001098682083828915,2.6722900986209274e-05
0.014322594758832968,0.0011059745534919207,2.7274065145539482e-05
0.013785672797196377,0.001113001620380928,2.7828809189007696e-05
0.01323670524415451,0.0011197572148912657,2.8386998897825744e-05
0.012675912672125486,0.0011262353693703357,2.8948497043891144e-05
0.012103549624519783,0.001132430234944497,2.9513163444969852e-05
0.011519905160350695,0.0011383360986407147,3.0080855028366156e-05
0.010925303291968605,0.0011439474007537945,3.0651425903214784e-05
0.010320103296141298,0.001149258752400822,3.1224727441503435e-05
0.0097046998788271,0.0011542649531945642,3.180060836790228e-05
0.00907952317400065,0.0011589610089577712,3.237891485844036e-05
0.00844503855540412,0.0011633421493901224,3.2959490648027335e-05
0.007801746239002941,0.001167403845588724,3.354217714677205e-05
0.007150180656909344,0.0011711418273127022,3.4126813564997405e-05
0.006490909591111783,0.0011745520998747074,3.471323704679426e-05
0.005824533064481438,0.0011776309605386057,3.530128281189759e-05
0.0051516819945390075,0.0011803750143033608,3.5890784305608086e-05
0.004473016622040747,0.0011827811889575058,3.6481573356423305e-05
0.0037892247327835625,0.001184846749296212,3.7073480340986735e-05
0.0031010196973439118,0.0011865693104037439,3.766633435591173e-05
0.0024091383578027665,0.0011879468499175305,3.8259963395992045e-05
0.001714338791195314,0.00118897771920478,3.885419453827262e-05
0.0010173979771378342,0.0011896606533968632,3.944885413142303e-05
0.0003191093937418752,0.0011899947802395832,4.0043767989832146e-05
-0.0003797194375683384,0.0011899796277286265,4.06387615918242e-05
-0.0010782694411382238,0.00118961513050895,4.1233660281383595e-05
-0.0017757124958962085,0.0011889016350246913,4.1828289472767005e-05
-0.0024712139519053773,0.0011878399034127409,4.242247485737636e-05
-0.003163935145001307,0.0011864311161385141,4.301604261226418e-05
-0.0038530359038603038,0.0011846768733762988,4.360881960964288e-05
-0.0045376770491126735,0.0011825791951380555,4.4200633626771464e-05
-0.005217022888048399,0.0011801405201537652,4.479131355559442e-05
-0.0058902437089063155,0.0011773637035045266,4.538068961150899e-05
-0.006556518276818899,0.0011742520130080952,4.596859354063715e-05
-0.007215036331511262,0.0011708091243560128,4.655485882497818e-05
-0.007865001085032599,0.0011670391150018769,4.713932088481765e-05
-0.00850563171372024,0.0011629464568021887,4.772181727776867e-05
-0.009136165831329245,0.0011585360074159263,4.8302187893823194e-05
-0.009755861922555845,0.001153813000477455,4.888027514579654e-05
-0.010364001711872862,0.0011487830345688478,4.9455924154558116e-05
-0.010959892442966208,0.001143452061030138,5.002898292845786e-05
-0.011542869046838272,0.001137826370657687,5.059930253637982e-05
-0.012112296179201398,0.0011319125793511772,5.116673727388204e-05
-0.012667570109720432,0.0011257176127789468,5.173114482191457e-05
-0.013208120447106234,0.00111924869013974,5.229238639764424e-05
-0.013733411685532038,0.0011125133071065805,5.2850326896955825e-05
-0.014242944558841087,0.0011055192180454872,5.340483502824384e-05
-0.014736257189763863,0.001098274417608336,5.39557834371573e-05
-0.015212926022739921,0.00109078712180521,5.450304882201069e-05
-0.015672566531871657,0.0010830657486665572,5.504651203962863e-05
-0.01611483370078445,0.0010751188986083931,5.5586058201447364e-05
-0.01653942227920166,0.0010669553346133965,5.612157675975281e-05
-0.016946066830978018,0.0010585839623358515,5.6652961583990126e-05
-0.017334541597832497,0.001050013810228649,5.718011102713125e-05
-0.0177046602094821,0.0010412540097768203,5.770292798213262e-05
-0.018056275272150774,0.001032313775906412,5.822131992855343e-05
-0.018389277864187873,0.0010232023876223274,5.873519896943561e-05
-0.01870359696197725,0.001013929168915786,5.924448185857014e-05
-0.018999198814156612,0.0010045034699717526,5.974909001829202e-05
-0.01927608627775532,0.0009949346486987747,6.024894954795965e-05
-0.019534298126042852,0.0009852320525978251,6.07439912232838e-05
-0.019773908335176137,0.0009754050009825204,6.12341504866789e-05
-0.01999502535527692,0.0009654627675599072,6.17193674288145e-05
-0.02019779137033378,0.0009554145633785045,6.21995867615491e-05
-0.020382381548694692,0.0009452695201487473,6.267475778243091e-05
-0.020549003281963837,0.0009350366739410827,6.314483433095337e-05
-0.020697895405981298,0.0009247249492690964,6.360977473675592e-05
-0.020829327395079443,0.0009143431435688313,6.406954175996539e-05
-0.020943598521107092,0.0009038999120897847,6.452410252388005e-05
-0.021041036971620103,0.0008934037532166029,6.497342844020664e-05
-0.021121998925382995,0.0008828629942423521,6.541749512707138e-05
-0.021186867585395664,0.0008722857776146574,6.585628232003564e-05
-0.021236052168119177,0.0008616800476762787,6.628977377635836e-05
-0.02126998684277255,0.0008510535379235558,6.671795717275832e-05
-0.021289129609055463,0.0008404137588105988,6.714082399694186e-05
-0.02129396109837828,0.0008297679861337403,6.755836943317794e-05
-0.021284983283902634,0.0008191232500381701,6.797059224222092e-05
-0.021262718087088375,0.0008084863246954223,6.837749463590432e-05
-0.021227705870504456,0.0007978637187060242,6.877908214675469e-05
-0.021180503806022925,0.0007872616662868923,6.917536349300292e-05
-0.02112168410403665,0.0007766861193093774,6.956635043940199e-05
-0.02105183208580949,0.0007661427402619159,6.995205765429481e-05
-0.020971544081080814,0.0007556368962201934,7.033250256341534e-05
-0.020881425138476066,0.0007451736539153042,7.070770520094922e-05
-0.02078208654645151,0.0007347577759940723,7.107768805842656e-05
-0.020674143174146276,0.0007243937185639229,7.144247593206605e-05
-0.02055821065242027,0.0007140856301072813,7.180209576923385e-05
-0.02043490242347116,0.0007038373518383084,7.215657651472025e-05
-0.020304826691938775,0.0006936524195594559,7.250594895756968e-05
-0.020168583311280002,0.0006835340670586511,7.28502455792242e-05
-0.020026760637070398,0.0006734852310715635,7.318950040375675e-05
-0.0198799323747253,0.0006635085578186146,7.35237488509793e-05
-0.01972865444479033,0.0006536064111137357,7.385302759321238e-05
-0.019573461886406924,0.0006437808820309363,7.417737441649856e-05
-0.019414865819558345,0.0006340338001044449,7.44968280870324e-05
-0.019253350488286115,0.0006243667460274838,7.481142822356538e-05
-0.019089370408199278,0.0006147810658033624,7.51212151765231e-05
-0.018923347641233212,0.0006052778862910043,7.542622991454669e-05
-0.018755669218245317,0.0005958581320761348,7.572651391913847e-05
-0.018586684727190918,0.0005865225435897756,7.602210908805495e-05
-0.01841670408279835,0.0005772716963872783,7.631305764804922e-05
-0.018245995494323985,0.0005681060214929978,7.659940207751929e-05
-0.018074783650757483,0.0005590258267067274,7.688118503956922e-05
-0.01790324814576447,0.0005500313187575969,7.71584493259353e-05
-0.017731522165282988,0.0005411226261798351,7.743123781216965e-05
-0.017559691457843463,0.0005322998227740535,7.769959342440813e-05
-0.017387793602978385,0.000523562951508848,7.796355911797886e-05
-0.017215817588924393,0.0005149120487108723,7.822317786803379e-05
-0.017043703708865265,0.0005063471683864249,7.847849267230812e-05
-0.01687134378604649,0.0004978684065126969,7.87295465660329e-05
-0.016698581740239485,0.0004894759251311254,7.897638264894385e-05
-0.016525214508306,0.000481169976068989,7.921904412424388e-05
-0.016350993328919504,0.00047295092410968263,7.945757434928854e-05
-0.016175625397074823,0.0004648192694281841,7.969201689767301e-05
-0.015998775888588366,0.0004567756691067683,7.992241563230674e-05
-0.015820070347777083,0.00044882095754767695,8.014881478897035e-05
-0.015639097423140652,0.0004409561656049475,8.03712590697585e-05
-0.015455411928230337,0.00043318253826710477,8.058979374572652e-05
-0.015268538199513841,0.00042550155073516874,8.080446476797708e-05
-0.015077973720068933,0.00041791492275527304,8.10153188863497e-05
-0.01488319297652695,0.00041042463108112404,8.12224037748088e-05
-0.014683651515309398,0.00040303291995816493,8.142576816256862e-05
-0.014478790161346324,0.000395742309539001,8.162546196994291e-05
-0.014268039358381888,0.000388555602159069,8.182153644786743e-05
-0.014050823586387687,0.0003814758864228766,8.201404432001291e-05
-0.013826565809992716,0.0003745065390737815,8.220303992638708e-05
-0.013594691912537094,0.00036765122464314906,8.238857936731631e-05
-0.013354635074451419,0.0003609138928964019,8.25707206467012e-05
-0.01310584006247729,0.0003542987741121697,8.274952381345334e-05
-0.012847767406037923,0.00034781037224504094,8.292505110004264e-05
-0.012579897445164277,0.00034145345603224037,8.309736705711195e-05
-0.012301734238248587,0.00033523304811138716,8.326653868314786e-05
-0.012012809317775262,0.0003291544122223812,8.343263554823131e-05
-0.011712685280395025,0.00032322303857283864,8.35957299109301e-05
-0.011400959197137323,0.00031744462745345557,8.375589682743668e-05
-0.011077265832058833,0.00031182507119615656,8.391321425209909e-05
-0.01074128066197387,0.00030637043457264836,8.40677631285413e-05
-0.010392722693375505,0.000301086933733811,8.42196274706179e-05
-0.010031357073756441,0.00029598091379202804,8.436889443249937e-05
-0.009656997494874841,0.0002910588251498702,8.451565436723484e-05
-0.009269508387619899,0.0002863271986792465,8.466000087319211e-05
-0.008868806912945807,0.0002817926198541051,8.480203082782545e-05
-0.008454864758953035,0.00027746170193613043,8.4941844408273e-05
-0.008027709757501928,0.0002733410583070167,8.507954509833378e-05
-0.007587427332337126,0.0002694372740345569,8.521523968141918e-05
-0.007134161784455136,0.0002657568767553588,8.534903821911666e-05
-0.006668117411337697,0.0002623063069564106,8.54810540150446e-05
-0.006189559447768786,0.000259091887741634,8.561140356371911e-05
-0.0056988148094916456,0.00025611979417731887,8.574020648419884e-05
-0.005196272618978276,0.0002533960223202014,8.586758543832322e-05
-0.004682384495063408,0.00025092635804169097,8.59936660334137e-05
-0.004157664593309658,0.0002487163457695977,8.611857670936652e-05
-0.003622689388452162,0.00024677125727415723,8.624244861012746e-05
-0.003078097191329742,0.00024509606062921176,8.63654154396033e-05
-0.0025245873899939525,0.00024369538948388085,8.648761330213157e-05
-0.0019629193996673995,0.00024257351278646552,8.660918052769916e-05
-0.001393911302340562,0.00024173430511096353,8.673025748217353e-05
-0.000818438157061053,0.0002411812177461131,8.68509863628878e-05
-0.0002374299674304281,0.00024091725071499024,8.697151098000307e-05
0.0003481306996547613,0.00024094492589804632,8.709197652415632e-05
0.0009372114452308294,0.00024126626143426772,8.72125293209894e-05
0.0015287331195934818,0.00024188274757547381,8.733331657324184e-05
0.0021215732533843607,0.00024279532416871829,8.745448609117788e-05
0.0027145698349356575,0.00024400435994079828,8.757618601220526e-05
0.0033065254246878147,0.00024550963375570415,8.769856451062939e-05
0.0038962115904758532,0.0002473103180094951,8.78217694985707e-05
0.004482373639838923,0.0002494049643170738,8.794594831915234e-05
0.005063735617268535,0.00025179149163135066,8.807124743313945e-05
0.005639005526437743,0.00025446717691727724,8.81978121002766e-05
0.006206880730379564,0.0002574286484814816,8.832578605662629e-05
0.0067660534771230565,0.00026067188203335724,8.8455311189255e-05
0.007315216495453985,0.0002641921995265015,8.858652720964495e-05
0.007853068606785205,0.0002679842708020613,8.87195713272271e-05
0.008378320304494888,0.00027204211802988134,8.885457792443507e-05
0.00888969925936705,0.00027635912292084684,8.899167823467276e-05
0.009385955715481745,0.00028092803666455903,8.913100002456912e-05
0.009865867743162504,0.0002857409925292201,8.927266728186756e-05
0.010328246315493906,0.0002907895210438842,8.941679991026083e-05
0.010771940174901398,0.000296064567666483,8.956351343243842e-05
0.011195840457411704,0.00030155651282456127,8.971291870256118e-05
0.011598885044332284,0.00030725519419999727,8.986512162931732e-05
0.01198006261396745,0.0003131499311145722,9.002022291064596e-05
0.012338416369730718,0.00031922955086049673,9.017831778113973e-05
0.012673047425262304,0.000325482416809245,9.033949577305716e-05
0.01298311783190948,0.00033189645812353795,9.050384049179035e-05
0.013267853239473062,0.0003384592008913836,9.067142940654408e-05
0.013526545186937328,0.0003451578004979862,9.084233365689142e-05
0.013758553024461422,0.0003519790750508359,9.101661787577863e-05
0.013963305470764775,0.00035890953967464246,9.119434002946e-05
0.014140301811664821,0.0003659354414952499,9.137555127475248e-05
0.014289112746678809,0.00037304279513483576,9.156029583390999e-05
0.014409380891499303,0.0003802174185443803,9.174861088732979e-05
0.014500820944908226,0.00038744496900348214,9.194052648421675e-05
0.014563219529436315,0.00039471097912206825,9.213606547124815e-05
0.014596434715841837,0.0004020008926833878,9.23352434391995e-05
