acceleration,velocity,displacement
0.0017988040267815392,0.0,0.0
0.002330818895364867,1.0324057305366016e-06,2.581014326341504e-10
0.0028725832260103985,2.333256260880418e-06,1.0995169304884052e-09
0.00342343914452318,3.907261853513812e-06,2.659646459086963e-09
0.003982703861801906,5.758797605095083e-06,5.076161323739187e-09
0.004549671144910595,7.891891356773208e-06,8.488833564206261e-09
0.005123612904830336,1.031021236920844e-05,1.3039359495701674e-08
0.005703780889196758,1.3017060817715214e-05,1.8871177792432586e-08
0.006289408470144072,1.6015358157550423e-05,2.6129282536248994e-08
0.006879712519213804,1.9307638404889892e-05,3.4960031676859075e-08
0.007473895363054816,2.2896040375457046e-05,4.551095137194581e-08
0.008071146815831372,2.6782300920178592e-05,5.793053669585472e-08
0.008670646286316488,3.096774919571556e-05,7.236804922482826e-08
0.009271564958757087,3.5453302006983956e-05,8.897331202550314e-08
0.009873068046156388,4.0239460258212326e-05,1.0789650259180221e-07
0.01047431711351739,4.532630654813077e-05,1.29287944293388e-07
0.011074472467100412,5.071350394328522e-05,1.53297896916242e-07
0.011672695604000017,5.640029596106033e-05,1.800763468923284e-07
0.012268151713711367,6.238550779048817e-05,2.0977279783021552e-07
0.012860012220428919,6.866754877402324e-05,2.4253606197134335e-07
0.013447457351522132,7.5244416167011e-05,2.7851405320660193e-07
0.014029678713715722,8.211370018332045e-05,3.178535822941848e-07
0.014605881855391882,8.927259032559736e-05,3.607001549214142e-07
0.015175288792759777,9.671788298763528e-05,4.071977732497224e-07
0.015737140479316625,0.00010444599030565438,4.574887415730448e-07
0.016290699200208297,0.00011245295022553561,5.117134767058423e-07
0.01683525087434435,0.00012073443774417378,5.700103236982696e-07
0.017370107247324712,0.00012928577727459105,6.325153774529609e-07
0.01789460795840401,0.00013810195607602324,6.993623107906145e-07
0.018408122465581038,0.0001471776386820195,7.706822094801252e-07
0.018910051814500624,0.00015650718225203991,8.4660341471364e-07
0.019399830238481002,0.0001660846527652853,9.272513734679714e-07
0.01987692657822015,0.0001759038419694606,1.012748497151658e-06
0.02034084551092828,0.00018595828499174771,1.1032140288919601e-06
0.02079112858003232,0.00019624127851448786,1.198763919768519e-06
0.021227355018278597,0.0002067458994140656,1.2995107142506575e-06
0.0216491423586492,0.00021746502375829754,1.4055634450437484e-06
0.02205614682866502,0.00022839134605512609,1.5170275374971042e-06
0.022448063524568334,0.00023951739864343442,1.6340047236717444e-06
0.022824626363393226,0.0002508355711154248,1.756592966111459e-06
0.023185607813163943,0.0002623381296595641,1.8848863913052063e-06
0.0235308184037798,0.00027401723621380003,2.0189752327735473e-06
0.023860106023543107,0.00028586496732063075,2.158945783657155e-06
0.024173355009020372,0.00029787333257877164,2.304880358632006e-06
0.02447048503910462,0.00031003429259080287,2.4568572649243994e-06
0.024751449846441953,0.0003223397763121895,2.6149507821501475e-06
0.02501623576014838,0.0003347816977138371,2.7792311506566544e-06
0.02526486009313055,0.00034735197167715684,2.949764568004403e-06
0.025497369387116397,0.00036004252904721856,3.1266131931854966e-06
0.025713837529656523,0.0003728453307764118,3.309835158141404e-06
0.025914363760079218,0.00038575238109884573,3.4994845861102184e-06
0.026099070584283332,0.0003987557396849364,3.695611616306164e-06
0.026268101619654368,0.0004118475327359208,3.898262434411378e-06
0.026421619390652358,0.0004250199629884975,4.1074793083424825e-06
0.026559803093563372,0.0004382653186095514,4.323300628741995e-06
0.02668284634703307,0.0004515759809697005,4.545760953636808e-06
0.026790954944200047,0.00046494443129250877,4.77489105670236e-06
0.02688434462181476,0.00047836325618401247,5.0107179785714905e-06
0.026963238860678695,0.0004918251520546358,5.253265080631153e-06
0.02702786672913845,0.0005053229284520901,5.502552100757834e-06
0.027078460778772913,0.0005188495103290679,5.758595210453124e-06
0.027115255000547768,0.000532397939273898,6.021407072853866e-06
0.027138482851080246,0.000545961373736805,6.290996901106542e-06
0.027148375361282014,0.0005595330882898957,6.5673705166132165e-06
0.027145159341328298,0.0005731064719655482,6.850530406677078e-06
0.02712905569539919,0.0005866750257247301,7.140475781099647e-06
0.027100277857063575,0.0006002323591128458,7.437202627309041e-06
0.02705903035280265,0.0006137721861653124,7.740703763628581e-06
0.027005507498517833,0.0006272883206281425,8.050968890326945e-06
0.026939892233049267,0.0006407746705610342,8.367984638124239e-06
0.026862355093505604,0.000654225232392673,8.691734613862666e-06
0.02677305333788572,0.0006676340845005208,9.022199443085964e-06
0.02667213021932603,0.0006809953803898237,9.35935680930855e-06
0.026559714413662658,0.0006943033415480708,9.703181489793023e-06
0.02643591959947302,0.0007075522500513547,1.0053645387692878e-05
0.026300844189309534,0.0007207364409985503,1.0410717560455355e-05
0.026154571212429215,0.000733850294848985,1.0774364244417238e-05
0.02599716835152062,0.0007468882297399725,1.1144548875564477e-05
0.02582868813750496,0.0007598446938622289,1.1521232106465028e-05
0.025649168306251947,0.0007727141579731682,1.1904371819423878e-05
0.02545863231887763,0.0007854911081294505,1.2293923135949532e-05
0.025257090043736392,0.000798170038720104,1.2689838422661921e-05
0.02504453859403354,0.0008107454458795465,1.3092067293811834e-05
0.024820963311019687,0.0008232118213558098,1.3500556610620673e-05
0.024586338879908798,0.0008355636469035419,1.3915250477685512e-05
0.024340630564082574,0.0008477953892645398,1.4336090236727532e-05
0.024083795542130637,0.0008599014957910931,1.476301445799144e-05
0.02381578433115223,0.0008718763907594138,1.5195958929629068e-05
0.02353654227854243,0.0008837144724118375,1.5634856645421882e-05
0.02324601110359841,0.0008954101107573727,1.6079637791214183e-05
0.02294413047046155,0.0009069576461508877,1.653022973044125e-05
0.022630839575361817,0.0009183513886623435,1.6986556989144558e-05
0.022306078733062996,0.0009295856182394497,1.7448541240870007e-05
0.021969790949942277,0.000940654585660201,1.791610129184492e-05
0.021621923474436377,0.0009515525142662956,1.8389153066826544e-05
0.02126242931873508,0.0009622736024645885,1.8867609596009265e-05
0.020891268747225102,0.0009728120269810785,1.9351381003370683e-05
0.020508410726421646,0.0009831619468494903,1.9840374496828327e-05
0.020113834329880672,0.0009933175081135658,2.033449436056909e-05
0.019707530091604402,0.001003272849218937,2.0833641949902217e-05
0.019289501302790297,0.0010130221070675358,2.1337715688973836e-05
0.018859765248050477,0.001022559423705246,2.1846611071667033e-05
0.018418354377689142,0.001031878953611681,2.2360220665996265e-05
0.01796531741280078,0.0010409748715593033,2.287843412228901e-05
0.017500720380740752,0.0010498413810076886,2.3401138185430758e-05
0.0170246475801547,0.0010584727229979126,2.3928216711432157e-05
0.016537202476949994,0.0010668631855121889,2.445955068855968e-05
0.01603850853435167,0.0010750071132650143,2.4995018263253984e-05
0.015528709980753745,0.0010828989178937906,2.5534494771043685e-05
0.015007972518293044,0.0010905330885185524,2.607785277264677e-05
0.014476483973261414,0.001097904202641441,2.6624962095436767e-05
0.013934454887863264,0.0011050069373567221,2.717568988043631e-05
0.013382119051797738,0.0011118360808416374,2.77299006349859e-05
0.012819733971571394,0.0011183865440974796,2.8287456291220677e-05
0.012247581274830914,0.0011246533729090801,2.8848216270472318e-05
0.011665967045430176,0.0011306317599891454,2.9412037553696873e-05
0.011075222082353703,0.0011363170572710913,2.9978774758011933e-05
0.010475702073000063,0.0011417047883099298,3.054828021940719e-05
0.0098677876700586,0.0011467906607456944,3.112040408167109e-05
0.00925188446143734,0.0011515705787785685,3.169499439155216e-05
0.008628422822871143,0.0011560406555996456,3.227189720014671e-05
0.007997857642208651,0.0011601972257159155,3.2850956670475605e-05
0.007360667903995065,0.0011640368571024665,3.34320151911802e-05
0.006717356124674023,0.0011675563631096339,3.401491349623322e-05
0.0060684476327968915,0.0011707528140490015,3.459949079052288e-05
0.005414489693510291,0.0011736235483805783,3.518558488113027e-05
0.004756050480949646,0.0011761661834241933,3.577303231408146e-05
0.004093717905639978,0.0011783786255208407,3.636166851631772e-05
0.0034280983075278297,0.0011802590795741328,3.6951327942591464e-05
0.002759815028598935,0.0011818060579081645,3.754184422696204e-05
0.002089506881506636,0.0011830183883856909,3.81330503385355e-05
0.0014178265310577673,0.001183895221738832,3.872477874106663e-05
0.0007454388043699039,0.001184436038072689,3.931686155601951e-05
7.30189439283336e-05,0.0011846406525097635,3.9909130728665123e-05
-0.0005987491839506662,0.0011845092199497579,4.0501418196780005e-05
-0.0012691749144122506,0.0011840422389251671,4.1093556061498734e-05
-0.0019375626337159474,0.0011832405545381351,4.168537675986456e-05
-0.002603213644932155,0.0011821053604684731,4.227671323861621e-05
-0.0032654280424447573,0.001180638200046629,4.286739912874499e-05
-0.003923506590064674,0.0011788409663885016,4.345726892035377e-05
-0.0045767526002190384,0.0011767159015909307,4.404615813734863e-05
-0.005224473813700887,0.0011742655949874507,4.463390351149323e-05
-0.005865984279588838,0.0011714929804641282,4.5220343155356124e-05
-0.0065006062339743416,0.0011684013328357374,4.580531673368109e-05
-0.007127671975118252,0.0011649942632834642,4.6388665632710894e-05
-0.007746525731670944,0.001161275713856767,4.697023312699595e-05
-0.00835652551850654,0.0011572499510442225,4.75498645432212e-05
-0.008957044970978439,0.0011529215584218512,4.812740742058772e-05
-0.009547475144457718,0.0011482954283929922,4.870271166729143e-05
-0.010127226263812758,0.0011433767530409245,4.927562971264991e-05
-0.010695729407740225,0.0011381710141230362,4.98460166544409e-05
-0.011252438114369094,0.001132683972242509,5.0413730401032286e-05
-0.011796829895949002,0.0011269216552399295,5.0978631807902896e-05
-0.01232840765150079,0.0011208903458530671,5.1540584808176146e-05
-0.012846700967189394,0.0011145965686983946,5.209945653681401e-05
-0.013351267295036868,0.0011080470766328381,5.265511744814682e-05
-0.013841693001194076,0.0011012488365587803,5.320744142644472e-05
-0.014317594275537134,0.0010942090147395976,5.3756305889269316e-05
-0.014778617895150047,0.0010869349616969258,5.4301591883378444e-05
-0.015224441835978072,0.0010794341967641438,5.484318417299371e-05
-0.01565477572973891,0.0010717143923727145,5.538097132027793e-05
-0.016069361167515103,0.001063783358148401,5.591484575790821e-05
-0.016467971856729175,0.0010556490248923398,5.644470385366839e-05
-0.01685041364331659,0.0010473194285173283,5.697044596702081e-05
-0.01721652441438486,0.001038802694002903,5.749197649765087e-05
-0.01756617389751923,0.001030107019424927,5.800920392600783e-05
-0.017899263371316126,0.0010212406601077184,5.852204084589099e-05
-0.01821572529909959,0.0010122119129401144,5.9030403989152944e-05
-0.018515522895258634,0.0010030291008915249,5.953421424261085e-05
-0.0187986496314975,0.0009937005577598359,6.003339665727369e-05
-0.019065128688559863,0.0009842346131798214,6.052788045000861e-05
-0.019315012357699658,0.0009746395779182566,6.1017598997783126e-05
-0.01954838139563794,0.0009649237294799221,6.150248982463267e-05
-0.019765344336249432,0.0009550952980469503,6.198249458151439e-05
-0.019966036761019875,0.0009451624527726329,6.245755901921929e-05
-0.02015062052846863,0.0009351332884502607,6.292763295452502e-05
-0.02031928296074744,0.0009250158125779567,6.339267022978207e-05
-0.020472235984467336,0.000914817932841653,6.385262866613697e-05
-0.020609715223130157,0.0009045474450397537,6.430747001060732e-05
-0.020731979040185165,0.0008942120214739248,6.475715987723574e-05
-0.020839307533816076,0.0008838191998304244,6.520166768256183e-05
-0.020932001485734434,0.0008733763725755369,6.564096657566331e-05
-0.021010381265601168,0.000862890776887703,6.607503336302913e-05
-0.021074785690332828,0.0008523694851487194,6.650384842853824e-05
-0.021125570834778944,0.0008418193960174415,6.692739564882977e-05
-0.02116310878866478,0.0008312472261115806,6.734566230436203e-05
-0.02118778635484052,0.0008206595023257043,6.775863898647134e-05
-0.021200003685311528,0.0008100625548156663,6.816631950075669e-05
-0.02120017285249363,0.000799462510681215,6.856870076713091e-05
-0.021188716352957035,0.0007888652883798524,6.896578271689618e-05
-0.021166065539127945,0.0007782765929068311,6.935756818721785e-05
-0.021132658972639506,0.0007677019117788892,6.974406281338928e-05
-0.021088940692973044,0.0007571465118624861,7.012527491929963e-05
-0.02103535839792261,0.0007466154370897621,7.05012154065377e-05
-0.020972361537581356,0.0007361135071058861,7.087189764258661e-05
-0.020900399329632075,0.0007256453168890827,7.123733734858535e-05
-0.020819918709261986,0.0007152152373793592,7.159755248715246e-05
-0.020731362231209003,0.0007048274171442415,7.195256315078336e-05
-0.020635165943700257,0.0006944857851005141,7.230239145134455e-05
-0.020531757254448668,0.0006841940543009769,7.264706141119492e-05
-0.020421552807587406,0.0006739557267854678,7.298659885646653e-05
-0.020304956388257932,0.0006637740994865065,7.332103131303452e-05
-0.020182356869168173,0.00065365227117215,7.365038790569918e-05
-0.020054126211976494,0.0006435931504018637,7.397469926109268e-05
-0.01992061753626358,0.0006335994644648037,7.429399741480934e-05
-0.019782163269415006,0.000623673769263384,7.460831572324139e-05
-0.019639073391315817,0.0006138184600982013,7.491768878058178e-05
-0.019491633787260355,0.0006040357833035573,7.522215234143221e-05
-0.019340104721149144,0.0005943278486764549,7.552174324942721e-05
-0.019184719439360676,0.0005846966426363275,7.58164993722554e-05
-0.01902568291453887,0.0005751440420478526,7.610645954342644e-05
-0.01886317073870562,0.0005656718286345414,7.639166351109704e-05
-0.018697328176305497,0.0005562817039057886,7.667215189423212e-05
-0.018528269389101435,0.0005469753045144369,7.694796614633718e-05
-0.01835607684497641,0.0005377542179559174,7.721914852695477e-05
-0.01818080092092902,0.0005286199985144411,7.748574208107235e-05
-0.0180024597079986,0.0005195741833572092,7.774779062654027e-05
-0.017821039023361785,0.0005106183086743691,7.800533874954817e-05
-0.01763649263370453,0.0005017539257601024,7.825843180815679e-05
-0.017448742694269347,0.000492982616928109,7.850711594382884e-05
-0.017257680408845642,0.0004843060111523302,7.875143810084895e-05
-0.017063166915951528,0.0004757257993211309,7.899144605346732e-05
-0.016865034404815404,0.00046724374899093915,7.922718844054533e-05
-0.016663087462252486,0.00045886171852417215,7.94587148074241e-05
-0.016457104648583347,0.0004505816704964632,7.968607565467927e-05
-0.01624684029685185,0.00044240568426010435,7.99093224933684e-05
-0.016032026525097345,0.00043433596755461704,8.012850790632209e-05
-0.015812375447359396,0.00042637486706150287,8.034368561497613e-05
-0.015587581566090872,0.0004185248778081403,8.055491055119354e-05
-0.01535732432700082,0.00041078865133486737,8.07622389334793e-05
-0.015121270816426216,0.00040316900254901063,8.096572834695026e-05
-0.014879078580563341,0.00039566891519976326,8.116543782638746e-05
-0.014630398544235425,0.0003882915459185636,8.136142794166704e-05
-0.014374878004685496,0.0003810402267813334,8.155376088484201e-05
-0.014112163673953999,0.0003739184663616735,8.174250055812776e-05
-0.013841904742483514,0.0003669299492575641,8.192771266203257e-05
-0.013563755936884707,0.000360078534087722,8.210946478286889e-05
-0.013277380546923054,0.0003533682499667701,8.22878264788825e-05
-0.01298245340076525,0.00034680329147984804,8.246286936424415e-05
-0.012678663772632479,0.0003403880121864986,8.263466719016074e-05
-0.012365718211154519,0.0003341269166905519,8.280329592238e-05
-0.012043343278795957,0.00032802465131806426,8.296883381438215e-05
-0.01171128819271151,0.0003220859934501874,8.31313614755742e-05
-0.011369327356483088,0.0003163158395628888,8.329096193382747e-05
-0.011017262771982348,0.0003107191920307724,8.344772069172589e-05
-0.010654926322046607,0.00030530114475726516,8.36017257759229e-05
-0.010282181916943443,0.00030006686769751766,8.37530677790366e-05
-0.009898927499548196,0.00029502159034339474,8.390183989354682e-05
-0.009505096904885128,0.0002901705842422864,8.404813793719325e-05
-0.009100661569975,0.0002855191446235714,8.419206036940972e-05
-0.008685632091200718,0.00028107257120827745,8.433370829836768e-05
-0.008260059629062603,0.0002768361482782116,8.44731854782393e-05
-0.007824037163330902,0.00027281512408011325,8.461059829632888e-05
-0.007377700603459819,0.0002690146896384156,8.47460557497585e-05
-0.0069212297586382756,0.00026543995704789104,8.487966941143008e-05
-0.006454849168837138,0.00026209593731602217,8.501155338502106e-05
-0.005978828793724669,0.0002589875178253817,8.514182424880642e-05
-0.005493484551916924,0.00025611943948897133,8.5270600988135e-05
-0.0049991786999897874,0.00025349627367599465,8.539800491642625e-05
-0.004496320039793139,0.0002511223989910489,8.552415958459301e-05
-0.0039853639442593855,0.00024900197799503576,8.564919067883953e-05
-0.0034668121947141173,0.0002471389339602924,8.577322590682837e-05
-0.0029412126252735355,0.00024553692775529547,8.589639487225727e-05
-0.002409158570751419,0.0002441993349562892,8.601882893793517e-05
-0.0018712881133060501,0.00024312922328527487,8.614066107749556e-05
-0.0013282831207557305,0.00024232933047675943,8.626202571593606e-05
-0.0007808680676607542,0.0002418020426796553,8.638305855922517e-05
-0.00022980863068490704,0.0002415493735050689,8.650389641327135e-05
0.0003240899471818543,0.00024157294383419313,8.662467699260617e-05
0.0008799847248681872,0.00024187396250220563,8.674553871919027e-05
0.0014369971625349046,0.0002424532079740564,8.686662051180934e-05
0.0019942154498280816,0.00024331101112714715,8.698806156658464e-05
0.002550697060489707,0.0002444472392547266,8.711000112918011e-05
0.0031054715289117922,0.000245861281402077,8.72325782593443e-05
0.00365754344106693,0.00024755203514457166,8.735593158848096e-05
0.0042058956285154015,0.0002495178949119673,8.74801990709951e-05
0.004749492550003187,0.0002517567419565969,8.760551773021224e-05
0.005287283840834216,0.00025426593605430627,8.773202339971497e-05
0.005818208005910623,0.0002570423090159925,8.785985046098254e-05
0.006341196228644746,0.00026008216007463136,8.79891315782552e-05
0.006855176264980475,0.00026338125319803765,8.811999743157336e-05
0.007359076390226647,0.00026693481636183943,8.825257644896333e-05
0.00785182936699554,0.00027073754280114497,8.838699453875408e-05
0.008332376405309663,0.0002747835942442213,8.852337482301542e-05
0.008799671089636647,0.00027906660611795787,8.866183737310597e-05
0.009252683250567679,0.00028357969470300894,8.880249894831121e-05
0.009690402760066838,0.0002883154662056676,8.894547273853837e-05
0.0101118432291136,0.0002932660277029627,8.909086811201553e-05
0.010516045586604813,0.00029842299990689227,8.923879036891799e-05
0.010902081519037796,0.00030377753168330294,8.938934050181554e-05
0.011269056751654793,0.00030932031625097606,8.954261496379911e-05
0.01161611415323932,0.00031504160897719957,8.969870544510616e-05
0.011942436648877695,0.0003209312466777288,8.98576986590199e-05
0.012247249927212493,0.00032697866832175136,9.001967613776976e-05
0.012529824931326598,0.0003331729370363861,9.01847140391093e-05
0.012789480125420975,0.000339502763300573,9.035288296419353e-05
0.013025583532550263,0.00034595652921506583,9.052424778732244e-05
0.013237554541245507,0.0003525223137335148,9.069886749805958e-05
0.013424865480462199,0.0003591879187389417,9.08767950561777e-05
0.013587042963284389,0.00036594089584987837,9.10580772598249e-05
0.013723669000640865,0.0003727685738408597,9.124275462724759e-05
0.013834381886912168,0.00037965808656274797,9.143086129234849e-05
0.013918876859904047,0.000386596401249452,9.162242491430154e-05
0.0139769065381937,0.00039357034709897645,9.181746660138865e-05
0.014008281139521975,0.0004005666440184054,9.2016000849168e-05
