frame_number,force
0,859.7105308364572
1,859.7571460182908
2,859.8046154487058
3,859.8528814847178
4,859.9018843002958
5,859.9515620152588
6,860.001850834395
7,860.0526851957788
8,860.1039979274221
9,860.1557204115527
10,860.2077827559735
11,860.260113972142
12,860.3126421597939
13,860.3652946980305
14,860.4179984427535
15,860.470679930226
16,860.5232655864204
17,860.5756819416499
18,860.627855849756
19,860.679714710865
20,860.7311866964382
21,860.782200974996
22,860.8326879366285
23,860.8825794143384
24,860.9318089004148
25,860.9803117562286
26,861.0280254139429
27,861.0748895686576
28,861.1208463595163
29,861.1658405383837
30,861.209819624836
31,861.2527340463558
32,861.2945372627267
33,861.3351858737301
34,861.3746397093679
35,861.412861901983
36,861.4498189397872
37,861.4854807014104
38,861.5198204711626
39,861.5528149348339
40,861.5844441560552
41,861.6146915334414
42,861.6435437389532
43,861.6709906381515
44,861.6970251932946
45,861.7216433504339
46,861.7448439117245
47,861.7666283941239
48,861.7870008756203
49,861.8059678302452
50,861.8235379533558
51,861.839721978928
52,861.854532490728
53,861.8679837291616
54,861.8800913954208
55,861.8908724543866
56,861.9003449376692
57,861.9085277481392
58,861.9154404672015
59,861.9211031658417
60,861.9255362202471
61,861.9287601327233
62,861.9307953587564
63,861.9316621412929
64,861.9313803534578
65,861.9299693508921
66,861.9274478346612
67,861.923833725391
68,861.9191440490555
69,861.9133948347688
70,861.9066010250042
71,861.8987763987184
72,861.8899335077625
73,861.8800836267236
74,861.8692367161273
75,861.8574013988892
76,861.8445849500392
77,861.8307932999393
78,861.8160310513526
79,861.8003015106991
80,861.7836067336432
81,861.7659475848508
82,861.747323811381
83,861.7277341288329
84,861.7071763191227
85,861.6856473386244
86,861.6631434353224
87,861.6396602735203
88,861.6151930645526
89,861.5897367018587
90,861.563285898806
91,861.5358353277637
92,861.5073797591064
93,861.4779141990477
94,861.4474340254908
95,861.415935121359
96,861.3834140050136
97,861.3498679572974
98,861.3152951446334
99,861.2796947376095
100,861.2430670245992
101,861.2054135200802
102,861.166737067349
103,861.1270419353491
104,861.0863339094004
105,861.0446203757564
106,861.001910400107
107,860.9582148003088
108,860.9135462136651
109,860.8679191590094
110,860.8213500936948
111,860.773857465445
112,860.7254617589307
113,860.6761855368911
114,860.6260534755612
115,860.5750923940307
116,860.5233312769311
117,860.4708012896186
118,860.4175357849101
119,860.3635703004481
120,860.3089425457862
121,860.2536923782308
122,860.1978617664428
123,860.1414947409496
124,860.0846373310775
125,860.0273374882395
126,859.9696449958956
127,859.9116113668099
128,859.8532897285335
129,859.794734698338
130,859.7360022490365
131,859.6771495671687
132,859.6182349049382
133,859.5593174271435
134,859.5004570542035
135,859.4417143022249
136,859.3831501209356
137,859.3248257302132
138,859.2668024558404
139,859.2091415649451
140,859.1519041013447
141,859.0951507208438
142,859.0389415265142
143,858.9833359040803
144,858.9283923576182
145,858.8741683458638
146,858.8207201196028
147,858.7681025609521
148,858.7163690256853
149,858.6655711899422
150,858.6157589026479
151,858.566980044831
152,858.5192803969057
153,858.4727035148959
154,858.4272906164956
155,858.3830804777901
156,858.3401093414067
157,858.2984108368156
158,858.2580159134334
159,858.2189527870297
160,858.1812468996928
161,858.1449208932293
162,858.1099945954094
163,858.076485018025
164,858.0444063654176
165,858.0137700520636
166,857.9845847279385
167,857.9568563106094
168,857.9305880232341
169,857.9057804378216
170,857.8824315232728
171,857.8605366978242
172,857.8400888855657
173,857.8210785767525
174,857.8034938917258
175,857.787320648431
176,857.7725424336878
177,857.7591406784708
178,857.7470947374302
179,857.7363819727404
180,857.7269778421773
181,857.7188559912252
182,857.711988349071
183,857.7063452285522
184,857.7018954303643
185,857.6986063519787
186,857.6964441017013
187,857.6953736181853
188,857.6953587956162
189,857.6963626148147
190,857.6983472806498
191,857.7012743663196
192,857.7051049650523
193,857.7097998495344
194,857.7153196389155
195,857.7216249727096
196,857.7286766904232
197,857.7364360153782
198,857.7448647409966
199,857.7539254177841
200,857.7635815393525
201,857.7737977260189
202,857.7845399047288
203,857.7957754841748
204,857.8074735239946
205,857.8196048968775
206,857.8321424423643
207,857.8450611111654
208,857.858338098939
209,857.8719529686209
210,857.8858877604927
211,857.900127089168
212,857.9146582265658
213,857.9294711698236
214,857.9445586930993
215,857.9599163823565
216,857.9755426524575
217,857.9914387461031
218,858.0076087142597
219,858.0240593776919
220,858.0408002691327
221,858.0578435556363
222,858.0752039407959
223,858.0928985467297
224,858.1109467759993
225,858.1293701539627
226,858.1481921524572
227,858.167437996072
228,858.187134452523
229,858.2073096088001
230,858.2279926348215
231,858.2492135364137
232,858.2710028995684
233,858.2933916281264
234,858.3164106772032
235,858.3400907847569
236,858.3644622036658
237,858.389554436504
238,858.4153959748494
239,858.4420140445159
240,858.4694343577324
241,858.4976808731143
242,858.5267755642708
243,858.5567381979754
244,858.5875861228374
245,858.6193340692942
246,858.6519939615379
247,858.6855747418206
248,858.7200822075216
249,858.7555188613312
250,858.7918837747944
251,858.829172465225
252,858.8673767857292
253,858.9064848279113
254,858.9464808368776
255,858.9873451384202
256,859.0290540786536
257,859.0715799767654
258,859.1148910918083
259,859.1589516045343
260,859.2037216151344
261,859.2491571574932
262,859.2952102303462
263,859.3418288456548
264,859.3889570946138
265,859.4365352319154
266,859.4844997790458
267,859.5327836473598
268,859.5813162814079
269,859.6300238226321
270,859.6788292933079
271,859.7276528005463
272,859.7764117601281
273,859.8250211397856
274,859.8733937212687
275,859.9214403802038
276,859.9690703823899
277,860.0161916947947
278,860.0627113091394
279,860.1085355756366
280,860.1535705441831
281,860.1977223101829
282,860.2408973622178
283,860.283002929032
284,860.3239473236193
285,860.3636402824606
286,860.4019932980634
287,860.438919942949
288,860.4743361832359
289,860.5081606800263
290,860.5403150769001
291,860.5707242719573
292,860.5993166730331
293,860.6260244349079
294,860.6507836775594
295,860.6735346847689
296,860.6942220826688
297,860.7127949980386
298,860.7292071963013
299,860.7434171992602
300,860.755388382682
301,860.7650890538936
302,860.7724925096084
303,860.7775770742469
304,860.780326119073
305,860.7807280625167
306,860.7787763521003
307,860.7744694284781
308,860.7678106722785
309,860.7588083347194
310,860.7474754532822
311,860.7338297539284
312,860.7178935413667
313,860.6996935787787
314,860.6792609583114
315,860.6566309635311
316,860.6318429248659
317,860.6049400688474
318,860.5759693618087
319,860.5449813486163
320,860.5120299869636
321,860.4771724776037
322,860.440469090686
323,860.4019829882133
324,860.3617800427519
325,860.3199286529627
326,860.2764995571363
327,860.2315656464293
328,860.1852017797553
329,860.1374846021957
330,860.0884923684598
331,860.0383047724183
332,859.9870027831963
333,859.934668487814
334,859.881384940005
335,859.8272360146249
336,859.7723062669517
337,859.7166807961471
338,859.6604451121607
339,859.6036850054023
340,859.546486418596
341,859.4889353203639
342,859.4311175802712
343,859.3731188452145
344,859.3150244170819
345,859.2569191315433
346,859.1988872376743
347,859.1410122779355
348,859.083376967919
349,859.0260630752978
350,858.9691512976055
351,858.9127211387613
352,858.8568507844769
353,858.8016169767419
354,858.7470948875606
355,858.6933579921803
356,858.6404779422063
357,858.5885244391782
358,858.5375651093133
359,858.4876653802343
360,858.4388883605943
361,858.3912947235505
362,858.3449425949912
363,858.2998874473446
364,858.2561819997163
365,858.213876124991
366,858.1730167644068
367,858.1336478499926
368,858.095810235192
369,858.0595416339656
370,858.0248765686352
371,857.9918463266818
372,857.9604789265724
373,857.9307990924652
374,857.9028282373868
375,857.876584454321
376,857.8520825146866
377,857.8293338738565
378,857.8083466835916
379,857.7891258114325
380,857.7716728672492
381,857.7559862373216
382,857.7420611264705
383,857.7298896087802
384,857.7194606873592
385,857.7107603634274
386,857.7037717149104
387,857.6984749846653
388,857.6948476784521
389,857.6928646727039
390,857.6924983319786
391,857.6937186357524
392,857.6964933140422
393,857.7007879913219
394,857.706566338258
395,857.7137902308629
396,857.7224199167011
397,857.7324141878136
398,857.7437305600747
399,857.7563254587157
400,857.770154409628
401,857.7851722357566
402,857.801333257469
403,857.8185914954072
404,857.8369008740664
405,857.8562154242276
406,857.8764894823584
407,857.8976778851933
408,857.9197361579496
409,857.942620694941
410,857.9662889315834
411,857.9906995068425
412,858.0158124150818
413,858.041589146204
414,858.0679928130621
415,858.0949882653762
416,858.122542189714
417,858.1506231953015
418,858.1792018854443
419,858.2082509142224
420,858.2377450280236
421,858.2676610914727
422,858.2979780974215
423,858.3286771609141
424,858.3597414974226
425,858.3911563860287
426,858.4229091184706
427,858.4549889350301
428,858.4873869481395
429,858.5200960544295
430,858.5531108358206
431,858.586427450276
432,858.6200435129772
433,858.6539579687974
434,858.6881709569013
435,858.7226836681318
436,858.7574981956749
437,858.7926173794361
438,858.8280446446327
439,858.8637838352588
440,858.8998390432992
441,858.9362144348355
442,858.9729140744706
443,859.0099417496426
444,859.0473007963375
445,859.0849939275143
446,859.1230230653954
447,859.1613891787573
448,859.2000921264278
449,859.2391305082232
450,859.2785015245028
451,859.3182008454074
452,859.3582224907702
453,859.3985587215928
454,859.4391999438184
455,859.4801346248794
456,859.5213492232019
457,859.5628281305533
458,859.6045536268182
459,859.6465058465096
460,859.688662756183
461,859.7310001420141
462,859.7734916070589
463,859.8161085779495
464,859.8588203208641
465,859.9015939665909
466,859.94439454455
467,859.9871850258029
468,860.0299263752377
469,860.072577613137
470,860.1150958862338
471,860.1574365482587
472,860.199553249856
473,860.2413980375381
474,860.2829214611152
475,860.3240726888398
476,860.3647996293887
477,860.4050490596899
478,860.4447667575383
479,860.4838976379959
480,860.5223858927844
481,860.5601751321865
482,860.5972085292395
483,860.6334289661544
484,860.6687791828632
485,860.7032019274334
486,860.7366401078465
487,860.7690369444055
488,860.8003361218824
489,860.8304819404915
490,860.8594194648357
491,860.887094670055
492,860.9134545844605
493,860.9384474279998
494,860.9620227460416
495,860.9841315382129
496,861.004726382293
497,861.023761553343
498,861.041193138265
499,861.0569791459174
500,861.0710796128202
501,861.0834567043973
502,861.0940748115618
503,861.1029006423308
504,861.1099033081463
505,861.1150544047065
506,861.1183280872622
507,861.1197011403697
508,861.1191530420052
509,861.1166660217896
510,861.1122251129336
511,861.10581819748
512,861.0974360444882
513,861.0870723409448
514,861.0747237152947
515,861.060389753576
516,861.0440730082425
517,861.0257789998645
518,861.0055162120053
519,860.9832960796144
520,860.9591329712499
521,860.9330441653499
522,860.9050498206643
523,860.875172940912
524,860.8434393338076
525,860.809877564752
526,860.7745189056144
527,860.7373972791905
528,860.6985492001177
529,860.6580137131791
530,860.6158323298902
531,860.5720489640265
532,860.5267098664807
533,860.4798635596352
534,860.4315607713772
535,860.3818543689292
536,860.3307992927532
537,860.2784524908435
538,860.2248728537033
539,860.1701211502009
540,860.1142599642972
541,860.0573536323124
542,859.9994681800064
543,859.9406712584274
544,859.8810320773019
545,859.8206213346627
546,859.7595111413932
547,859.6977749394331
548,859.6354874125726
549,859.5727243890358
550,859.5095627353659
551,859.4460802414079
552,859.382355496397
553,859.3184677563462
554,859.2544968031465
555,859.1905227960068
556,859.1266261159402
557,859.062887203939
558,858.9993863933547
559,858.9362037369245
560,858.8734188288593
561,858.8111106224137
562,858.7493572434316
563,858.688235800525
564,858.6278221928033
565,858.5681909163018
566,858.5094148703912
567,858.451565165468
568,858.3947109332298
569,858.3389191408579
570,858.2842544104107
571,858.2307788446423
572,858.1785518603316
573,858.1276300300988
574,858.078066933567
575,858.0299130185264
576,857.9832154724907
577,857.9380181047941
578,857.8943612392717
579,857.8522816176331
580,857.8118123137983
581,857.7729826596078
582,857.7358181824136
583,857.7003405551117
584,857.666567559226
585,857.6345130616369
586,857.6041870054439
587,857.5755954153598
588,857.5487404180396
589,857.52362027784
590,857.5002294485781
591,857.4785586418719
592,857.4585949125703
593,857.4403217616338
594,857.4237192566179
595,857.4087641696489
596,857.3954301324632
597,857.3836878077316
598,857.3735050755547
599,857.3648472337688
600,857.3576772105959
601,857.3519557881796
602,857.3476418355732
603,857.3446925497296
604,857.3430637030197
605,857.3427098957541
606,857.3435848120749
607,857.3456414774523
608,857.3488325159711
609,857.3531104056311
610,857.3584277299009
611,857.3647374237312
612,857.3719930121954
613,857.3801488399732
614,857.3891602900053
615,857.3989839897375
616,857.4095780034608
617,857.4209020093783
618,857.4329174602311
619,857.4455877265356
620,857.4588782216811
621,857.472756508276
622,857.487192385247
623,857.502157955365
624,857.5176276731381
625,857.533578373373
626,857.5499892810526
627,857.5668420033624
628,857.5841205046725
629,857.601811065236
630,857.6199022244772
631,857.6383847100664
632,857.6572513543749
633,857.6764970001925
634,857.6961183976555
635,857.7161140941698
636,857.736484318781
637,857.7572308620969
638,857.778356952587
639,857.7998671298523
640,857.8217671152245
641,857.8440636798379
642,857.8667645102047
643,857.8898780713815
644,857.913413468008
645,857.9373803037918
646,857.9617885403007
647,857.986648356074
648,858.0119700069863
649,858.0377636886145
650,858.0640394011958
651,858.0908068176996
652,858.1180751555563
653,858.1458530526268
654,858.1741484479621
655,858.2029684677713
656,858.2323193168124
657,858.2622061752586
658,858.2926331009968
659,858.3236029372831
660,858.35511722563
661,858.3871761237501
662,858.4197783283795
663,858.4529210029082
664,858.486599709973
665,858.5208083494258
666,858.5555391022515
667,858.5907823809956
668,858.6265267871431
669,858.6627590758021
670,858.6994641280528
671,858.7366249313634
672,858.7742225684834
673,858.8122362151454
674,858.8506431467374
675,858.8894187539041
676,858.9285365668744
677,858.9679682882191
678,859.0076838336544
679,859.0476513804331
680,859.0878374228496
681,859.1282068344145
682,859.1687229362616
683,859.2093475712875
684,859.250041183472
685,859.2907629018582
686,859.3314706288033
687,859.3721211322587
688,859.4126701418768
689,859.4530724487028
690,859.4932820081882
691,859.5332520463119
692,859.572935168632
693,859.6122834720619
694,859.6512486590406
695,859.6897821536024
696,859.7278352186715
697,859.7653590737722
698,859.8023050123458
699,859.8386245179917
700,859.8742693791675
701,859.9091918021221
702,859.943344522029
703,859.9766809123543
704,860.009155092484
705,860.0407220336238
706,860.071337663032
707,860.1009589666913
708,860.129544090505
709,860.157052439984
710,860.1834447782388
711,860.2086833219643
712,860.2327318350262
713,860.2555557191433
714,860.2771221009552
715,860.297399914576
716,860.3163599786594
717,860.3339750670943
718,860.3502199726496
719,860.36507156311
720,860.3785088296313
721,860.3905129271662
722,860.4010672068827
723,860.4101572405156
724,860.4177708365895
725,860.4238980484612
726,860.4285311741725
727,860.4316647481397
728,860.4332955247145
729,860.4334224537034
730,860.4320466481278
731,860.4291713448407
732,860.4248018590094
733,860.4189455337694
734,860.4116116864968
735,860.4028115531218
736,860.3925582317721
737,860.3808666268786
738,860.367753394713
739,860.3532368911879
740,860.3373371225989
741,860.3200756998262
742,860.3014757963376
743,860.2815621101578
744,860.2603608298028
745,860.2378996040773
746,860.2142075156308
747,860.1893150582691
748,860.1632541180957
749,860.136057958525
750,860.1077612090048
751,860.0783998570199
752,860.0480112427391
753,860.01663405555
754,859.9843083317135
755,859.9510754523943
756,859.9169781413785
757,859.8820604618534
758,859.8463678116836
759,859.8099469166675
760,859.7728458212761
761,859.7351138763429
762,859.6968017230955
763,859.657961272885
764,859.618645682013
765,859.5789093211516
766,859.5388077389186
767,859.4983976191935
768,859.4577367317708
769,859.416883875981
770,859.375898816947
771,859.3348422141729
772,859.2937755422241
773,859.252761003446
774,859.2118614329249
775,859.1711401961004
776,859.1306610795027
777,859.0904881750776
778,859.0506857585881
779,859.0113181626489
780,858.9724496449409
781,858.9341442520919
782,858.89646567968
783,858.859477128935
784,858.8232411608935
785,858.7878195488863
786,858.7532731302896
787,858.7196616584564
788,858.6870436556493
789,858.6554762675319
790,858.6250151194051
791,858.5957141740569
792,858.5676255910004
793,858.54079958701
794,858.5152842980604
795,858.4911256428741
796,858.4683671882483
797,858.4470500162514
798,858.4272125933943
799,858.4088906419736
800,858.3921170139264
801,858.3769215677355
802,858.363331049136
803,858.3513689765332
804,858.3410555321071
805,858.3324074596261
806,858.3254379700609
807,858.3201566561369
808,858.3165694168957
809,858.3146783931902
810,858.3144819149526
811,858.3159744611215
812,858.3191466332023
813,858.3239851434313
814,858.3304728183766
815,858.3385886186093
816,858.3483076749358
817,858.3596013416186
818,858.3724372669404
819,858.3867794813156
820,858.402588502918
821,858.4198214605242
822,858.4384322329896
823,858.4583716044935
824,858.4795874344217
825,858.502024840547
826,858.5256263940654
827,858.5503323250407
828,858.5760807368051
829,858.6028078277162
830,858.6304481184222
831,858.6589346825824
832,858.6881993789459
833,858.7181730827988
834,858.7487859149662
835,858.7799674667648
836,858.8116470195297
837,858.8437537575908
838,858.8762169738952
839,858.9089662678479
840,858.9419317352665
841,858.975044150518
842,859.0082351409202
843,859.0414373534636
844,859.0745846138947
845,859.1076120782506
846,859.1404563770187
847,859.1730557521569
848,859.2053501871889
849,859.2372815304733
850,859.2687936115935
851,859.2998323507095
852,859.3303458607046
853,859.360284542019
854,859.3896011701378
855,859.4182509757807
856,859.4461917179235
857,859.4733837498601
858,859.4997900785803
859,859.5253764177718
860,859.5501112347381
861,859.5739657914842
862,859.5969141801614
863,859.6189333529896
864,859.6400031466886
865,859.6601063013851
866,859.6792284738859
867,859.6973582450615
868,859.714487120854
869,859.73060952622
870,859.745722791267
871,859.7598271289415
872,859.7729256038209
873,859.7850240917747
874,859.7961312305001
875,859.806258361157
876,859.8154194614733
877,859.8236310707011
878,859.8309122067474
879,859.8372842757823
880,859.8427709746715
881,859.8473981866367
882,859.8511938705852
883,859.8541879446155
884,859.8564121643635
885,859.8578999970466
886,859.8586864922229
887,859.8588081503148
888,859.8583027898404
889,859.8572094141134
890,859.8555680780098
891,859.8534197553147
892,859.8508062071141
893,859.8477698516164
894,859.8443536356555
895,859.8406009079991
896,859.8365552944889
897,859.8322605749761
898,859.8277605619223
899,859.8230989804389
900,859.818319349524
901,859.8134648643526
902,859.808578279614
903,859.8037017940335
904,859.7988769363636
905,859.794144453332
906,859.7895442002153
907,859.7851150347743
908,859.7808947151793
909,859.7769198023453
910,859.7732255669173
911,859.7698459010419
912,859.7668132349934
913,859.7641584586562
914,859.7619108478506
915,859.7600979956146
916,859.7587457488089
917,859.7578781506538
