frame_number,force
0,859.7105308261722
1,859.7571460079765
2,859.8046154383618
3,859.8528814743428
4,859.9018842898884
5,859.9515620048169
6,860.0018508239151
7,860.052685185256
8,860.1039979168497
9,860.1557204009233
10,860.2077827452792
11,860.2601139613752
12,860.3126421489476
13,860.3652946870994
14,860.4179984317328
15,860.4706799191118
16,860.5232655752094
17,860.5756819303394
18,860.6278558383443
19,860.6797146993512
20,860.731186684822
21,860.7822009632787
22,860.8326879248123
23,860.8825794024259
24,860.9318088884094
25,860.980311744133
26,861.0280254017594
27,861.0748895563873
28,861.1208463471601
29,861.1658405259411
30,861.209819612306
31,861.2527340337365
32,861.2945372500157
33,861.3351858609243
34,861.3746396964639
35,861.4128618889767
36,861.4498189266748
37,861.4854806881881
38,861.5198204578271
39,861.5528149213828
40,861.5844441424869
41,861.6146915197551
42,861.6435437251494
43,861.6709906242312
44,861.6970251792593
45,861.7216433362847
46,861.7448438974636
47,861.7666283797541
48,861.7870008611459
49,861.8059678156715
50,861.8235379386881
51,861.8397219641716
52,861.8545324758879
53,861.8679837142421
54,861.8800913804258
55,861.8908724393191
56,861.9003449225318
57,861.9085277329337
58,861.9154404519293
59,861.9211031505037
60,861.9255362048433
61,861.9287601172538
62,861.930795343221
63,861.9316621256904
64,861.9313803377862
65,861.9299693351488
66,861.9274478188432
67,861.9238337094947
68,861.9191440330768
69,861.9133948187041
70,861.9066010088505
71,861.8987763824736
72,861.8899334914234
73,861.8800836102864
74,861.8692366995878
75,861.8574013822425
76,861.8445849332803
77,861.8307932830633
78,861.8160310343545
79,861.8003014935738
80,861.7836067163857
81,861.7659475674564
82,861.7473237938444
83,861.7277341111493
84,861.7071763012875
85,861.6856473206341
86,861.6631434171738
87,861.6396602552114
88,861.6151930460816
89,861.5897366832248
90,861.5632858800088
91,861.5358353088028
92,861.507379739982
93,861.4779141797609
94,861.4474340060437
95,861.4159351017552
96,861.3834139852578
97,861.3498679373954
98,861.3152951245914
99,861.2796947174345
100,861.2430670042995
101,861.2054134996655
102,861.1667370468305
103,861.1270419147403
104,861.0863338887167
105,861.0446203550132
106,861.0019103793202
107,860.9582147794945
108,860.9135461928386
109,860.8679191381858
110,860.8213500728897
111,860.7738574446736
112,860.7254617382081
113,860.6761855162322
114,860.6260534549809
115,860.5750923735441
116,860.5233312565529
117,860.4708012693633
118,860.4175357647919
119,860.3635702804809
120,860.3089425259838
121,860.2536923586072
122,860.1978617470121
123,860.1414947217262
124,860.0846373120756
125,860.0273374694727
126,859.9696449773769
127,859.9116113485514
128,859.853289710547
129,859.794734680634
130,859.736002231624
131,859.6771495500552
132,859.6182348881285
133,859.55931741064
134,859.5004570380064
135,859.441714286333
136,859.3831501053467
137,859.3248257149237
138,859.2668024408455
139,859.2091415502382
140,859.1519040869181
141,859.0951507066876
142,859.0389415126168
143,858.9833358904291
144,858.9283923441998
145,858.8741683326626
146,858.8207201066015
147,858.7681025481326
148,858.716369013029
149,858.6655711774309
150,858.6157588902648
151,858.5669800325599
152,858.519280384731
153,858.4727035028026
154,858.4272906044692
155,858.3830804658173
156,858.340109329475
157,858.2984108249135
158,858.2580159015506
159,858.2189527751576
160,858.1812468878247
161,858.1449208813602
162,858.1099945835364
163,858.0764850061465
164,858.0444063535342
165,858.013770040178
166,857.9845847160544
167,857.9568562987321
168,857.9305880113689
169,857.9057804259745
170,857.8824315114506
171,857.8605366860336
172,857.8400888738137
173,857.8210785650448
174,857.8034938800672
175,857.7873206368256
176,857.7725424221393
177,857.7591406669831
178,857.7470947260084
179,857.736381961391
180,857.7269778309073
181,857.7188559800419
182,857.7119883379814
183,857.7063452175629
184,857.7018954194818
185,857.6986063412093
186,857.696444091051
187,857.6953736076591
188,857.6953587852182
189,857.6963626045479
190,857.6983472705168
191,857.7012743563226
192,857.7051049551934
193,857.7097998398156
194,857.715319629339
195,857.7216249632773
196,857.7286766811368
197,857.7364360062387
198,857.7448647320055
199,857.7539254089419
200,857.7635815306585
201,857.7737977174716
202,857.7845398963259
203,857.7957754759137
204,857.8074735158715
205,857.8196048888873
206,857.8321424345008
207,857.8450611034217
208,857.8583380913078
209,857.8719529610944
210,857.8858877530633
211,857.9001270818288
212,857.9146582193096
213,857.9294711626435
214,857.9445586859887
215,857.9599163753088
216,857.9755426454657
217,857.9914387391593
218,858.0076087073561
219,858.0240593708194
220,858.0408002622811
221,858.0578435487945
222,858.0752039339517
223,858.0928985398702
224,858.1109467691111
225,858.1293701470311
226,858.1481921454671
227,858.1674379890081
228,858.1871344453717
229,858.2073096015483
230,858.2279926274575
231,858.2492135289267
232,858.2710028919485
233,858.2933916203642
234,858.3164106692909
235,858.3400907766877
236,858.3644621954343
237,858.3895544281061
238,858.415395966283
239,858.4420140357805
240,858.4694343488293
241,858.4976808640462
242,858.5267755550425
243,858.5567381885929
244,858.587586113308
245,858.6193340596259
246,858.6519939517389
247,858.6855747318997
248,858.7200821974884
249,858.7555188511953
250,858.7918837645647
251,858.8291724549096
252,858.8673767753357
253,858.9064848174469
254,858.9464808263486
255,858.9873451278323
256,859.029054068012
257,859.0715799660753
258,859.1148910810746
259,859.1589515937617
260,859.2037216043269
261,859.2491571466537
262,859.2952102194766
263,859.3418288347558
264,859.3889570836857
265,859.436535220958
266,859.4844997680588
267,859.5327836363424
268,859.5813162703591
269,859.6300238115505
270,859.6788292821913
271,859.7276527893914
272,859.7764117489311
273,859.8250211285425
274,859.8733937099756
275,859.9214403688571
276,859.9690703709864
277,860.0161916833317
278,860.0627112976148
279,860.1085355640478
280,860.1535705325279
281,860.197722298459
282,860.240897350423
283,860.2830029171644
284,860.3239473116774
285,860.363640270443
286,860.4019932859686
287,860.4389199307758
288,860.4743361709842
289,860.5081606676966
290,860.5403150644933
291,860.570724259474
292,860.599316660475
293,860.6260244222783
294,860.6507836648634
295,860.6735346720136
296,860.6942220698626
297,860.7127949851908
298,860.7292071834228
299,860.7434171863621
300,860.7553883697757
301,860.7650890409907
302,860.7724924967213
303,860.777577061389
304,860.7803261062585
305,860.7807280497589
306,860.7787763394123
307,860.7744694158721
308,860.7678106597656
309,860.758808322309
310,860.7474754409825
311,860.7338297417465
312,860.7178935293088
313,860.6996935668503
314,860.6792609465174
315,860.656630951876
316,860.6318429133535
317,860.6049400574808
318,860.5759693505892
319,860.5449813375436
320,860.5120299760359
321,860.4771724668174
322,860.4404690800355
323,860.4019829776921
324,860.3617800323525
325,860.3199286426774
326,860.276499546957
327,860.2315656363475
328,860.1852017697611
329,860.1374845922791
330,860.0884923586103
331,860.0383047626256
332,859.9870027734493
333,859.9346684781004
334,859.8813849303119
335,859.8272360049386
336,859.7723062572582
337,859.7166807864327
338,859.660445102411
339,859.6036849956033
340,859.5464864087334
341,859.4889353104229
342,859.4311175702368
343,859.3731188350712
344,859.3150244068138
345,859.2569191211346
346,859.1988872271094
347,859.141012267199
348,859.0833769569965
349,859.0260630641756
350,858.9691512862701
351,858.912721127199
352,858.8568507726753
353,858.8016169646892
354,858.7470948752458
355,858.6933579795938
356,858.6404779293396
357,858.5885244260243
358,858.5375650958666
359,858.4876653664908
360,858.4388883465515
361,858.3912947092068
362,858.3449425803458
363,858.2998874323981
364,858.2561819844707
365,858.2138761094501
366,858.1730167485757
367,858.133647833877
368,858.0958102187992
369,858.0595416173039
370,858.0248765517135
371,857.991846309509
372,857.9604789091578
373,857.930799074819
374,857.9028282195195
375,857.8765844362442
376,857.8520824964129
377,857.8293338553984
378,857.8083466649621
379,857.7891257926452
380,857.7716728483183
381,857.7559862182613
382,857.7420611072953
383,857.7298895895049
384,857.7194606679989
385,857.7107603439975
386,857.7037716954264
387,857.6984749651427
388,857.6948476589065
389,857.6928646531509
390,857.6924983124339
391,857.6937186162312
392,857.6964932945594
393,857.7007879718922
394,857.7065663188954
395,857.7137902115822
396,857.722419897518
397,857.732414168743
398,857.7437305411314
399,857.7563254399139
400,857.770154390982
401,857.7851722172794
402,857.801333239172
403,857.8185914773002
404,857.8369008561573
405,857.8562154065229
406,857.876489464863
407,857.8976778679113
408,857.9197361408848
409,857.9426206780965
410,857.9662889149622
411,857.9906994904454
412,858.0158123989073
413,858.0415891302486
414,858.0679927973204
415,858.094988249842
416,858.1225421743808
417,858.1506231801628
418,858.1792018704937
419,858.2082508994538
420,858.2377450134321
421,858.2676610770543
422,858.2979780831723
423,858.328677146831
424,858.3597414835027
425,858.3911563722695
426,858.4229091048694
427,858.4549889215848
428,858.4873869348479
429,858.5200960412894
430,858.5531108228297
431,858.5864274374321
432,858.6200435002783
433,858.6539579562412
434,858.6881709444866
435,858.722683655858
436,858.7574981835417
437,858.7926173674434
438,858.8280446327802
439,858.8637838235475
440,858.8998390317307
441,858.9362144234118
442,858.9729140631936
443,859.0099417385143
444,859.047300785361
445,859.0849939166937
446,859.1230230547355
447,859.161389168263
448,859.2000921161034
449,859.2391304980738
450,859.2785015145341
451,859.3182008356255
452,859.3582224811806
453,859.3985587122006
454,859.4391999346282
455,859.4801346158944
456,859.5213492144236
457,859.5628281219813
458,859.6045536184505
459,859.6465058383425
460,859.688662748211
461,859.7310001342308
462,859.773491599458
463,859.8161085705244
464,859.8588203136085
465,859.9015939594982
466,859.944394537613
467,859.9871850190126
468,860.0299263685836
469,860.0725776066065
470,860.1150958798123
471,860.1574365419303
472,860.1995532436038
473,860.2413980313449
474,860.2829214549635
475,860.3240726827119
476,860.3647996232664
477,860.4050490535559
478,860.4447667513756
479,860.483897631787
480,860.5223858865118
481,860.5601751258329
482,860.5972085227883
483,860.6334289595897
484,860.6687791761697
485,860.7032019205961
486,860.7366401008511
487,860.7690369372381
488,860.8003361145297
489,860.8304819329408
490,860.8594194570742
491,860.8870946620707
492,860.9134545762429
493,860.9384474195397
494,860.9620227373307
495,860.9841315292441
496,861.0047263730611
497,861.023761543845
498,861.0411931285008
499,861.0569791358887
500,861.0710796025307
501,861.0834566938526
502,861.0940748007683
503,861.1029006312968
504,861.1099032968814
505,861.115054393221
506,861.1183280755674
507,861.1197011284773
508,861.1191530299274
509,861.1166660095377
510,861.1122251005182
511,861.1058181849104
512,861.097436031773
513,861.0870723280923
514,861.0747237023127
515,861.060389740472
516,861.0440729950242
517,861.0257789865392
518,861.0055161985797
519,860.9832960660947
520,860.9591329576425
521,860.9330441516611
522,860.9050498069004
523,860.8751729270787
524,860.8434393199095
525,860.809877550793
526,860.7745188915976
527,860.7373972651184
528,860.6985491859919
529,860.6580136990015
530,860.6158323156633
531,860.5720489497542
532,860.5267098521673
533,860.4798635452856
534,860.4315607569972
535,860.3818543545257
536,860.3307992783338
537,860.2784524764159
538,860.2248728392756
539,860.1701211357818
540,860.114259949896
541,860.0573536179394
542,859.9994681656725
543,859.9406712441443
544,859.8810320630819
545,859.8206213205184
546,859.7595111273379
547,859.6977749254803
548,859.6354873987362
549,859.5727243753297
550,859.5095627218044
551,859.4460802280062
552,859.3823554831705
553,859.3184677433105
554,859.2544967903171
555,859.1905227833988
556,859.1266261035676
557,859.0628871918146
558,858.9993863814905
559,858.9362037253305
560,858.8734188175438
561,858.8111106113832
562,858.7493572326904
563,858.6882357900752
564,858.6278221826446
565,858.5681909064327
566,858.5094148608082
567,858.4515651561658
568,858.3947109242017
569,858.338919132096
570,858.284254401906
571,858.2307788363855
572,858.1785518523129
573,858.1276300223078
574,858.0780669259922
575,858.029913011155
576,857.9832154653093
577,857.9380180977879
578,857.8943612324248
579,857.8522816109283
580,857.8118123072176
581,857.7729826531324
582,857.7358181760238
583,857.7003405487864
584,857.6665675529433
585,857.6345130553746
586,857.6041869991797
587,857.5755954090708
588,857.5487404117034
589,857.5236202714348
590,857.500229442083
591,857.4785586352668
592,857.4585949058365
593,857.4403217547537
594,857.4237192495749
595,857.4087641624277
596,857.3954301250501
597,857.3836878001142
598,857.373505067722
599,857.3648472257117
600,857.3576772023072
601,857.3519557796542
602,857.3476418268081
603,857.3446925407238
604,857.3430636937744
605,857.3427098862725
606,857.3435848023621
607,857.3456414675153
608,857.3488325058181
609,857.353110395271
610,857.3584277193431
611,857.364737412986
612,857.3719930012735
613,857.3801488288864
614,857.3891602787663
615,857.3989839783593
616,857.4095779919559
617,857.4209019977588
618,857.4329174485083
619,857.4455877147199
620,857.4588782097821
621,857.472756496303
622,857.4871923732087
623,857.5021579432704
624,857.5176276609961
625,857.533578361192
626,857.5499892688409
627,857.566841991128
628,857.5841204924226
629,857.6018110529777
630,857.6199022122173
631,857.6383846978118
632,857.6572513421327
633,857.6764969879694
634,857.6961183854584
635,857.7161140820053
636,857.7364843066553
637,857.7572308500154
638,857.7783569405541
639,857.7998671178705
640,857.8217671032957
641,857.8440636679636
642,857.8667644983865
643,857.8898780596205
644,857.913413456305
645,857.937380292147
646,857.9617885287148
647,857.986648344547
648,858.0119699955175
649,858.0377636772022
650,858.0640393898373
651,858.0908068063917
652,858.1180751442963
653,858.1458530414118
654,858.1741484367893
655,858.2029684566372
656,858.2323193057139
657,858.2622061641922
658,858.2926330899589
659,858.3236029262691
660,858.3551172146348
661,858.3871761127673
662,858.4197783174019
663,858.452920991928
664,858.4865996989815
665,858.5208083384139
666,858.5555390912095
667,858.5907823699138
668,858.6265267760112
669,858.6627590646106
670,858.6994641167933
671,858.736624920029
672,858.7742225570693
673,858.8122362036484
674,858.8506431351561
675,858.8894187422384
676,858.9285365551253
677,858.9679682763889
678,859.0076838217467
679,859.0476513684529
680,859.0878374108023
681,859.1282068223067
682,859.1687229241004
683,859.2093475590804
684,859.2500411712266
685,859.2907628895819
686,859.3314706165038
687,859.3721211199436
688,859.4126701295534
689,859.4530724363784
690,859.4932819958701
691,859.5332520340063
692,859.5729351563444
693,859.6122834597977
694,859.6512486468041
695,859.6897821413971
696,859.7278352065003
697,859.7653590616374
698,859.8023050002492
699,859.8386245059351
700,859.8742693671524
701,859.9091917901502
702,859.9433445101016
703,859.9766809004726
704,860.0091550806494
705,860.0407220218382
706,860.0713376512974
707,860.1009589550101
708,860.1295440788796
709,860.157052428417
710,860.1834447667336
711,860.2086833105238
712,860.2327318236529
713,860.2555557078381
714,860.2771220897181
715,860.2973999034059
716,860.316359967554
717,860.3339750560494
718,860.3502199616591
719,860.3650715521662
720,860.3785088187254
721,860.3905129162889
722,860.4010671960247
723,860.4101572296685
724,860.4177708257457
725,860.4238980376135
726,860.428531163314
727,860.4316647372635
728,860.4332955138136
729,860.4334224427707
730,860.4320466371555
731,860.429171333821
732,860.4248018479353
733,860.4189455226345
734,860.4116116752963
735,860.4028115418523
736,860.3925582204322
737,860.3808666154674
738,860.3677533832305
739,860.3532368796342
740,860.3373371109736
741,860.3200756881283
742,860.3014757845657
743,860.28156209831
744,860.2603608178773
745,860.237899592071
746,860.2142075035404
747,860.1893150460904
748,860.1632541058243
749,860.1360579461564
750,860.1077611965343
751,860.0783998444435
752,860.0480112300531
753,860.0166340427505
754,859.9843083187967
755,859.9510754393563
756,859.9169781282154
757,859.8820604485622
758,859.8463677982628
759,859.8099469031171
760,859.7728458075972
761,859.7351138625376
762,859.6968017091665
763,859.6579612588354
764,859.6186456678456
765,859.578909306869
766,859.5388077245227
767,859.4983976046847
768,859.4577367171482
769,859.4168838612427
770,859.37589880209
771,859.3348421991919
772,859.2937755271132
773,859.2527609881984
774,859.2118614175328
775,859.1711401805552
776,859.1306610637947
777,859.0904881591961
778,859.0506857425221
779,859.0113181463871
780,858.9724496284724
781,858.934144235406
782,858.8964656627663
783,858.8594771117835
784,858.8232411434933
785,858.7878195312273
786,858.7532731123615
787,858.7196616402493
788,858.6870436371535
789,858.6554762487382
790,858.6250151003056
791,858.5957141546445
792,858.567625571269
793,858.540799566955
794,858.5152842776779
795,858.4911256221616
796,858.4683671672046
797,858.4470499948762
798,858.4272125716883
799,858.4088906199388
800,858.3921169915667
801,858.3769215450557
802,858.3633310261415
803,858.3513689532292
804,858.3410555084994
805,858.3324074357205
806,858.3254379458627
807,858.3201566316518
808,858.3165693921297
809,858.3146783681498
810,858.3144818896449
811,858.3159744355548
812,858.3191466073858
813,858.3239851173747
814,858.3304727920907
815,858.3385885921059
816,858.3483076482275
817,858.3596013147188
818,858.3724372398628
819,858.3867794540746
820,858.4025884755289
821,858.4198214330039
822,858.4384322053569
823,858.4583715767685
824,858.4795874066259
825,858.5020248127028
826,858.5256263661951
827,858.5503322971667
828,858.5760807089498
829,858.6028077999015
830,858.6304480906703
831,858.658934654916
832,858.6881993513886
833,858.7181730553743
834,858.7487858876988
835,858.7799674396788
836,858.8116469926498
837,858.843753730942
838,858.8762169475024
839,858.9089662417352
840,858.9419317094577
841,858.9750441250352
842,859.0082351157846
843,859.0414373286953
844,859.0745845895127
845,859.1076120542733
846,859.1404563534641
847,859.1730557290421
848,859.2053501645302
849,859.2372815082856
850,859.2687935898892
851,859.2998323294986
852,859.3303458399946
853,859.3602845218153
854,859.3896011504436
855,859.4182509565976
856,859.4461916992512
857,859.4733837316961
858,859.4997900609209
859,859.5253764006117
860,859.550111218071
861,859.5739657753024
862,859.5969141644559
863,859.6189333377499
864,859.6400031319033
865,859.6601062870424
866,859.6792284599737
867,859.6973582315682
868,859.7144871077684
869,859.7306095135323
870,859.7457227789671
871,859.7598271170185
872,859.7729255922632
873,859.7850240805699
874,859.7961312196345
875,859.8062583506163
876,859.8154194512425
877,859.8236310607641
878,859.8309121970873
879,859.8372842663812
880,859.8427709655111
881,859.8473981776989
882,859.8511938618512
883,859.8541879360675
884,859.8564121559845
885,859.8578999888205
886,859.8586864841353
887,859.8588081423532
888,859.858302781994
889,859.8572094063724
890,859.8555680703654
891,859.8534197477593
892,859.8508061996407
893,859.847769844218
894,859.844353628325
895,859.8406009007299
896,859.8365552872743
897,859.8322605678097
898,859.8277605547971
899,859.8230989733479
900,859.8183193424613
901,859.8134648573135
902,859.8085782725951
903,859.8037017870322
904,859.7988769293781
905,859.7941444463618
906,859.7895441932599
907,859.7851150278334
908,859.7808947082524
909,859.7769197954316
910,859.7732255600159
911,859.7698458941526
912,859.7668132281161
913,859.7641584517912
914,859.7619108409989
915,859.7600979887779
916,859.7587457419887
