frame_number,force
0,540.6286000063359
1,540.6251927841581
2,540.6220095624374
3,540.6192727147419
4,540.6172013804852
5,540.6160098968181
6,540.615906288729
7,540.6170908352884
8,540.6197547281405
9,540.6240788356996
10,540.6302325832172
11,540.6383729555608
12,540.6486436269238
13,540.6611742200846
14,540.6760796971101
15,540.693459883075
16,540.7133991239683
17,540.7359660790712
18,540.761213646432
19,540.7891790177711
20,540.8198838568796
21,540.853334593964
22,540.8895228274449
23,540.9284258240717
24,540.970007107611
25,541.0142171260849
26,541.0609939881128
27,541.1102642605844
28,541.161943821998
29,541.2159387672435
30,541.2721463598989
31,541.3304560275976
32,541.3907503953105
33,541.4529063508357
34,541.5167961362157
35,541.5822884575939
36,541.6492496040634
37,541.7175445640712
38,541.7870381267488
39,541.8575959554662
40,541.9290856220367
41,542.0013775921927
42,542.0743461555169
43,542.1478702950363
44,542.221834492775
45,542.2961294678676
46,542.3706528437017
47,542.4453097402867
48,542.5200132877396
49,542.594685056397
50,542.6692553988466
51,542.7436636996998
52,542.8178585304314
53,542.8917977088166
54,542.9654482650551
55,543.0387863193012
56,543.1117968774099
57,543.1844735527504
58,543.2568182219273
59,543.3288406216187
60,543.4005578929815
61,543.4719940796172
62,543.54317958506
63,543.6141505958958
64,543.6849484766386
65,543.7556191421892
66,543.8262124129939
67,543.8967813569401
68,543.9673816209381
69,544.0380707547167
70,544.1089075301302
71,544.1799512608785
72,544.2512611287084
73,544.3228955218793
74,544.3949113902438
75,544.4673636197315
76,544.5403044277516
77,544.6137827796554
78,544.6878438249686
79,544.7625283515514
80,544.8378722570202
81,544.9139060394813
82,544.9906543127121
83,545.0681353529715
84,545.1463606849754
85,545.2253347139089
86,545.3050544099398
87,545.3855090518313
88,545.4666800361022
89,545.5485407571548
90,545.6310565621894
91,545.7141847831273
92,545.7978748462581
93,545.8820684587531
94,545.9666998696641
95,546.051696201734
96,546.136977849265
97,546.2224589364133
98,546.3080478297006
99,546.393647698353
100,546.4791571164395
101,546.5644707016055
102,546.6494797857338
103,546.7340731123174
104,546.8181375538232
105,546.901558840932
106,546.9842222952266
107,547.0660135576738
108,547.1468193063644
109,547.2265279577473
110,547.3050303459246
111,547.3822203746496
112,547.4579956367811
113,547.5322579963017
114,547.6049141286701
115,547.675876016001
116,547.7450613940559
117,547.8123941482597
118,547.8778046561586
119,547.9412300741326
120,548.0026145668419
121,548.061909478717
122,548.1190734476261
123,548.1740724615721
124,548.2268798600023
125,548.2774762822559
126,548.3258495668338
127,548.371994606258
128,548.4159131629893
129,548.4576136521051
130,548.497110896168
131,548.5344258570954
132,548.5695853492232
133,548.6026217372419
134,548.6335726218928
135,548.6624805150761
136,548.6893925048267
137,548.7143599102594
138,548.7374379273618
139,548.7586852680283
140,548.7781637963268
141,548.7959381671515
142,548.8120754728513
143,548.8266449031104
144,548.8397174225323
145,548.8513654692623
146,548.8616626764656
147,548.8706836166873
148,548.8785035677045
149,548.8851982980152
150,548.8908438703118
151,548.8955164614699
152,548.8992921974752
153,548.9022470014298
154,548.9044564525601
155,548.9059956539968
156,548.9069391068593
157,548.9073605877202
158,548.907333025912
159,548.9069283765966
160,548.9062174854039
161,548.9052699410796
162,548.9041539136879
163,548.9029359767117
164,548.9016809116188
165,548.9004514938453
166,548.8993082605712
167,548.898309263043
168,548.8975098086279
169,548.8969621994453
170,548.8967154753022
171,548.8968151692678
172,548.8973030848305
173,548.8982171038236
174,548.8995910335408
175,548.9014544994437
176,548.9038328870668
177,548.9067473340447
178,548.9102147713311
179,548.9142480116384
180,548.918855882398
181,548.9240433995839
182,548.9298119774189
183,548.9361596674463
184,548.9430814189766
185,548.9505693519205
186,548.9586130327237
187,548.9671997443609
188,548.9763147419264
189,548.985941486444
190,548.9960618511444
191,549.0066562960799
192,549.017704007815
193,549.0291830008855
194,549.0410701772414
195,549.0533413399679
196,549.0659711590134
197,549.0789330893828
198,549.092199245227
199,549.1057402355566
200,549.1195249690444
201,549.1335204371578
202,549.1476914865598
203,549.1620005924646
204,549.1764076437919
205,549.1908697489409
206,549.2053410687757
207,549.2197726815199
208,549.2341124825225
209,549.248305120075
210,549.262291967118
211,549.2760111284609
212,549.2893974839402
213,549.3023827689047
214,549.3148956936774
215,549.3268621029147
216,549.3382051745103
217,549.3488456567161
218,549.358702141893
219,549.3676913752494
220,549.3757285964573
221,549.3827279112742
222,549.3886026896831
223,549.3932659866359
224,549.3966309808596
225,549.3986114263095
226,549.399122110134
227,549.3980793109138
228,549.3954012514884
229,549.3910085416303
230,549.3848246067868
231,549.3767760999126
232,549.3667932939256
233,549.3548104523107
234,549.3407661748645
235,549.3246037149975
236,549.3062712649081
237,549.2857222054048
238,549.2629153179892
239,549.2378149578677
240,549.210391187946
241,549.1806198757025
242,549.1484827566062
243,549.1139674684592
244,549.0770675605643
245,549.0377824809816
246,548.9961175451797
247,548.9520838896823
248,548.905698414052
249,548.8569837136006
250,548.805968004203
251,548.7526850400739
252,548.6971740250983
253,548.6394795177089
254,548.5796513287293
255,548.517744412079
256,548.4538187496123
257,548.3879392322542
258,548.3201755390029
259,548.2506020135655
260,548.17929753618
261,548.106345386224
262,548.0318330900227
263,547.9558522481393
264,547.8784983373697
265,547.7998704843493
266,547.7200712095128
267,547.6392061414408
268,547.5573837020953
269,547.4747147635485
270,547.3913122772765
271,547.3072908781083
272,547.2227664660564
273,547.1378557699043
274,547.0526758964114
275,546.9673438685883
276,546.8819761561153
277,546.7966882009621
278,546.7115939416542
279,546.6268053404581
280,546.5424319189744
281,546.4585803089598
282,546.3753538260356
283,546.2928520740751
284,546.2111705877466
285,546.1304005198798
286,546.0506283786461
287,545.9719358172484
288,545.8943994767898
289,545.8180908817966
290,545.7430763873363
291,545.669417176289
292,545.5971693048979
293,545.5263837944218
294,545.4571067667805
295,545.3893796223236
296,545.3232392578872
297,545.2587183227986
298,545.1958455093379
299,545.1346458725272
300,545.0751411726001
301,545.0173502325781
302,544.9612893028485
303,544.9069724241156
304,544.8544117799355
305,544.8036180308034
306,544.7546006233318
307,544.7073680698178
308,544.6619281950092
309,544.6182883481812
310,544.5764555799536
311,544.5364367847334
312,544.498238810926
313,544.4618685416605
314,544.4273329485019
315,544.394639119677
316,544.3637942631665
317,544.3348056842016
318,544.3076807367494
319,544.282426749529
320,544.2590509285988
321,544.2375602403471
322,544.2179612806862
323,544.2002601379987
324,544.1844622583228
325,544.1705723211622
326,544.1585941334245
327,544.1485305475372
328,544.1403834078574
329,544.1341535271813
330,544.1298406927549
331,544.1274436988176
332,544.1269604003063
333,544.1283877798904
334,544.131722018622
335,544.1369585601537
336,544.1440921599814
337,544.1531169135595
338,544.1640262592073
339,544.1768129531596
340,544.1914690154848
341,544.2079856472412
342,544.2263531208986
343,544.2465606471599
344,544.2685962217874
345,544.2924464561119
346,544.3180963948562
347,544.3455293249082
348,544.3747265786916
349,544.4056673356757
350,544.4383284251941
351,544.4726841333837
352,544.5087060173419
353,544.5463627307802
354,544.585619866919
355,544.626439825073
356,544.6687817067277
357,544.7126012449611
358,544.7578507682988
359,544.8044791971278
360,544.8524320681972
361,544.9016515808236
362,544.9520766573136
363,545.0036430099705
364,545.0562832078393
365,545.1099267376662
366,545.164500054946
367,545.2199266224036
368,545.2761269350665
369,545.3330185331147
370,545.3905160053093
371,545.4485309863293
372,545.5069721509119
373,545.5657452072888
374,545.6247528930298
375,545.683894978139
376,545.7430682821999
377,545.8021667134892
378,545.8610813379497
379,545.919700485135
380,545.9779098971583
381,546.0355929253736
382,546.0926307777803
383,546.1489028176909
384,546.204286911127
385,546.258659817607
386,546.3118976174391
387,546.3638761683055
388,546.4144715839637
389,546.463560727665
390,546.5110217125225
391,546.5567344009828
392,546.6005808960772
393,546.6424460183107
394,546.6822177638526
395,546.7197877419383
396,546.7550515916347
397,546.7879093797235
398,546.8182659818651
399,546.8460314482267
400,546.8711213527303
401,546.8934571228409
402,546.9129663451887
403,546.9295830416258
404,546.9432479104554
405,546.9539085285212
406,546.9615195115525
407,546.9660426321549
408,546.9674468963908
409,546.9657085803835
410,546.9608112277209
411,546.952745607458
412,546.941509632384
413,546.9271082383354
414,546.9095532269479
415,546.8888630752487
416,546.8650627153684
417,546.8381832866169
418,546.8082618607964
419,546.7753411403356
420,546.7394691278489
421,546.700698765441
422,546.6590875429187
423,546.6146970759777
424,546.5675926577148
425,546.5178427886486
426,546.4655186914512
427,546.4106938168172
428,546.3534433463105
429,546.2938436966749
430,546.2319720284264
431,546.1679057603061
432,546.1017220908074
433,546.0334975284135
434,545.963307433104
435,545.8912255729173
436,545.8173237006858
437,545.7416711570268
438,545.6643345056949
439,545.5853772063708
440,545.5048593285793
441,545.4228373096952
442,545.339363760028
443,545.2544873178616
444,545.1682525561451
445,545.080699940369
446,544.9918658350047
447,544.9017825548354
448,544.8104784577376
449,544.7179780761868
450,544.6243022851089
451,544.5294685035577
452,544.4334909273282
453,544.3363807891845
454,544.2381466429922
455,544.1387946679067
456,544.0383289890783
457,543.9367520119049
458,543.8340647672076
459,543.7302672644231
460,543.6253588491561
461,543.5193385607115
462,543.4122054850109
463,543.3039590987155
464,543.194599601135
465,543.0841282311815
466,542.9725475669994
467,542.8598618059119
468,542.746077021901
469,542.6312013969927
470,542.515245422054
471,542.398222062417
472,542.2801468848427
473,542.1610381441645
474,542.0409168294295
475,541.9198066697779
476,541.7977340998431
477,541.6747281840471
478,541.550820499556
479,541.4260449787565
480,541.3004377133841
481,541.1740367234872
482,541.046881695254
483,540.9190136924307
484,540.790474846442
485,540.6613080300712
486,540.5315565187709
487,540.4012636428928
488,540.2704724336298
489,540.139225265121
490,540.0075634950357
491,539.8755271062472
492,539.7431543527613
493,539.6104814134472
494,539.4775420571144
495,539.3443673222514
496,539.2109852146068
497,539.0774204258094
498,538.943694076228
499,538.8098234850315
500,538.6758219696951
501,538.5416986758504
502,538.4074584367622
503,538.2731016607481
504,538.1386242450767
505,538.0040175156838
506,537.8692681924084
507,537.7343583790042
508,537.5992655764062
509,537.4639627174638
510,537.3284182222669
511,537.1925960751219
512,537.0564559261935
513,536.9199532220268
514,536.7830393694547
515,536.6456619367586
516,536.5077648942274
517,536.3692888938051
518,536.2301715851592
519,536.0903479639055
520,535.9497507470365
521,535.8083107705921
522,535.6659574047807
523,535.5226189817457
524,535.3782232310919
525,535.2326977184116
526,535.0859702823617
527,534.9379694660328
528,534.7886249382944
529,534.6378679006353
530,534.4856314750749
531,534.3318510692554
532,534.1764647158478
533,534.0194133847336
534,533.8606412677179
535,533.7000960364035
536,533.5377290741354
537,533.3734956828182
538,533.2073552653283
539,533.0392714844194
540,532.8692123993823
541,532.6971505821375
542,532.5230632146713
543,532.3469321693964
544,532.1687440730313
545,531.9884903533945
546,531.8061672676961
547,531.6217759107113
548,531.4353222015542
549,531.2468168486073
550,531.056275293415
551,530.8637176356796
552,530.6691685424805
553,530.4726571452669
554,530.2742169281572
555,530.0738856106597
556,529.8717050270981
557,529.6677210040309
558,529.4619832363745
559,529.2545451631963
560,529.0454638450885
561,528.8347998460832
562,528.6226171236036
563,528.4089829297169
564,528.1939677260452
565,527.9776451131806
566,527.7600917734231
567,527.5413874232875
568,527.3216147699164
569,527.1008594639256
570,526.8792100407912
571,526.6567578435926
572,526.433596921162
573,526.2098238968654
574,525.985537804131
575,525.76083988579
576,525.5358333556453
577,525.3106231222832
578,525.0853154764258
579,524.8600177436697
580,524.6348379042491
581,524.409884180941
582,524.1852645959973
583,523.9610864982782
584,523.7374560625041
585,523.5144777636883
586,523.2922538315246
587,523.0708836919133
588,522.8504634056143
589,522.6310851163346
590,522.4128365216391
591,522.1958003798605
592,521.9800540651054
593,521.7656691809574
594,521.5527112419912
595,521.34123943093
596,521.1313064380928
597,520.9229583884501
598,520.716234860109
599,520.5111689963742
600,520.3077877114563
601,520.1061119872672
602,519.9061572556864
603,519.7079338576245
604,519.5114475676457
605,519.3167001713307
606,519.123690082125
607,518.9324129846623
608,518.7428624918265
609,518.5550308029965
610,518.3689093515161
611,518.1844894308757
612,518.0017627912067
613,517.8207221998672
614,517.6413619616362
615,517.4636783952383
616,517.2876702639328
617,517.1133391590619
618,516.9406898364906
619,516.7697305062095
620,516.6004730749626
621,516.4329333413336
622,516.2671311429355
623,516.1030904563044
624,515.9408394514838
625,515.7804105046824
626,515.6218401734619
627,515.4651691393725
628,515.3104421225868
629,515.1577077720623
630,515.0070185337438
631,514.858430498921
632,514.7120032351588
633,514.5677996027769
634,514.4258855600865
635,514.2863299601179
636,514.14920434059
637,514.0145827080228
638,513.8825413165379
639,513.7531584415834
640,513.6265141476503
641,513.5026900467618
642,513.3817690418829
643,513.2638350476428
644,513.1489726808446
645,513.0372669150981
646,512.9288026965602
647,512.8236645201457
648,512.7219359676068
649,512.623699211041
650,512.5290344876804
651,512.4380195536837
652,512.350729125625
653,512.2672343182888
654,512.1876020864017
655,512.1118946765232
656,512.0401690938874
657,511.97247658768777
658,511.90886215753267
659,511.8493640842485
660,511.794013490047
661,511.74283393541435
662,511.6958410616086
663,511.65304228767434
664,511.6144365697343
665,511.5800142287277
666,511.549756851168
667,511.5236372661337
668,511.50161960083807
669,511.48365941659034
670,511.4697039261444
671,511.4596922919422
672,511.45355600280607
673,511.4512193247243
674,511.4525998198689
675,511.45760892704124
676,511.4661525964008
677,511.4781319712799
678,511.4934441095959
679,511.51198273673685
680,511.5336390214722
681,511.5583023669406
682,511.5858612097557
683,511.6162038212049
684,511.6492191053951
685,511.68479739004806
686,511.72283120621955
687,511.76321605345527
688,511.80585114717513
689,511.8506401456305
690,511.89749185435943
691,511.9463209062911
692,511.9970484153205
693,512.0496026000482
694,512.103919372126
695,512.159942880518
696,512.2176260000873
697,512.2769307514924
698,512.3378286397219
699,512.4003009001808
700,512.464338643417
701,512.5299428920204
702,512.5971245056279
703,512.6659039921329
704,512.7363112054663
705,512.8083849332367
706,512.8821723807372
707,512.9577285603798
708,513.0351155971298
709,513.1144019613643
710,513.1956616411792
711,513.2789732667022
712,513.364419199279
713,513.4520845980845
714,513.5420564756914
715,513.6344227529704
716,513.7292713229187
717,513.8266891325073
718,513.926761290957
719,514.0295702119121
720,514.1351947962027
721,514.2437096617905
722,514.355184427992
723,514.4696830613113
724,514.5872632895214
725,514.707976089293
726,514.8318652513902
727,514.9589670263475
728,515.0893098523459
729,515.2229141656588
730,515.3597922927019
731,515.4999484213898
732,515.6433786480993
733,515.790071095272
734,515.940006093903
735,516.0931564248016
736,516.2494876123766
737,516.4089582648022
738,516.5715204547403
739,516.7371201350126
740,516.9056975835741
741,517.077187872132
742,517.2515213529778
743,517.4286241588393
744,517.6084187107281
745,517.7908242290882
746,517.9757572439355
747,518.163132099543
748,518.3528614482644
749,518.5448567268769
750,518.7390286085493
751,518.9352874248503
752,519.1335435544206
753,519.3337077766561
754,519.5356915892733
755,519.739407488517
756,519.944769210993
757,520.151691936907
758,520.3600924552748
759,520.5698892918305
760,520.781002800057
761,520.9933552156224
762,521.2068706749596
763,521.4214751994961
764,521.6370966476173
765,521.8536646366736
766,522.0711104373876
767,522.2893668428953
768,522.5083680141825
769,522.7280493031992
770,522.9483470551206
771,523.1691983922825
772,523.3905409836733
773,523.6123128045884
774,523.8344518907109
775,524.0568960897683
776,524.2795828128194
777,524.5024487868137
778,524.7254298105328
779,524.9484605169677
780,525.1714741461335
781,525.3944023330657
782,525.6171749163914
783,525.8397197733194
784,526.0619626868748
785,526.2838272506419
786,526.5052348153151
787,526.7261044801106
788,526.94635313075
789,527.1658955245904
790,527.3846444227994
791,527.6025107692544
792,527.8194039156017
793,528.0352318911434
794,528.2499017149419
795,528.4633197461719
796,528.6753920676624
797,528.8860248969554
798,529.0951250192584
799,529.3026002371802
800,529.5083598325211
801,529.7123150351119
802,529.9143794928644
803,530.1144697364105
804,530.3125056313728
805,530.5084108113433
806,530.7021130847398
807,530.8935448088457
808,531.0826432248975
809,531.2693507494082
810,531.4536152186951
811,531.6353900851349
812,531.8146345645469
813,531.9913137342868
814,532.1653985813141
815,532.3368659989407
816,532.5056987304258
817,532.6718852572187
818,532.8354196297877
819,532.9963012399097
820,533.1545345349082
821,533.3101286760885
822,533.4630971450329
823,533.6134573023162
824,533.7612299039179
825,533.9064385815499
826,534.0491092943397
827,534.189269760378
828,534.326948877224
829,534.4621761405749
830,534.5949810701183
831,534.7253926511634
832,534.853438800039
833,534.9791458605774
834,535.1025381384172
835,535.2236374794662
836,535.3424628987624
837,535.4590302661885
838,535.5733520558365
839,535.6854371658908
840,535.7952908152967
841,535.9029145219071
842,536.0083061641352
843,536.1114601247405
844,536.2123675121663
845,536.3110164527066
846,536.4073924458587
847,536.5014787750872
848,536.5932569663681
849,536.6827072871124
850,536.7698092783845
851,536.8545423138324
852,536.936886179201
853,537.0168216663443
854,537.0943311750898
855,537.1693993153043
856,537.2420135004976
857,537.3121645237874
858,537.3798471071285
859,537.4450604148933
860,537.5078085229017
861,537.5681008344521
862,537.6259524365025
863,537.6813843915704
864,537.7344239632297
865,537.7851047749102
866,537.8334669034028
867,537.87955691023
868,537.9234278154744
869,537.9651390191108
870,538.0047561742238
871,538.0423510153927
872,538.0780011447936
873,538.1117897782741
874,538.1438054532107
875,538.1741416989737
876,538.2028966696951
877,538.230172738633
878,538.2560760541379
879,538.2807160586143
880,538.304204973297
881,538.3266572528273
882,538.3481890145306
883,538.3689174481801
884,538.3889602129011
885,538.4084348281104
886,538.4274580642812
887,538.4461453370758
888,538.4646101060401
889,538.4829632774779
890,538.5013126105704
891,538.5197621259905
892,538.5384115169412
893,538.5573555637055
894,538.5766835543518
895,538.5964787160933
896,538.6168176640384
897,538.637769876522
898,538.6593972080651
899,538.6817534514165
900,538.7048839590085
901,538.7288253320628
902,538.7536051832499
903,538.7792419767309
904,538.8057449477983
905,538.8331141032478
906,538.8613403032161
907,538.8904054254245
908,538.920282612798
909,538.9509366043466
910,538.9823241469142
911,539.0143944828865
912,539.0470899070516
913,539.0803463844231
914,539.1140942195838
915,539.1482587672253
916,539.1827611735031
