frame_number,force
0,643.05713000005
1,642.8869823493327
2,642.72284228761
3,642.5703585930204
4,642.434518833997
5,642.319446905529
6,642.2283107824268
7,642.1633043149296
8,642.1256363804014
9,642.1154733552146
10,642.1318320404596
11,642.1724733814008
12,642.233867059177
13,642.3112772465597
14,642.39898156828
15,642.490607297878
16,642.5795656808582
17,642.6595713645336
18,642.7252178614575
19,642.7725372147848
20,642.7994375523009
21,642.8059198692222
22,642.7940229897765
23,642.7675079702774
24,642.7313468042564
25,642.6911101089519
26,642.652350223657
27,642.6200566002246
28,642.5982299337674
29,642.5895910821284
30,642.5954217889533
31,642.6155325817699
32,642.6483642962072
33,642.6912378260643
34,642.7407546071846
35,642.7933174454438
36,642.8457061110289
37,642.8956203995016
38,642.9420961816814
39,642.9857052089282
40,643.0284715802757
41,643.0734833132663
42,643.1242437192402
43,643.1838757513223
44,643.2543362460401
45,643.3357983022397
46,643.4263222973357
47,643.5218784688069
48,643.6167239472977
49,643.7040785161282
50,643.7769853944668
51,643.8291999422073
52,643.8559486901329
53,643.854454785373
54,643.8242047764326
55,643.7669898387895
56,643.6867715994198
57,643.5894109375497
58,643.4822792448214
59,643.3737609917328
60,643.2726601760737
61,643.1875372223883
62,643.1260171302641
63,643.0941180295645
64,643.095655313392
65,643.1317856631679
66,643.2007630013842
67,643.2979734378331
68,643.4162907233238
69,643.5467451636783
70,643.6794350874698
71,643.8045532732676
72,643.9133763281004
73,643.9990801656919
74,644.0572831221065
75,644.0862591867048
76,644.0868074541906
77,644.0618232412679
78,644.0156814618003
79,643.9535772238312
80,643.880950169431
81,643.8030633199359
82,643.7247451406622
83,643.6502575243262
84,643.5832312775176
85,643.5266113067158
86,643.4825671288362
87,643.4523455864133
88,643.4360723094311
89,643.4325466121874
90,643.4391118584704
91,643.4516976368101
92,643.4651024554466
93,643.473521839329
94,643.4712530779437
95,643.4534536560934
96,643.4168161499242
97,643.3600479967245
98,643.2840881541212
99,643.1920346617441
100,643.0887965258228
101,642.9805205354198
102,642.8738678665378
103,642.775224318007
104,642.689935860988
105,642.6216709642646
106,642.5720029768007
107,642.5402683513405
108,642.523709388053
109,642.517877093998
110,642.5172458291973
111,642.5159582942404
112,642.5085810101061
113,642.4907351088042
114,642.4594972486924
115,642.413531631361
116,642.3529808605407
117,642.2791811565304
118,642.1942771435012
119,642.100809672179
120,642.0013419986773
121,641.8981710176625
122,641.7931455191182
123,641.687594071262
124,641.5823541387421
125,641.4778837694892
126,641.374424253282
127,641.272175517828
128,641.1714559645873
129,641.072840177127
130,640.977278852204
131,640.8861863549186
132,640.8014451938378
133,640.7252645367784
134,640.6598715794386
135,640.60709510154
136,640.5679665916072
137,640.5424661677042
138,640.5294741091618
139,640.5268993303582
140,640.5318992424055
141,640.5411068537433
142,640.55082610551
143,640.5572073376267
144,640.556439773618
145,640.5449907041657
146,640.5198939841252
147,640.4790589551071
148,640.4215452213801
149,640.3477345350996
150,640.2593348611676
151,640.1591775219529
152,640.0508104751863
153,639.9379398431078
154,639.8238208164512
155,639.710733488278
156,639.5996734550945
157,639.4903298149521
158,639.3813409314613
159,639.2707544027081
160,639.1565914909543
161,639.0374156196729
162,638.9128100032352
163,638.7836778514863
164,638.6523044615068
165,638.5221734479416
166,638.3975935407141
167,638.2832359367336
168,638.183683313476
169,638.1030525407502
170,638.0446981003553
171,638.010967232251
172,638.0029836556389
173,638.0204725159869
174,638.0616679380943
175,638.1233420262736
176,638.2009684097336
177,638.2890066016104
178,638.3812783128886
179,638.4714020860927
180,638.5532513695861
181,638.6214012755362
182,638.6715312713403
183,638.7007509750777
184,638.7078141440923
185,638.6931934628991
186,638.6590109472842
187,638.6088406282415
188,638.5474059118516
189,638.4801889508966
190,638.4129718757632
191,638.3513482412608
192,638.300265770728
193,638.2636668770107
194,638.2442709915276
195,638.2435045085862
196,638.2615540959641
197,638.2975101732249
198,638.3495708294649
199,638.4152745031465
200,638.4917188507684
201,638.5757226570006
202,638.6639162411458
203,638.7527922151424
204,638.8387785850152
205,638.9183897055403
206,638.9884752396439
207,639.0465425259054
208,639.0910911156235
209,639.1218819997889
210,639.140070829752
211,639.1481574393167
212,639.1497352343126
213,639.1490588827893
214,639.1504852883571
215,639.1578799952732
216,639.1741098862981
217,639.200740129987
218,639.2380006360718
219,639.2850006586443
220,639.3400958108497
221,639.4012882809442
222,639.4665710409482
223,639.5341823093196
224,639.6027836572094
225,639.6715940184257
226,639.7405009660848
227,639.8101413383401
228,639.8819138617132
229,639.9578771702389
230,640.0405087936497
231,640.132342229332
232,640.2355326844906
233,640.3514144225655
234,640.480114579191
235,640.6202907681933
236,640.7690556266352
237,640.9221268713777
238,641.0741984080497
239,641.2194849237363
240,641.3523634819132
241,641.4680220185188
242,641.5630236303018
243,641.6357058961852
244,641.6863551770596
245,641.7171285325738
246,641.7317428863392
247,641.7350042332112
248,641.732285390845
249,641.7290551756465
250,641.7305146964338
251,641.7413340667514
252,641.7654369881708
253,641.80577037229
254,641.8640232294546
255,641.9403105529759
256,642.0328930727015
257,642.1380384509082
258,642.2501226842338
259,642.3620211393609
260,642.4657716184506
261,642.5534336214707
262,642.618025284411
263,642.6543931947579
264,642.6598740390247
265,642.6346493207009
266,642.5817550640255
267,642.5067594590287
268,642.4171598221593
269,642.321587290721
270,642.2289392347737
271,642.1475671217478
272,642.0846206908461
273,642.0455969646463
274,642.0340896607908
275,642.05170350391
276,642.0980940221211
277,642.1711075893766
278,642.2670140048925
279,642.3808299118512
280,642.5067229267543
281,642.6384756579569
282,642.7699817729087
283,642.8957324689717
284,643.0112275685782
285,643.1132322487919
286,643.1998266668413
287,643.2702616280142
288,643.3246988797882
289,643.3639363839523
290,643.3891921973332
291,643.4019702067343
292,643.4039829843088
293,643.3970822283413
294,643.3831568302116
295,643.3639928287075
296,643.341122303229
297,643.3157003209166
298,643.2884440611249
299,643.2596595190696
300,643.2293676839511
301,643.197515394435
302,643.1642238304689
303,643.1300068508717
304,643.0958904712857
305,643.0633875622815
306,643.0343268843603
307,643.0105820620184
308,642.9937679738351
309,642.9849672867748
310,642.9845339952587
311,642.992001253206
312,643.0060958905623
313,643.0248353967927
314,643.0456674654415
315,643.0656186665408
316,643.0814424640492
317,643.0897778935777
318,643.0873345846085
319,643.0711099429953
320,643.0386320753869
321,642.988217727037
322,642.9192363271825
323,642.8323648433712
324,642.7297955150389
325,642.6153314735079
326,642.4942954249777
327,642.3732004309533
328,642.2591904216221
329,642.1593308375303
330,642.0798826690277
331,642.0256984073942
332,641.9998306916129
333,642.0033683244707
334,642.0354535838973
335,642.0934187087536
336,642.1730004784549
337,642.2686212501937
338,642.3737403285988
339,642.4812748911166
340,642.5840731166886
341,642.6754090321647
342,642.7494670339302
343,642.8017867186857
344,642.8296323201588
345,642.8322338193918
346,642.8108359629551
347,642.768511938331
348,642.7097539599224
349,642.6399122311366
350,642.5645826093275
351,642.489039278025
352,642.4177858163916
353,642.3542628979327
354,642.3007106839437
355,642.2581531260485
356,642.2264617717344
357,642.2044716895807
358,642.1901514075652
359,642.1808480238583
360,642.173617812447
361,642.1656153656699
362,642.1544775062545
363,642.1386304790656
364,642.1174752014099
365,642.0914437376147
366,642.0619450455426
367,642.0312221428666
368,642.002136870568
369,641.9778958761207
370,641.9617380656291
371,641.9566167055308
372,641.9649194262693
373,641.9882659399333
374,642.027403205415
375,642.0821915502057
376,642.1516584273467
377,642.2340936988835
378,642.3271644231195
379,642.4280321579417
380,642.5334620529537
381,642.6399207815361
382,642.743668566534
383,642.8408600143806
384,642.9276765198305
385,643.0005081589317
386,643.0561791803295
387,643.0921847882524
388,643.1069023634199
389,643.099758160955
390,643.0713467062537
391,643.0234976586738
392,642.9592705967976
393,642.8828488556708
394,642.7993094186099
395,642.7142642225764
396,642.6333902189651
397,642.5618899306545
398,642.5039532631563
399,642.4623134862095
400,642.4379873808288
401,642.4302587154505
402,642.436917172529
403,642.4547137439542
404,642.4799523560584
405,642.5091226153345
406,642.5394908603535
407,642.5695846315259
408,642.5995120875302
409,642.6310589989977
410,642.6675160575068
411,642.7132177728021
412,642.7728289938116
413,642.850489940626
414,642.9489886401367
415,643.0691281069845
416,643.2093941511399
417,643.3659517331579
418,643.532941924865
419,643.7030232649736
420,643.8680888479239
421,644.0200818782328
422,644.1518189407623
423,644.257713731412
424,644.3342909797523
425,644.3804088488729
426,644.3971685772431
427,644.3875605103927
428,644.3559462374145
429,644.3074881123563
430,644.2476105193513
431,644.1815314234665
432,644.113866024538
433,644.0482966390949
434,643.987322189929
435,643.932123256087
436,643.8825812519574
437,643.8374685247355
438,643.7947881894602
439,643.7522021341953
440,643.7074633548451
441,643.6587766681381
442,643.6050392306522
443,643.5459426665482
444,643.4819452265546
445,643.4141407297261
446,643.3440587722944
447,643.2734342446538
448,643.2039892186681
449,643.137271626221
450,643.07458362581
451,643.0170075835543
452,642.9655078301223
453,642.9210573956152
454,642.8847145423424
455,642.8575727937379
456,642.8405519537695
457,642.8340718836924
458,642.8377071861127
459,642.8499290542823
460,642.8680121710796
461,642.8881427398545
462,642.9057184538098
463,642.9157918429821
464,642.9135890088298
465,642.8950374320337
466,642.857246645601
467,642.7988952195608
468,642.7204859108978
469,642.6244397223059
470,642.5150118283982
471,642.3980278180738
472,642.2804515965374
473,642.1698038216032
474,642.0734607191482
475,641.9978899594311
476,641.9479212969825
477,641.9261788809774
478,641.9327853076148
479,641.9653825074438
480,642.0194435495905
481,642.0888104681057
482,642.1663791756207
483,642.24484047772
484,642.3173796840514
485,642.3782504224529
486,642.4231645357423
487,642.4494674483735
488,642.456101041655
489,642.4433931039304
490,642.4127328425627
491,642.3661852190539
492,642.3060854136985
493,642.2346636488361
494,642.1537729032361
495,642.0647977659208
496,641.9687896943273
497,641.8668055717158
498,641.7603509038443
499,641.651784173909
500,641.5445463944935
501,641.4431288462187
502,641.3527550931522
503,641.2788149235624
504,641.226143920412
505,641.1982838028342
506,641.1968709765472
507,641.2212765031969
508,641.2685659247251
509,641.3337782371029
510,641.4104603847824
511,641.4913554051
512,641.5691352982118
513,641.6370853959679
514,641.6896721285127
515,641.7229514895174
516,641.7347996399149
517,641.7249739485442
518,641.6950373203874
519,641.6481820939138
520,641.5889653616142
521,641.5229389441998
522,641.4561551571068
523,641.394559892675
524,641.3433291679335
525,641.3062440551079
526,641.2852179508905
527,641.2800740487347
528,641.288612784946
529,641.3069338570567
530,641.3299295769898
531,641.351866103842
532,641.3669982297532
533,641.3701911407331
534,641.3575283656268
535,641.3268631973493
536,641.2782346672014
537,641.2140492138826
538,641.13894942554
539,641.0593463467848
540,640.9826570914502
541,640.9163483284931
542,640.8669360786728
543,640.839122872454
544,640.8352363432167
545,640.855053032201
546,640.8959800203817
547,640.9534870976038
548,641.0216685486956
549,641.0938507627769
550,641.1632081703578
551,641.2233693052793
552,641.268977983986
553,641.2961464972583
554,641.3027345092784
555,641.2884222401485
556,641.2546004787977
557,641.2041416263036
558,641.1411238726613
559,641.0705527065373
560,640.9980808579991
561,640.9297051094503
562,640.871434264322
563,640.8289533205444
564,640.8073170796857
565,640.8106845819694
566,640.842078138908
567,640.9031446313296
568,640.9939191672844
569,641.1126240006461
570,641.2555547877203
571,641.4171047903093
572,641.5899621136986
573,641.7654927718036
574,641.9343016087679
575,642.0869486114741
576,642.2147786930419
577,642.3107837287007
578,642.3703685147661
579,642.3918745474558
580,642.3767507568498
581,642.3293364203768
582,642.256305420508
583,642.1658809683315
584,642.0669476667788
585,641.9681682325213
586,641.8771820227299
587,641.7999481504639
588,641.7402973814161
589,641.699748047489
590,641.6776027821237
591,641.6712891503644
592,641.6768710450002
593,641.6896569314658
594,641.7048503100953
595,641.7181914934824
596,641.7265140626414
597,641.7281143975713
598,641.722848101861
599,641.7119288413593
600,641.6974850520619
601,641.6819917300713
602,641.6677140713891
603,641.6562730673644
604,641.6483864701211
605,641.643783248277
606,641.6412617976773
607,641.6388596453045
608,641.6341042099597
609,641.6243100511798
610,641.6068847637664
611,641.5796105038805
612,641.5408797667349
613,641.4898748388589
614,641.4266794483406
615,641.3522971310614
616,641.2685453329766
617,641.1778209061385
618,641.082779748585
619,640.986004452367
620,640.8897334176502
621,640.7957045693746
622,640.7051353191939
623,640.618820765322
624,640.5373004192844
625,640.4610391784568
626,640.3905877188988
627,640.3267079136583
628,640.270450601832
629,640.2231584205222
630,640.1863606819387
631,640.1615528550509
632,640.1499009864284
633,640.1519487525195
634,640.1674102614143
635,640.1951090073699
636,640.2330853856628
637,640.2788511501635
638,640.3297315184376
639,640.3832209920146
640,640.4372916795542
641,640.4906172763074
642,640.5426928067463
643,640.5938350373731
644,640.6450511603571
645,640.6977798261925
646,640.7535462647302
647,640.81361577288
648,640.8787446002881
649,640.9490966344737
650,641.0243325706437
651,641.1038166909267
652,641.1868529186756
653,641.2728695399182
654,641.3615091491487
655,641.4526184325273
656,641.5461569487776
657,641.6420609124372
658,641.7401044532237
659,641.8397847982891
660,641.9402304411672
661,642.0401248323975
662,642.1376627480331
663,642.2305851809601
664,642.3163405808855
665,642.392392550712
666,642.456653235634
667,642.507979308668
668,642.5466286584183
669,642.5745546560019
670,642.5954323719279
671,642.6143714315547
672,642.6373481757008
673,642.6704510475543
674,642.7190630195119
675,642.7871101560067
676,642.8764921278749
677,642.9867767824584
678,643.1151920019839
679,643.2568999780893
680,643.4055025207872
681,643.5537006849738
682,643.6940162775309
683,643.8194808366883
684,643.9242158692955
685,644.0038656043339
686,644.0558841547107
687,644.0796995723815
688,644.0767685927328
689,644.0505106604053
690,644.0060908582227
691,643.9500275037198
692,643.8896356554256
693,643.8323643103947
694,643.785113612858
695,643.753614690773
696,643.741927042619
697,643.7520755905743
698,643.783830246244
699,643.8346341764302
700,643.8997054706696
701,643.9723525747723
702,644.0445376611225
703,644.107681201749
704,644.153634285799
705,644.175687397737
706,644.1694661023344
707,644.1335846468013
708,644.0699662545084
709,643.9837788967533
710,643.882980837453
711,643.7775274270457
712,643.6783475163083
713,643.5962293855906
714,643.5407500022435
715,643.51935199253
716,643.5366454601565
717,643.5939953700682
718,643.689435708046
719,643.8179164871368
720,643.9718444342083
721,644.1418363835369
722,644.3175769765319
723,644.4886698649092
724,644.6453999397977
725,644.7793714464706
726,644.884027700207
727,644.9550722903938
728,644.9907962193134
729,644.9922848121223
730,644.9634560413431
731,644.9108813240015
732,644.8433530813015
733,644.7711834500585
734,644.7052571986582
735,644.6559247682095
736,644.6318838005204
737,644.6392227825343
738,644.6807705948767
739,644.755825622506
740,644.8602670355006
741,644.9870095758904
742,645.1267487177864
743,645.2689354976042
744,645.4029070406791
745,645.5190743328386
746,645.6100342551689
747,645.6714442215078
748,645.7025006024076
749,645.7059131983738
750,645.6873590581326
751,645.6544979216909
752,645.6157064767889
753,645.578730631695
754,645.5494719587111
755,645.5311152713052
756,645.5237529599658
757,645.5245633932664
758,645.5284836785772
759,645.5292239163721
760,645.520423267364
761,645.4967457097374
762,645.4547444942139
763,645.3933766211062
764,645.3141112431662
765,645.2206431846765
766,645.1182893306753
767,645.0131967113392
768,644.9115077260558
769,644.8186075416727
770,644.7385420425038
771,644.673660423979
772,644.624500669305
773,644.5898944229273
774,644.5672372479246
775,644.5528659898249
776,644.5424962393365
777,644.5316809609966
778,644.516251570683
779,644.4927001042778
780,644.4584625414847
781,644.4120762640338
782,644.3532076867153
783,644.2825654236573
784,644.2017191448625
785,644.1128387810666
786,644.0183670409708
787,643.9206528958072
788,643.8216024850079
789,643.7224246228454
790,643.6235365500997
791,643.524648850816
792,643.4249859669851
793,643.3235497006317
794,643.2193245128389
795,643.1113608986395
796,642.9987320483673
797,642.8804099492648
798,642.7551378224533
799,642.6213814100931
800,642.477417466172
801,642.3215691775308
802,642.1525428401648
803,641.9697809571297
804,641.7737423405301
805,641.5660496918038
806,641.3494869648447
807,641.1278549698751
808,640.9056966502534
809,640.6879038196506
810,640.4792399232743
811,640.2838523380631
812,640.1048660309667
813,639.944126924342
814,639.802120677526
815,639.6780648007555
816,639.5701625852638
817,639.4759949655212
818,639.3929981477061
819,639.318942254902
820,639.2523153318745
821,639.192542553274
822,639.1400192177351
823,639.0959809017967
824,639.0622580392392
825,639.0409624914537
826,639.0341377587721
827,639.0433910252297
828,639.0695327072265
829,639.1122741185247
830,639.1700510511284
831,639.2400301642122
832,639.3183204226787
833,639.4003709910121
834,639.4814991821667
835,639.5574616008732
836,639.6249708077468
837,639.6820781651154
838,639.7283823661401
839,639.7650619073222
840,639.7947492042102
841,639.8212596233504
842,639.8491823943275
843,639.8833607298166
844,639.9283291103546
845,639.9877992888742
846,640.0642741217873
847,640.1588365217759
848,640.2711296664626
849,640.3995135564352
850,640.5413470320043
851,640.6933157518495
852,640.8517257889278
853,641.012713342222
854,641.172366603112
855,641.3267924246026
856,641.4721723168904
857,641.6048414228777
858,641.7214084523049
859,641.8189279274269
860,641.8951312465333
861,641.9487030707272
862,641.9795559176138
863,641.9890340930939
864,641.9799865612423
865,641.9566730131693
866,641.9244852166408
867,641.8894815402039
868,641.8577667603026
869,641.8347983156757
870,641.824736673934
871,641.8299614234736
872,641.850842937085
873,641.8857996205447
874,641.9316074699092
875,641.9838944886446
876,642.0377515644692
877,642.0883950942836
878,642.1318067605854
879,642.1652635446148
880,642.1876731010539
881,642.1996520456073
882,642.203323439599
883,642.2018541093627
884,642.1987952013608
885,642.1973296538587
886,642.199559638897
887,642.20596875974
888,642.2151629582243
889,642.2239425366438
890,642.2276982927656
891,642.2210656993293
892,642.1987224809534
893,642.1561893481681
894,642.0904996839881
895,642.0006399783962
896,641.8877157122192
897,641.7548518611438
898,641.6068810572872
899,641.4498920186247
900,641.2906986906568
901,641.1362618820486
902,640.9930796797134
903,640.8665768232298
904,640.7605540699103
905,640.6767778146676
906,640.614783510636
907,640.5719424521217
908,640.5438071893278
909,640.5247047793957
910,640.5085005143143
911,640.4894271410254
912,640.462868558234
913,640.4259912641489
914,640.378127390018
915,640.3208388987003
916,640.2576435723611
917,640.1934547866939
918,640.1338525532528
