acceleration,velocity,displacement
0.015132406807060992,0.0,0.0
0.013878039460329802,7.252611566847698e-06,1.8131528917119247e-09
0.012627227822864271,1.3878928387646217e-05,7.096037880335404e-09
0.01138350446556711,1.9881611459754064e-05,1.5536172842185473e-08
0.010150356061731985,2.526507659157884e-05,2.68228448550187e-08
0.008931201365718984,3.003546594844158e-05,4.064798049002381e-08
0.007729370245947735,3.420060885135826e-05,5.670699918997377e-08
0.006548084027812525,3.776997241979832e-05,7.46996445077629e-08
0.005390437333976966,4.075460276024569e-05,9.433078830277391e-08
0.004259381547441103,4.316705748060021e-05,1.1531120336298538e-07
0.0031577099765570504,4.502133036159975e-05,1.3735830032353539e-07
0.002088044771997739,4.633276904873845e-05,1.6019682517611995e-07
0.0010528256252521138,4.7117986648050915e-05,1.8355951410031728e-07
5.430025475193155e-05,4.7394768118051925e-05,2.07187702791843e-07
-0.0009054833446091448,4.718197234558762e-05,2.3083188790775287e-07
-0.001824682941185003,4.649943077413908e-05,2.5425223868768457e-07
-0.002701666465333964,4.536784342250934e-05,2.772190572368467e-07
-0.003535014844401152,4.380867309507556e-05,2.995131863662429e-07
-0.004323523357954925,4.184403854448654e-05,3.209263642761334e-07
-0.005066201608248699,3.949660730293563e-05,3.41261525737989e-07
-0.0057622722138243035,3.678948884741738e-05,3.6033304977557724e-07
-0.006411168346499686,3.3746128707336386e-05,3.779669541642657e-07
-0.007012530241238174,3.039020406040192e-05,3.9400103735620023e-07
-0.007566200809838624,2.674552129763272e-05,4.082849686957089e-07
-0.008072220479644293,2.2835915975261993e-05,4.206803280139326e-07
-0.008530821357720575,1.8685155515920774e-05,4.310605958867283e-07
-0.008942420791500089,1.4316844978615608e-05,4.393110960103624e-07
-0.009307614362436697,9.754336190131411e-06,4.4532889130254914e-07
-0.009627168316757967,5.020640520332745e-06,4.490226354801652e-07
-0.009902011414064472,1.3834558762713589e-07,4.503123820071552e-07
-0.010133226165320018,-4.870463807218987e-06,4.4912935245225723e-07
-0.010322039439459326,-9.984280208413823e-06,4.45415666448349e-07
-0.010469812439499241,-1.5182243178153464e-05,4.391240356017072e-07
-0.010578030075738246,-2.044420380696284e-05,4.302174238554281e-07
-0.010648289787845308,-2.5750783772858727e-05,4.186686769604727e-07
-0.010682289887906654,-3.1083428691796715e-05,4.0446012384430887e-07
-0.01068181751165837,-3.642445554168797e-05,3.875831527859377e-07
-0.01064873627239595,-4.175709398770155e-05,3.6803776540359034e-07
-0.010584973712404898,-4.706552148390177e-05,3.458321115356895e-07
-0.01049250864527388,-5.233489207332146e-05,3.2098200814638374e-07
-0.010373358485873152,-5.755135885610822e-05,2.9351044541402633e-07
-0.010229566676824812,-6.270209014678271e-05,2.634470831633036e-07
-0.010063190335686279,-6.777527939991048e-05,2.308277407766303e-07
-0.009876288252587663,-7.276014904697897e-05,1.9569388366490795e-07
-0.009670909355674977,-7.764694844904463e-05,1.5809210929090207e-07
-0.009449081736213628,-8.242694622201678e-05,1.180736356231367e-07
-0.009212802297504222,-8.709241723044625e-05,7.569379476002094e-08
-0.008964027067436868,-9.163662457168153e-05,3.1011534309489e-08
-0.008704662196509871,-9.605379688766821e-05,-1.5911071055348437e-08
-0.008436555657037676,-0.0001003391013510551,-6.500929561502925e-08
-0.008161489667132602,-0.00010448861268209768,-1.1621622412331745e-07
-0.007881173874255491,-0.0001084992785674447,-1.6946319693570304e-07
-0.007597239330522225,-0.00011236888186863913,-2.24680237044724e-07
-0.00731123326792615,-0.00011609600001825122,-2.817964575164466e-07
-0.007024614646666786,-0.00011967996199689946,-3.4074044802023424e-07
-0.006738750421822514,-0.00012312080326402179,-4.0144063933546456e-07
-0.006454912461483932,-0.00012641921898484839,-4.638256448976821e-07
-0.006174275049920433,-0.0001295765158626995,-5.27824578609569e-07
-0.0058979129157783455,-0.0001325945628541242,-5.93367348288775e-07
-0.005626799734177843,-0.00013547574101661322,-6.603849242564594e-07
-0.005361807059505922,-0.00013822289271503416,-7.288095826893713e-07
-0.005103703647892877,-0.00014083927039188385,-7.985751234661008e-07
-0.004853155122811934,-0.00014332848508456005,-8.696170623352118e-07
-0.004610723931757487,-0.0001456944548482024,-9.418727973184024e-07
-0.004376869549666924,-0.0001479413532185585,-1.0152817493350926e-06
-0.004151948911502473,-0.00015007355783385086,-1.089785477098195e-06
-0.00393621709391968,-0.0001520955993352064,-1.1653277663904591e-06
-0.0037298282994929002,-0.00015401211068355954,-1.2418546938951506e-06
-0.0035328372175401227,-0.0001558277770628178,-1.3193146658317448e-06
-0.0033452008424223255,-0.00015754728657780843,-1.3976584317419014e-06
-0.0031667808259624422,-0.00015917528199490462,-1.4768390738850797e-06
-0.0029973464265532013,-0.00016071631380803352,-1.5568119728358143e-06
-0.0028365780958338176,-0.00016217479493863029,-1.6375347500224803e-06
-0.0026840717221532804,-0.00016355495739312707,-1.7189671881054196e-06
-0.002539343537658593,-0.00016486081120808003,-1.8010711302557212e-06
-0.002401835696847386,-0.00016609610601670653,-1.883810359561918e-06
-0.002270922541253216,-0.00016726429557623168,-1.9671504599601525e-06
-0.0021459175629567765,-0.00016836850560228417,-2.0510586602547813e-06
-0.0020260810608124713,-0.0001694115052582265,-2.135503662969909e-06
-0.0019106284525565681,-0.00017039568263656874,-2.220455459943608e-06
-0.0017987391735245835,-0.00017132302454308902,-2.305885136738522e-06
-0.0016895660655726287,-0.00017219510085286332,-2.3917646680875102e-06
-0.0015822451424397943,-0.00017301305365486643,-2.478066706714443e-06
-0.0014759056134867735,-0.00017377759134384806,-2.5647643679641213e-06
-0.0013696800541838576,-0.00017448898776076572,-2.6518310127402746e-06
-0.0012627146165901234,-0.0001751470864284592,-2.739240031287581e-06
-0.0011541791636962171,-0.00017575130987353078,-2.826964630363078e-06
-0.0010432771883568785,-0.00017630067396154405,-2.9149776263218467e-06
-0.0009292553538465863,-0.0001767938070970949,-3.0032512465865064e-06
-0.0008114124847506804,-0.0001772289740567442,-3.091756941874966e-06
-0.0006891078508691855,-0.00017760410414064916,-3.1804652114243144e-06
-0.0005617686186606497,-0.00017791682325803162,-3.2693454432739846e-06
-0.0004288963836541686,-0.00017816448950861032,-3.3583657714656453e-06
-0.0002900727331797609,-0.0001783442317878188,-3.4474929517897527e-06
-0.00014496381587177426,-0.0001784529909250817,-3.536692257467978e-06
6.676089152768607e-06,-0.00017848756285676143,-3.6259273959134385e-06
0.00016500200198528328,-0.00017844464333397693,-3.715160447461123e-06
0.00033007666385616785,-0.00017832087366751657,-3.804351826711496e-06
0.0005018699407719516,-0.00017811288701635955,-3.893460266882465e-06
0.0006802591971979928,-0.00017781735473186707,-3.982442827319522e-06
0.0008650306322138037,-0.00017743103227451412,-4.071254924071117e-06
0.0010558815776594106,-0.0001769508042220458,-4.159850383195257e-06
0.0012524237595024324,-0.00017637372788775535,-4.2481815162227075e-06
0.0014541875124219963,-0.00017569707506977423,-4.33619921696209e-06
0.001660626912458575,-0.0001749183714635541,-4.423853078595422e-06
0.0018711257596221516,-0.0001740354332955339,-4.5110915297851944e-06
0.002085004310703938,-0.00017304640077795238,-4.597861988303566e-06
0.0023015266408962713,-0.00017194976804005234,-4.684111030508067e-06
0.0025199085042188684,-0.00017074440925377355,-4.769784574831523e-06
0.002739325563569408,-0.0001694296007368265,-4.854828077329173e-06
0.0029589218662000867,-0.0001680050388793841,-4.939186737233225e-06
0.0031778184491121244,-0.00016647085380055605,-5.02280571040321e-06
0.0033951219726370153,-0.00016482761869511878,-5.105630328527129e-06
0.0036099332954825287,-0.0001630763548780889,-5.1876063219204305e-06
0.003821355913781322,-0.00016121853257577293,-5.268680043783896e-06
0.0040285041883439485,-0.0001592560675502416,-5.348798693815399e-06
0.004230511284595381,-0.00015719131368200677,-5.427910539123461e-06
0.004426536752808575,-0.00015502705167265578,-5.505965130462127e-06
0.004615773680246094,-0.0001527664740643921,-5.582913511896389e-06
0.004797455350108107,-0.00015041316680680354,-5.658708422114188e-06
0.004970861346400359,-0.00014797108763267642,-5.733304485724058e-06
0.005135323049616184,-0.0001454445415336723,-5.8066583930156455e-06
0.005290228476557235,-0.00014283815365212892,-5.878729066812096e-06
0.005435026433120569,-0.00014015683992470946,-5.949477815206305e-06
0.005569229973332783,-0.00013740577582309612,-6.018868469143256e-06
0.005692419184043744,-0.00013459036353375198,-6.086867503982468e-06
0.005804243331261438,-0.0001317161979049257,-6.153444144342137e-06
0.005904422406816383,-0.00012878903147040623,-6.21857045168597e-06
0.005992748104996632,-0.00012581473884245298,-6.282221394264185e-06
0.006069084242428261,-0.00012279928075559676,-6.344374899163698e-06
0.006133366616665468,-0.00011974866804082334,-6.405011886362803e-06
0.006185602285962155,-0.00011666892581516643,-6.4641162848268e-06
0.006225868249769454,-0.00011356605818123353,-6.5216750308258995e-06
0.006254309517100925,-0.00011044601373951593,-6.577678048806087e-06
0.006271136561672362,-0.00010731465221982261,-6.632118215295922e-06
0.006276622171974901,-0.00010417771253641079,-6.6849913064849805e-06
0.006271097712191582,-0.00010104078256536916,-6.736295930260426e-06
0.006254948821109245,-9.790927093204396e-05,-6.786033443634779e-06
0.006228610589503943,-9.478838107939066e-05,-6.834207856637638e-06
0.006192562265334803,-9.168308786568097e-05,-6.880825723873906e-06
0.006147321538222717,-8.859811691479159e-05,-6.925896025069024e-06
0.00609343845640018,-8.553792691613586e-05,-6.969430036026756e-06
0.0060314890383024716,-8.25066950424602e-05,-7.011441191516405e-06
0.005962068657688164,-7.950830561846254e-05,-7.051944941681636e-06
0.005885785297419903,-7.654634212968553e-05,-7.090958603618673e-06
0.005803252772952137,-7.362408261209251e-05,-7.128501209804117e-06
0.005715084021066654,-7.074449841358781e-05,-7.164593355060537e-06
0.005621884541305704,-6.791025627299472e-05,-7.199257043732183e-06
0.00552424607569242,-6.512372361874519e-05,-7.232515538705118e-06
0.005422740616989963,-6.238697694557459e-05,-7.264393213846198e-06
0.005317914842843492,-5.9701813080616226e-05,-7.2949154113527455e-06
0.005210285081152186,-5.706976309961731e-05,-7.324108305397804e-06
0.0051003329199999755,-5.449210859932927e-05,-7.351998773322541e-06
0.0049885015773243,-5.19698999749982e-05,-7.378614275466122e-06
0.004875193133176907,-4.95039762973729e-05,-7.403982744534215e-06
0.004760766699694437,-4.7094986339155066e-05,-7.428132485193347e-06
0.004645537568358765,-4.474341027214176e-05,-7.4510920843461716e-06
0.0045297773433253296,-4.244958154422074e-05,-7.472890332300262e-06
0.004413715049101599,-4.0213708446114004e-05,-7.493556154797846e-06
0.004297539184164356,-3.8035894887797516e-05,-7.513118555631324e-06
0.004181400667715035,-3.5916159924827666e-05,-7.53160656933448e-06
0.004065416594482579,-3.385445560927826e-05,-7.549049223218006e-06
0.003949674682817952,-3.185068278995313e-05,-7.5654755078178146e-06
0.0038342382808404653,-2.9904704549038526e-05,-7.5809143546525625e-06
0.003719151780515412,-2.8016357033699555e-05,-7.595394620048247e-06
0.003604446275117657,-2.618545751979129e-05,-7.60894507368662e-06
0.0034901452831659517,-2.4411809630220387e-05,-7.621594390474123e-06
0.0033762703607466134,-2.2695205719242245e-05,-7.633371144311488e-06
0.0032628464429841756,-2.1035426518309547e-05,-7.644303802370876e-06
0.0031499067937452384,-1.9432238209127194e-05,-7.654420718552735e-06
0.003037497487884174,-1.788538713871984e-05,-7.663750124889696e-06
0.00292568138733277,-1.6394592419915603e-05,-7.672320119779355e-06
0.002814541593237832,-1.4959536674772953e-05,-7.680158652053027e-06
0.002704184361299317,-1.3579855186138665e-05,-7.687293500018254e-06
0.0025947414628972078,-1.2255123730089534e-05,-7.693752244747312e-06
0.0024863719736917113,-1.0984845370942304e-05,-7.69956223702257e-06
0.0023792634833251307,-9.768436506688094e-06,-7.704750557491978e-06
0.0022736327395138727,-8.605212450978342e-06,-7.709343969731394e-06
0.0021697257542790363,-7.494372827530114e-06,-7.713368866051021e-06
0.002067817404398358,-6.4349870378607656e-06,-7.71685120601737e-06
0.0019682105568406233,-5.42598004755102e-06,-7.719816447788722e-06
0.001871234749056215,-4.466118721076811e-06,-7.722289472480879e-06
0.001777244456689532,-3.5539989196403736e-06,-7.724294501891058e-06
0.0016866169880578338,-2.6880335584535323e-06,-7.725855010010581e-06
0.0015997500519149262,-1.8664417984603423e-06,-7.72699362884981e-06
0.0015170590442348285,-1.0872395244229036e-06,-7.72773204918053e-06
0.0014389740867705421,-3.482312416715609e-07,-7.728090916872053e-06
0.0013659368306452697,3.52996487682392e-07,-7.72808972556055e-06
0.0012983970248665075,1.0190799515603364e-06,-7.72774670645074e-06
0.0012368088484453923,1.6528814198883113e-06,-7.727078716107877e-06
0.0011816270106666808,2.2574903846663297e-06,-7.726101123156739e-06
0.0011333026312475246,2.836222795144881e-06,-7.724827694861786e-06
0.0010922789221730856,3.3926181835000335e-06,-7.723270484617125e-06
0.0010589867065709394,3.93043459068604e-06,-7.721439721423579e-06
0.00103383982120355,4.453641222629662e-06,-7.71934370247025e-06
0.0010172304553092433,4.9664087917578605e-06,-7.716988689966652e-06
0.0010095244861301953,5.47309752711772e-06,-7.714378813386933e-06
0.0010110568847111275,5.97824286982805e-06,-7.711515978287697e-06
0.001022127277935846,6.486538910489794e-06,-7.708399782842618e-06
0.0010429957564672921,7.0028196690905785e-06,-7.705027443197723e-06
0.0010738790135747574,7.532038361601091e-06,-7.70139372869005e-06
0.0011149468909481502,8.079244837731818e-06,-7.697490907890218e-06
0.001166319398824993,8.649561410175104e-06,-7.693308706328242e-06
0.0012280642736406454,9.248157328291513e-06,-7.688834276643625e-06
0.0013001951402744592,9.88022218177029e-06,-7.68405218176611e-06
0.0013826703545723887,1.0550938555482003e-05,-7.678944391581797e-06
0.0014753926064693457,1.1265454295742436e-05,-7.673490293368992e-06
0.0015782093559232604,1.2028854786340587e-05,-7.66766671609847e-06
0.0016909141515436532,1.2846135663207316e-05,-7.661447968486084e-06
0.001813248853602651,1.3722176414493892e-05,-7.65480589046666e-06
0.0019449067605072008,1.4661715318021356e-05,-7.64770991753353e-06
0.0020855366238531356,1.566932616411144e-05,-7.640127157162996e-06
0.0022347475239000514,1.674939720104974e-05,-7.632022476321706e-06
0.0023921145543518017,1.79061127206127e-05,-7.623358598841291e-06
0.002557185231291209,1.9143437667023455e-05,-7.614096211244381e-06
0.00272948650484656,2.04651056010579e-05,-7.604194075427361e-06
0.0029085322247924057,2.187461028346764e-05,-7.593609146456229e-06
0.0030938308985222138,2.3375201064296295e-05,-7.582296693619289e-06
0.0032848935805014573,2.4969882184052213e-05,-7.570210422807202e-06
0.0034812417390371023,2.6661416013936852e-05,-7.557302598257705e-06
0.003682414951065477,2.8452330186462496e-05,-7.543524161707605e-06
0.0038879782772175573,3.0344928493533255e-05,-7.528824847037606e-06
0.004097529173791561,3.234130535628553e-05,-7.513153288575152e-06
0.004310703812889132,3.444336360295571e-05,-7.496457121335341e-06
0.004527182707042647,3.665283523293865e-05,-7.4786830716263675e-06
0.004746695560640184,3.897130479985936e-05,-7.459777036618168e-06
0.004969025286023942,4.1400235011525394e-05,-7.439684151665322e-06
0.005194011124341606,4.394099411411678e-05,-7.418348844383912e-06
0.005421550809694743,4.6594884597625864e-05,-7.395714874705976e-06
0.005651601723088118,4.936317273082158e-05,-7.371725360373864e-06
0.005884181002414268,5.224711841219717e-05,-7.346322787588109e-06
0.006119364597774133,5.524800481224427e-05,-7.319449006781999e-06
0.006357285280295116,5.836716728176158e-05,-7.291045213758498e-06
0.006598129627945898,6.160602100882183e-05,-7.261051916685852e-06
0.006842134025963709,6.496608692229923e-05,-7.229408889703072e-06
0.007089579733962959,6.84490153622809e-05,-7.196055114131927e-06
0.007340787087017096,7.205660706752592e-05,-7.160928708524475e-06
0.007596108914853204,7.57908310679935e-05,-7.123966848990595e-06
0.007855923280168159,7.965383911674883e-05,-7.085105681444409e-06
0.008120625650793798,8.364797634948931e-05,-7.04428022757785e-06
0.00839062062832807,8.777578791926978e-05,-7.001424286510661e-06
0.008666313359111982,9.20400214161298e-05,-6.956470334176811e-06
0.00894810075483242,9.64436249446159e-05,-6.9093494225866245e-06
0.009236362650040257,0.00010098974079583406,-6.859991081151512e-06
0.009531453021357094,0.0001056816947136834,-6.808323222274132e-06
0.009833691388744579,0.00011052298081620882,-6.75427205339166e-06
0.01014335451387769,0.00011551724229186439,-6.697761997614642e-06
0.010460668503601677,0.00012066824804623423,-6.638715625030117e-06
0.010785801417648452,0.00012597986552654678,-6.577053596636922e-06
0.011118856471387403,0.00013145602999880575,-6.5126946227555836e-06
0.011459865916209304,0.00013710071059570492,-6.445555437606956e-06
0.01180878567064001,0.00014291787349241723,-6.375550791584925e-06
0.012165490763733192,0.00014891144260101053,-6.302593462561568e-06
0.012529771637643404,0.00015508525820135468,-6.226594287360977e-06
0.012901331337678443,0.00016144303394518514,-6.147462214324342e-06
0.013279783599120673,0.00016798831267938493,-6.0651043776682e-06
0.013664651826997007,0.00017472442153591435,-5.979426194114375e-06
0.014055368958459508,0.00018165442673227848,-5.890331482047326e-06
0.014451278192613227,0.00018878108852004666,-5.797722603234245e-06
0.014851634565186072,0.00019610681670949648,-5.701500626926859e-06
0.015255607336389556,0.0002036336271848904,-5.601565515953262e-06
0.01566228315504998,0.00021136309980775028,-5.497816334205102e-06
0.016070669965828857,0.00021929633808796998,-5.390151474731172e-06
0.0164797016371263,0.00022743393098870876,-5.278468907462003e-06
0.01688824329431046,0.00023577591722156796,-5.1626664454094336e-06
0.017295097336411956,0.00024432175237924856,-5.0426420280092295e-06
0.017699010094505068,0.0002530702792369778,-4.918294020105173e-06
0.01809867906515071,0.00026201970152689175,-4.789521524914205e-06
0.0184927606320832,0.00027116756145120026,-4.656224709169682e-06
0.018879878178538288,0.00028051072115385564,-4.518305138518418e-06
0.019258630490711203,0.00029004534832116803,-4.375666121149662e-06
0.01962760035553766,0.00029976690603273026,-4.228213057561187e-06
0.019985363259355144,0.00030967014693645346,-4.075853794318891e-06
0.020330496097086242,0.0003197491117755638,-3.918498979640887e-06
0.02066158580660448,0.0003299971322514865,-3.756062418634124e-06
0.020977237852813305,0.000340406838166341,-3.5884614260296674e-06
0.021276084500285196,0.0003509701687546156,-3.415617174299428e-06
0.02155679282568342,0.0003616783880861078,-3.237455035089247e-06
0.021818072424538343,0.00037252210439866324,-3.0539049119680543e-06
0.022058682759550436,0.00038349129319468545,-2.864901562569717e-06
0.0222774400841766,0.0003945753239056172,-2.6703849082946414e-06
0.022473223864793793,0.0004057629898928598,-2.470300329845022e-06
0.022644982624873453,0.0004170425415152766,-2.2645989469929882e-06
0.022791739143659666,0.0004284017219574099,-2.053237881124817e-06
0.022912594952183604,0.00043982780548137073,-1.8361804992651217e-06
0.02300673407833033,0.0004513076377389992,-1.6133966384600293e-06
0.02307342600415808,0.00046282767775962134,-1.384862809585374e-06
0.02311202781400798,0.00047437404121416284,-1.150562379841928e-06
0.02312198552802682,0.00048593254454967153,-9.104857334009693e-07
0.023102834632185026,0.0004974887495897245,-6.646304098661203e-07
0.0230541998353912,0.0005090280082066186,-4.130012204170346e-07
0.02297579410474412,0.0005205355066916524,-1.5561034169246682e-07
0.022867417043431273,0.0005319963094786963,1.0752261235012038e-07
0.022728952679687366,0.000543395401909476,3.7637054019716346e-07
0.022560366738727036,0.0005547177317640796,6.508988236155525e-07
0.022361703481808947,0.0005659482493192136,9.310653188863758e-07
