frame_number,force
0,601.1173700000418
1,601.0549398890537
2,600.9956012749604
3,600.942123947781
4,600.8966953263017
5,600.8607718783442
6,600.835066248642
7,600.8196525682727
8,600.8141344446778
9,600.8178013754775
10,600.8297088009928
11,600.8486532821813
12,600.8730591552845
13,600.9008238491057
14,600.9291835424561
15,600.9546708542815
16,600.9732357523358
17,600.9805662615383
18,600.9725758817478
19,600.9459577066771
20,600.8986807860273
21,600.8303261532443
22,600.7422058979535
23,600.6372607164474
24,600.5197802301341
25,600.3950243387069
26,600.2688317197624
27,600.147279141106
28,600.0364056630665
29,599.941956871622
30,599.8690730494742
31,599.8218739077564
32,599.8029730186416
33,599.813037227939
34,599.8505370518932
35,599.9117966949258
36,599.9913705159266
37,600.0826856236531
38,600.1788269899606
39,600.2733133304096
40,600.3607206824864
41,600.4370563013713
42,600.499859430191
43,600.5480778368985
44,600.5818032101882
45,600.601938324725
46,600.60984466351
47,600.607009336336
48,600.5947753599114
49,600.574185695376
50,600.5459851249873
51,600.5107945393528
52,600.4694202752445
53,600.4232055951321
54,600.3743012459738
55,600.3257502504335
56,600.2813470809455
57,600.2453088868144
58,600.2218424395974
59,600.2146887776569
60,600.2266998788016
61,600.2594819426503
62,600.313139582256
63,600.3861561459177
64,600.4754313220001
65,600.576476733023
66,600.683754465528
67,600.7911281073577
68,600.8923790376458
69,600.9817316822333
70,601.0543333641995
71,601.1066387080441
72,601.1366511176441
73,601.1439834438994
74,601.1297265752818
75,601.0961544929305
76,601.0463292939498
77,600.9836826227287
78,600.9116389946341
79,600.8333247975731
80,600.7513907903201
81,600.6679685987955
82,600.5847655625167
83,600.5032643123002
84,600.4249529933668
85,600.3515016633261
86,600.2848262087246
87,600.227021056707
88,600.1801748668909
89,600.14610492895
90,600.1260595610376
91,600.120444176719
92,600.1286269436384
93,600.148876606641
94,600.1784746497992
95,600.2140177185789
96,600.2518815000998
97,600.2887655340136
98,600.3222017878451
99,600.3509093604398
100,600.3749190601951
101,600.3954561927485
102,600.4146256497596
103,600.4349710119909
104,600.4589815496272
105,600.48860958095
106,600.5248501599166
107,600.5674388992041
108,600.6147343972816
109,600.6638380854569
110,600.7109517045222
111,600.7519097601984
112,600.7827891925195
113,600.800495234977
114,600.8032323558276
115,600.7907865124214
116,600.7645767907254
117,600.7274790794058
118,600.6834706064501
119,600.6371799088237
120,600.593436205684
121,600.5568816174211
122,600.5316512538118
123,600.5210824799238
124,600.5274225775889
125,600.5515540974632
126,600.5928018132147
127,600.648887172487
128,600.7160590191778
129,600.7893847816679
130,600.8631634474157
131,600.9314241582925
132,600.9884810146361
133,601.0295053584978
134,601.0510536981521
135,601.0514734192244
136,601.0311190843951
137,600.992347912012
138,600.9393013952216
139,600.8775024760776
140,600.8133056989893
141,600.7532419648423
142,600.7033075684922
143,600.66826237386
144,600.6510225012875
145,600.6522500883706
146,600.6702391574187
147,600.7011542851715
148,600.7396003212596
149,600.7794182097801
150,600.8145529644216
151,600.8398426432922
152,600.8516163701345
153,600.8480356279797
154,600.8291524339162
155,600.796694820548
156,600.7536292452933
157,600.7035891820799
158,600.6502901143308
159,600.5970564467481
160,600.5465487382762
161,600.5007049106808
162,600.4608347460578
163,600.4277769616576
164,600.4020469611747
165,600.383935266748
166,600.3735361521735
167,600.3707053065777
168,600.3749761432396
169,600.3854836686473
170,600.4009304933211
171,600.419601473518
172,600.4394235454066
173,600.4580733661272
174,600.4731356375565
175,600.4823057999539
176,600.4836235763273
177,600.475719717802
178,600.4580468681755
179,600.4310462480257
180,600.3961936125736
181,600.3558889379374
182,600.3131975433765
183,600.2714899645481
184,600.2340478320007
185,600.2037061874925
186,600.1825947634067
187,600.1720203569556
188,600.1724997320881
189,600.1839189280091
190,600.2057752585728
191,600.2374530933558
192,600.2784811251242
193,600.3287125261936
194,600.388370709979
195,600.457924057078
196,600.5377936178519
197,600.6279477696831
198,600.7274806988634
199,600.8342910762476
200,600.9449600319942
201,601.0548726946008
202,601.1585611116567
203,601.250206530885
204,601.3242360481761
205,601.375957044408
206,601.4021673406496
207,601.4016598186724
208,601.3755254447871
209,601.3271697474934
210,601.2620067118605
211,601.1868662034685
212,601.109210266424
213,601.0362778119695
214,600.9742780030685
215,600.9277484536029
216,600.8991776389527
217,600.8889429719571
218,600.8955464095899
219,600.9160733955914
220,600.9467777654055
221,600.9836935557689
222,601.0231802234284
223,601.062325276354
224,601.0991650733606
225,601.1327260832625
226,601.1629101450228
227,601.1902467464417
228,601.2155401420456
229,601.2394674005819
230,601.2622146555489
231,601.2832372502071
232,601.3011908108394
233,601.3140371290216
234,601.3193079604499
235,601.3144991336023
236,601.2975392712535
237,601.26723638688
238,601.2235863117518
239,601.1678540804078
240,601.1024085723355
241,601.030374895174
242,600.9552284492195
243,600.8804540772088
244,600.8093320529503
245,600.7448343340168
246,600.6895727478662
247,600.6457478079483
248,600.6150734970361
249,600.5986726976566
250,600.5969512314784
251,600.6094752573333
252,600.6348893479241
253,600.6709072465035
254,600.7143879529538
255,600.7614931892869
256,600.8079190607345
257,600.8491999664283
258,600.8810808291865
259,600.8999362009857
260,600.9031928208467
261,600.8897025609283
262,600.860015756121
263,600.8165036391223
264,600.7632664050655
265,600.7057669214656
266,600.6501812826142
267,600.6025442802629
268,600.5678401191683
269,600.549209856368
270,600.5474175733059
271,600.560657807327
272,600.5847234237077
273,600.6135082656934
274,600.6397932156909
275,600.6562349966675
276,600.6564293490762
277,600.6358747191022
278,600.5926586724121
279,600.5277423075802
280,600.4448066308474
281,600.3497180402054
282,600.2497433953865
283,600.1526753364834
284,600.0660048516118
285,599.9962228520949
286,599.9482849480963
287,599.9252511320169
288,599.9281026180878
289,599.9557288212685
290,600.0050728845579
291,600.0714304105936
292,600.1489024844503
293,600.2309917081122
294,600.3112922093807
295,600.3841772940376
296,600.4453646131475
297,600.4922651374549
298,600.5240887954276
299,600.5417398216412
300,600.5475507053869
301,600.5448858812944
302,600.5376368135393
303,600.5296511264659
304,600.524174313323
305,600.5234033751983
306,600.5282386720846
307,600.5382744627644
308,600.5520094992083
309,600.5672127686518
310,600.5813605860382
311,600.5920638834654
312,600.5974160804674
313,600.596212824231
314,600.5880319468298
315,600.5732031826903
316,600.5527151529091
317,600.5280923666262
318,600.5012489843117
319,600.4743157767858
320,600.4494460024144
321,600.428619088554
322,600.4134659810703
323,600.405135043249
324,600.4042032510102
325,600.4106219952689
326,600.4236865642985
327,600.442037407855
328,600.4637205709193
329,600.4863338117166
330,600.507262257174
331,600.5239772592465
332,600.534351320686
333,600.5369369761835
334,600.5311642231253
335,600.5174272007495
336,600.4970538294555
337,600.4721711067147
338,600.445486056203
339,600.4200041905216
340,600.3987155177607
341,600.3842961051242
342,600.3788858511629
343,600.3839878369034
344,600.4004931394036
345,600.428794261184
346,600.4689280885573
347,600.5206837780378
348,600.5836218688561
349,600.6569851712376
350,600.7395353548703
351,600.8293946470744
352,600.9239784300469
353,601.0200686195577
354,601.1140264325763
355,601.202102304027
356,601.2807769962473
357,601.3470615840764
358,601.3986994625478
359,601.4342499410732
360,601.4530748660941
361,601.4552745193887
362,601.4416142805042
363,601.4134602909093
364,601.3727268524067
365,601.3218396687952
366,601.2637183510643
367,601.2017642039681
368,601.1398169055027
369,601.0820377213495
370,601.0326985739343
371,600.9958964973806
372,600.9752434803903
373,600.9735819912357
374,600.9927561560335
375,601.0334484322944
376,601.0950794684215
377,601.1757663013316
378,601.2723448311042
379,601.3804788968913
380,601.4948784196073
381,601.609622073902
382,601.7185432785369
383,601.8156210474626
384,601.8953291142077
385,601.9529201225344
386,601.9846363719848
387,601.9878459673739
388,601.961117481421
389,601.9042670175171
390,601.8184167337309
391,601.7060747451716
392,601.5711937641024
393,601.419126297988
394,601.2564020896427
395,601.090312225519
396,600.9283554882637
397,600.7776345503524
398,600.6442718861108
399,600.5328882800537
400,600.4461850883434
401,600.3846823055101
402,600.3466609651003
403,600.3283393463768
404,600.3242874981004
405,600.3280501998762
406,600.3329024341488
407,600.3326216220371
408,600.3221525393274
409,600.2980714902791
410,600.2588115461941
411,600.2046701006774
412,600.1376667723359
413,600.06133689014
414,599.9805204039466
415,599.9011465069296
416,599.8299592321777
417,599.7741216209791
418,599.7406798738615
419,599.7359280694378
420,599.7647541906485
421,599.8300608796101
422,599.9323471166168
423,600.0695178775978
424,600.2369561738835
425,600.427843132239
426,600.6336657299905
427,600.8448389296526
428,601.0513926323268
429,601.2437035936757
430,601.4132556887272
431,601.5533796995142
432,601.6598750237814
433,601.7313862811252
434,601.7694262690374
435,601.7780042952776
436,601.7629129569849
437,601.7308152234901
438,601.6883264332079
439,601.6412813255831
440,601.5943117923034
441,601.5507583047872
442,601.5128387652385
443,601.4819428419614
444,601.4589212899706
445,601.4442823519103
446,601.4382625308124
447,601.4407854094616
448,601.4513521468984
449,601.4689196147466
450,601.4918178818195
451,601.5177435145139
452,601.5438448903421
453,601.5668927295569
454,601.5835092212808
455,601.5904232960974
456,601.5847270508445
457,601.5641128923984
458,601.527067929392
459,601.4730085434322
460,601.4023602888878
461,601.3166044926166
462,601.2183025914476
463,601.1110795346679
464,600.999522781775
465,600.8889527394336
466,600.785048460277
467,600.6933578807325
468,600.618762371276
469,600.5649800459294
470,600.5341751008979
471,600.5267062591515
472,600.5410251635702
473,600.5737416880723
474,600.6198871969566
475,600.6733903953588
476,600.7277239841403
477,600.7766165828837
478,600.8146948938808
479,600.8379405110048
480,600.8438983275975
481,600.8316348841752
482,600.8014999853417
483,600.7547822280579
484,600.6933529512063
485,600.6193578832754
486,600.534965146434
487,600.4421504911874
488,600.3425113861898
489,600.2371342547573
490,600.1265675079337
491,600.010956990927
492,599.8903664038519
493,599.7652363234761
494,599.6368642964244
495,599.5077591858881
496,599.3817547961766
497,599.2638441035647
498,599.1597779995391
499,599.0755205960846
500,599.0166509564557
501,598.9877749848379
502,598.9920011137305
503,599.0305467037841
504,599.1025484890234
505,599.2051185583822
506,599.3336225285816
507,599.4821014488953
508,599.6437488673325
509,599.8113809856247
510,599.977869811118
511,600.1365294987112
512,600.2814512544771
513,600.407771894305
514,600.5118475943402
515,600.5913103832995
516,600.6450146390775
517,600.6729081619965
518,600.6758628194614
519,600.6554826756106
520,600.6139029133592
521,600.553608879894
522,600.4773142048053
523,600.3879174220308
524,600.2885247208987
525,600.182508777973
526,600.073563336122
527,599.9656970419824
528,599.8631099565949
529,599.769939149834
530,599.6899284171072
531,599.6261227086571
532,599.5806804006153
533,599.5548463749086
534,599.5490654097636
535,599.563160163783
536,599.5964674890402
537,599.6478430094686
538,599.7155135310006
539,599.7968455063354
540,599.8881516295078
541,599.9846500175067
542,600.0806352167863
543,600.1698499940028
544,600.2459904846654
545,600.3032513715383
546,600.3368255749339
547,600.3433045254169
548,600.3209600384876
549,600.2699093504259
550,600.1921698502152
551,600.091607859107
552,599.973778804608
553,599.8456455298858
554,599.7151587304852
555,599.5907003633295
556,599.4804251852157
557,599.39157520295
558,599.3298699706661
559,599.2990716068056
560,599.3007790400009
561,599.3344428701165
562,599.397544652084
563,599.4858701954915
564,599.5938232658162
565,599.7147618233533
566,599.8413757275164
567,599.9661417850446
568,600.0818734966506
569,600.1823319768091
570,600.2628109714113
571,600.3205879207555
572,600.3551526423131
573,600.3681690764544
574,600.3631788107032
575,600.345107013513
576,600.3196649892225
577,600.292745064774
578,600.2698790105701
579,600.2558015149816
580,600.2541392116395
581,600.2672314034639
582,600.2960753600184
583,600.3403772295767
584,600.398679894572
585,600.4685302647015
586,600.5466470626574
587,600.6290692350551
588,600.7113026965517
589,600.7885127276622
590,600.8558058649171
591,600.9086127201148
592,600.9431465672933
593,600.9568861211644
594,600.9490093713895
595,600.9206852333715
596,600.8751267921627
597,600.8173434613378
598,600.7535960077425
599,600.6906316829757
600,600.6348284528639
601,600.5913916296573
602,600.5637256992329
603,600.5530670392229
604,600.5584233895584
605,600.5768233696703
606,600.6038343017523
607,600.6342644356197
608,600.662930278613
609,600.6853487444339
610,600.6982222388357
611,600.6996319412383
612,600.6889318976546
613,600.6664192579274
614,600.6329121545823
615,600.5893732395517
616,600.5366763558598
617,600.4755517189666
618,600.4066883282379
619,600.3309359917765
620,600.2495370304048
621,600.16432496998
622,600.0778443659229
623,599.993362327844
624,599.9147545784228
625,599.8462613167318
626,599.7921248316425
627,599.7561387123878
628,599.7411568582168
629,599.7486332625881
630,599.7782833120691
631,599.8279570961821
632,599.8937876130578
633,599.970623941328
634,600.0526894584473
635,600.1343428645107
636,600.2107975374039
637,600.2786791924055
638,600.3363486259757
639,600.3839630650652
640,600.4232900919199
641,600.4573154232077
642,600.4896958945928
643,600.524118567489
644,600.563653056057
645,600.6102100695626
646,600.6642096009667
647,600.724510752006
648,600.7885920473462
649,600.8529255158636
650,600.913464834416
651,600.9661622528253
652,601.0074391734003
653,601.0345571583276
654,601.0458614981092
655,601.0408950020369
656,601.020406105455
657,600.9862948504089
658,600.9415359991668
659,600.8900832873138
660,600.8367108508249
661,600.7867227332046
662,600.745484064705
663,600.7177909828038
664,600.7071663244425
665,600.7152093767498
666,600.741129165603
667,600.781563807152
668,600.8307478089393
669,600.8810400857403
670,600.9237700659087
671,600.9503034415809
672,600.9531814830489
673,600.9271585635462
674,600.8699632622883
675,600.7826500070511
676,600.6694912299265
677,600.5374617559673
678,600.3954470488459
679,600.2533340948945
680,600.1211190185077
681,600.0081170555562
682,599.9223167625013
683,599.8698894496749
684,599.8548448902449
685,599.878821579714
686,599.9410167912399
687,600.0382788604386
688,600.1653757343541
689,600.315417584244
690,600.4803725614709
691,600.6516034101413
692,600.820373482502
693,600.9782977252372
694,601.1177233368253
695,601.2320252622875
696,601.3158191622862
697,601.3651294199419
698,601.3775691395053
699,601.3525621045816
700,601.2915713786023
701,601.1982392079041
702,601.0783278861803
703,600.9393882407305
704,600.7901544664346
705,600.6397470531596
706,600.4968265235931
707,600.3688463176268
708,600.2615023313971
709,600.1784081913015
710,600.1209788426636
711,600.0884879429833
712,600.0782637828119
713,600.0859935692829
714,600.1061125200991
715,600.1322601557015
716,600.1577907848108
717,600.1763249906736
718,600.1823176406078
719,600.1715980715607
720,600.1418245998794
721,600.0927992506164
722,600.0266027466756
723,599.94752063048
724,599.8617386949985
725,599.7768037866908
726,599.7008842618307
727,599.6419132999252
728,599.6067322376747
729,599.6003497757096
730,599.6254013220488
731,599.6818534904312
732,599.7669678940906
733,599.8755184413859
734,600.0002448543045
735,600.1325163301541
736,600.263163037522
737,600.3834032634512
738,600.4857591740132
739,600.5648345099368
740,600.6178364245528
741,600.6447593940453
742,600.6482053744903
743,600.6328813201796
744,600.6048710619274
745,600.5708037604352
746,600.5370409396259
747,600.5089956567473
748,600.4906764046128
749,600.484495762104
750,600.4913107208329
751,600.5106159596071
752,600.5408216875653
753,600.5795844916518
754,600.6241733867683
755,600.6718351286131
756,600.7201056044908
757,600.7670229964094
758,600.8112250070338
759,600.8519358834435
760,600.8888620191759
761,600.9220233987272
762,600.9515574980211
763,600.9775410441057
764,600.9998759778058
765,601.0182715003475
766,601.0323249483246
767,601.0416728361696
768,601.0461665939191
769,601.0460322657517
770,601.0419889905598
771,601.035311189442
772,601.0278210491557
773,601.0218013707034
774,601.019831043922
775,601.0245592402447
776,601.0384370873182
777,601.0634178587908
778,601.1006368169403
779,601.1501010432223
780,601.2104421285653
781,601.2787865298486
782,601.3507789139996
783,601.4207737960315
784,601.4822055560902
785,601.5281476917837
786,601.5520535694583
787,601.5486203541512
788,601.5146553271545
789,601.449785507674
790,601.3568576962567
791,601.2419218307278
792,601.1137581004052
793,600.9829815142617
794,600.860827959
795,600.757785454401
796,600.6822689858799
797,600.6395354225696
798,600.6309987906094
799,600.6540417078061
800,600.702331564201
801,600.7665620485963
802,600.8354869751962
803,600.8971072347201
804,600.9398906782671
805,600.9539184425053
806,600.9318529113768
807,600.8696318551504
808,600.7668291298938
809,600.6266756641721
810,600.4557763305219
811,600.2635722766993
812,600.061594132996
813,599.8625486907099
814,599.6792917015699
815,599.5237618937264
816,599.405974166129
817,599.3331769939942
818,599.30926428376
819,599.334501937981
820,599.4055931592576
821,599.5160686493126
822,599.6569504381038
823,599.8176093530361
824,599.9867294661609
825,600.1533038638078
826,600.3075902295124
827,600.4419438255434
828,600.5514395257501
829,600.6342087419832
830,600.6914455287498
831,600.7270712302997
832,600.7470901309206
833,600.7587175060377
834,600.7694031082851
835,600.7858935701448
836,600.813470219811
837,600.855463819833
838,600.9130906068738
839,600.9855916079637
840,601.0706116421119
841,601.1647343063831
842,601.2640821283154
843,601.3648851928962
844,601.4639251074848
845,601.5587886179253
846,601.6479170638453
847,601.7304973949526
848,601.8062807877477
849,601.8754143817031
850,601.9383310166795
851,601.9956887343407
852,602.0483218909063
853,602.0971697103554
854,602.1431660824461
855,602.1870891028618
856,602.2293854853483
857,602.2700102558745
858,602.3083438604068
859,602.343247686637
860,602.373287377159
861,602.3970988938781
862,602.4138160719037
863,602.423445212063
864,602.4270753930649
865,602.426852148847
866,602.4257055505498
867,602.4268859818769
868,602.4333957479153
869,602.4474120288197
870,602.4697996115035
871,602.4998197646999
872,602.5351297758768
873,602.5721063901324
874,602.6064309379199
875,602.6338047444342
876,602.6506613485458
877,602.6547825154794
878,602.6457565271812
879,602.6252252785698
880,602.5968752913611
881,602.5661553359055
882,602.5397435466405
883,602.5248237730153
884,602.5282552622123
885,602.5557336818657
886,602.6110501745932
887,602.6955538603203
888,602.8079004158877
889,602.9441226791499
890,603.0980016959008
891,603.2616716718833
892,603.4263760664671
893,603.5832917061005
894,603.7243263897999
895,603.8427756575558
896,603.9337319188191
897,603.994196907215
898,604.0229336241616
899,604.0201560198243
900,603.9871627348771
901,603.9259897776401
902,603.8391223325663
903,603.7292844541852
904,603.5993079216998
905,603.4520631332117
906,603.2904276628534
907,603.1172773135598
908,602.9354945420283
909,602.7479837061561
910,602.5576653975173
911,602.3674129882268
912,602.1799119733087
913,601.9974648898024
914,601.8218050638679
915,601.653994297059
916,601.4944608884844
917,601.3432007895915
