frame_number,force
0,699.6811600065635
1,699.6283974571058
2,699.5757207153142
3,699.5232149312691
4,699.4709639558798
5,699.4190497302931
6,699.3675517197295
7,699.3165464033947
8,699.2661068303707
9,699.216302249524
10,699.1671978187916
11,699.1188543952663
12,699.071328402967
13,699.0246717715197
14,698.9789319370503
15,698.934151896167
16,698.8903703044874
17,698.8476216124756
18,698.8059362331128
19,698.7653407376373
20,698.7258580768619
21,698.6875078263157
22,698.6503064536796
23,698.6142676066435
24,698.5794024183461
25,698.5457198262117
26,698.5132268989082
27,698.4819291659211
28,698.4518309450698
29,698.422935664724
30,698.3952461783887
31,698.3687650687325
32,698.3434949360839
33,698.3194386640101
34,698.2965996532307
35,698.2749820154824
36,698.2545907206257
37,698.2354316922135
38,698.2175118483631
39,698.2008390861863
40,698.1854222094211
41,698.1712708001513
42,698.158395036507
43,698.1468054590384
44,698.1365126892139
45,698.1275271045341
46,698.1198584763404
47,698.1135155782966
48,698.1085057752078
49,698.1048346029451
50,698.1025053506684
51,698.1015186562123
52,698.1018721245166
53,698.1035599775931
54,698.1065727429174
55,698.1108969854403
56,698.1165150869791
57,698.1234050758502
58,698.1315405089537
59,698.1408904073504
60,698.1514192444034
61,698.1630869833539
62,698.1758491596036
63,698.189657002339
64,698.204457590276
65,698.2201940369615
66,698.2368057021405
67,698.2542284269853
68,698.2723947920223
69,698.2912343967912
70,698.310674159526
71,698.3306386339171
72,698.3510503391076
73,698.3718300991429
74,698.3928973890964
75,698.4141706863638
76,698.4355678265608
77,698.4570063640707
78,698.4784039379932
79,698.4996786450399
80,698.5207494210244
81,698.5415364313868
82,698.5619614692071
83,698.5819483574388
84,698.6014233508333
85,698.6203155317976
86,698.6385571932495
87,698.6560842010639
88,698.6728363294006
89,698.6887575637402
90,698.7037963681883
91,698.7179059151276
92,698.7310442763395
93,698.7431745752732
94,698.7542651005215
95,698.7642893812007
96,698.7732262260955
97,698.7810597299313
98,698.7877792513367
99,698.7933793672721
100,698.7978598079776
101,698.801225375465
102,698.8034858476652
103,698.8046558695444
104,698.8047548318729
105,698.8038067380517
106,698.8018400594761
107,698.7988875800949
108,698.7949862309346
109,698.7901769155163
110,698.7845043273302
111,698.7780167606179
112,698.7707659153883
113,698.7628066971055
114,698.7541970113197
115,698.744997553492
116,698.7352715937493
117,698.7250847551585
118,698.7145047830309
119,698.7036013024183
120,698.6924455611457
121,698.6811101557072
122,698.6696687369373
123,698.6581956922695
124,698.6467658024659
125,698.6354538730733
126,698.6243343437808
127,698.6134808812369
128,698.6029659620918
129,698.5928604532719
130,698.583233196196
131,698.5741506009938
132,698.565676256108
133,698.557870558434
134,698.5507903692464
135,698.5444887012166
136,698.5390144418454
137,698.5344121186703
138,698.530721711159
139,698.5279785126728
140,698.5262130432083
141,698.5254510105157
142,698.5257133146577
143,698.5270160897782
144,698.5293707765286
145,698.5327842184287
146,698.5372587752428
147,698.5427924468117
148,698.5493790022414
149,698.5570081117353
150,698.5656654809691
151,698.5753329900117
152,698.5859888400471
153,698.5976077116289
154,698.610160938227
155,698.6236166984876
156,698.6379402297306
157,698.6530940637297
158,698.6690382841888
159,698.6857308038676
160,698.703127658163
161,698.7211833113174
162,698.7398509716124
163,698.7590829129028
164,698.7788308012407
165,698.7990460265274
166,698.81968003961
167,698.8406846947382
168,698.8620125958836
169,698.8836174435268
170,698.9054543768077
171,698.9274803049541
172,698.949654221708
173,698.9719374964279
174,698.9942941350507
175,699.016691003331
176,699.0390980046654
177,699.0614882060576
178,699.0838379081528
179,699.1061266577525
180,699.1283372030551
181,699.1504553931237
182,699.1724700242179
183,699.1943726370159
184,699.2161572704894
185,699.2378201799752
186,699.2593595282642
187,699.2807750589438
188,699.3020677608318
189,699.3232395314669
190,699.344292846698
191,699.3652304427529
192,699.3860550167434
193,699.4067689511128
194,699.4273740668806
195,699.4478714096371
196,699.4682610710469
197,699.488542047291
198,699.5087121349685
199,699.5287678648583
200,699.5487044742621
201,699.5685159185745
202,699.5881949217431
203,699.6077330634919
204,699.6271208992716
205,699.6463481075448
206,699.665403658594
207,699.6842759994287
208,699.7029532499886
209,699.7214234061025
210,699.7396745443675
211,699.757695023673
212,699.775473678281
213,699.7929999986286
214,699.8102642978106
215,699.8272578629236
216,699.843973090638
217,699.860403605991
218,699.8765443633043
219,699.892391728637
220,699.9079435439693
221,699.9231991739722
222,699.9381595367823
223,699.9528271208475
224,699.9672059906478
225,699.9813017848309
226,699.9951217108538
227,700.0086745401987
228,700.0219706071165
229,700.0350218117743
230,700.0478416265137
231,700.0604451026323
232,700.0728488748659
233,700.0850711608585
234,700.0971317526909
235,700.1090519971177
236,700.1208547612279
237,700.1325643811483
238,700.1442065930736
239,700.155808448037
240,700.167398213697
241,700.17900526695
242,700.1906599802606
243,700.2023936032684
244,700.2142381403787
245,700.2262262246697
246,700.2383909881111
247,700.2507659275899
248,700.2633847657125
249,700.2762813050892
250,700.2894892749975
251,700.3030421696927
252,700.3169730776577
253,700.3313145005724
254,700.3460981601611
255,700.3613547908795
256,700.3771139166672
257,700.3934036104453
258,700.4102502356203
259,700.4276781696619
260,700.4457095106966
261,700.4643637687001
262,700.4836575432386
263,700.5036041900347
264,700.5242134790644
265,700.545491247479
266,700.567439051456
267,700.5900538220737
268,700.6133275313296
269,700.6372468750676
270,700.6617929794016
271,700.6869411361259
272,700.7126605711326
273,700.7389142485199
274,700.7656587120332
275,700.792843964768
276,700.8204133881308
277,700.8483037022104
278,700.8764449713436
279,700.904760659632
280,700.9331677410482
281,700.961576867826
282,700.9898925993485
283,701.0180136921497
284,701.045833450467
285,701.0732401362391
286,701.1001174371686
287,701.1263449912262
288,701.151798965856
289,701.1763526900527
290,701.1998773369379
291,701.222242653209
292,701.2433177302121
293,701.2629718098877
294,701.2810751176711
295,701.297499713518
296,701.3121203515487
297,701.3248153385438
298,701.3354673816841
299,701.3439644159054
300,701.3502004005323
301,701.354076073926
302,701.3554996547617
303,701.3543874797238
304,701.3506645694617
305,701.3442651169405
306,701.3351328942633
307,701.3232215755091
308,701.3084949743212
309,701.29092719633
310,701.2705027083022
311,701.2472163283402
312,701.221073144327
313,701.1920883703197
314,701.1602871514349
315,701.1257043261609
316,701.0883841517235
317,701.0483799949866
318,701.0057539898694
319,700.9605766624155
320,700.912926525381
321,700.8628896446102
322,700.8105591794985
323,700.7560348999792
324,700.6994226828855
325,700.6408339906375
326,700.5803853346843
327,700.5181977255862
328,700.4543961118256
329,700.3891088101287
330,700.3224669303478
331,700.2546037974253
332,700.18565437228
333,700.115754673517
334,700.045041202762
335,699.9736503771445
336,699.9017179719484
337,699.82937857521
338,699.7567650556672
339,699.6840080467093
340,699.6112354509679
341,699.5385719715126
342,699.4661386753647
343,699.3940525932401
344,699.3224263569468
345,699.2513678738219
346,699.1809800365952
347,699.1113604669042
348,699.0426012908563
349,698.9747889452848
350,698.9080040136937
351,698.8423210915067
352,698.777808681392
353,698.7145291213601
354,698.6525385508307
355,698.5918869219066
356,698.5326180633732
357,698.4747698028694
358,698.4183741489677
359,698.3634575309195
360,698.3100410904435
361,698.2581410172988
362,698.207768918611
363,698.1589322112502
364,698.1116345268596
365,698.0658761198079
366,698.0216542689636
367,697.9789636647741
368,697.9377967738691
369,697.8981441744432
370,697.8599948569663
371,697.8233364861882
372,697.7881556219804
373,697.7544378984267
374,697.7221681627071
375,697.6913305772524
376,697.6619086897952
377,697.6338854759541
378,697.6072433582151
379,697.5819642047953
380,697.5580293129175
381,697.5354193831377
382,697.5141144930813
383,697.4940940789664
384,697.475336931654
385,697.4578212114727
386,697.4415244833784
387,697.4264237715311
388,697.4124956306416
389,697.3997162307596
390,697.3880614519961
391,697.3775069850927
392,697.3680284323656
393,697.3596014019917
394,697.3522015880166
395,697.3458048295134
396,697.3403871444219
397,697.3359247354706
398,697.3323939666237
399,697.329771309324
400,697.3280332592884
401,697.3271562269765
402,697.3271164075045
403,697.3278896378237
404,697.3294512497995
405,697.3317759276526
406,697.3348375778763
407,697.33860921953
408,697.3430629020871
409,697.3481696560713
410,697.3538994787616
411,697.3602213540903
412,697.3671033029757
413,697.3745124579185
414,697.3824151540697
415,697.3907770286339
416,697.3995631214893
417,697.4087379719583
418,697.4182657091714
419,697.4281101356779
420,697.4382348052626
421,697.4486030962404
422,697.4591782813376
423,697.4699235952664
424,697.4808023015247
425,697.4917777604855
426,697.5028135009728
427,697.5138732969602
428,697.5249212500615
429,697.5359218777932
430,697.5468402078017
431,697.5576418792267
432,697.5682932533277
433,697.5787615357141
434,697.5890149118815
435,697.5990226968191
436,697.6087554989824
437,697.6181853991307
438,697.6272861447834
439,697.6360333609135
440,697.644404777261
441,697.6523804725089
442,697.659943134966
443,697.6670783377849
444,697.673774824397
445,697.680024797844
446,697.6858242069128
447,697.6911730223275
448,697.6960754966503
449,697.700540401246
450,697.7045812332314
451,697.7082163858533
452,697.7114692774569
453,697.7143684362803
454,697.7169475398543
455,697.7192454085406
456,697.7213059531607
457,697.7231780773056
458,697.7249155359048
459,697.7265767525308
460,697.7282245981264
461,697.7299261332014
462,697.7317523144662
463,697.7337776658192
464,697.7360799128778
465,697.7387395800913
466,697.7418395500666
467,697.745464586075
468,697.7497008205349
469,697.7546352141936
470,697.7603549921488
471,697.7669470631755
472,697.7744974279675
473,697.7830905806422
474,697.7928089071094
475,697.8037320838555
476,697.81593648085
477,697.8294945723839
478,697.8444743601191
479,697.8609388136526
480,697.8789453347682
481,697.8985452512864
482,697.919783344973
483,697.9426974163664
484,697.9673178886361
485,697.9936674527002
486,698.0217607561839
487,698.0516041390143
488,698.0831954187541
489,698.116523729411
490,698.151569418033
491,698.1883040032486
492,698.2266901990832
493,698.2666820065649
494,698.3082248750551
495,698.3512559343728
496,698.3957042972153
497,698.4414914294184
498,698.4885315840577
499,698.5367322948458
500,698.5859949244953
501,698.636215263704
502,698.6872841756087
503,698.7390882793987
504,698.7915106662208
505,698.8444316407695
506,698.897729482651
507,698.9512812223367
508,699.0049634269174
509,699.0586529905293
510,699.1122279233247
511,699.1655681319884
512,699.218556184735
513,699.2710780545309
514,699.3230238356081
515,699.374288429784
516,699.4247722004393
517,699.4743815930967
518,699.5230297220762
519,699.5706369223109
520,699.6171312640628
521,699.6624490265384
522,699.7065351251562
523,699.7493434869671
524,699.7908373693003
525,699.8309896175566
526,699.8697828588398
527,699.9072096287647
528,699.9432724295207
529,699.9779837183493
530,700.0113658267605
531,700.0434508113266
532,700.0742802364936
533,700.10390488928
534,700.1323844257539
535,700.1597869499508
536,700.1861885272657
537,700.211672636244
538,700.2363295648337
539,700.2602557589411
540,700.2835531319546
541,700.3063283437441
542,700.3286920569719
543,700.3507581777615
544,700.3726430867687
545,700.3944648653672
546,700.4163425202728
547,700.4383952089674
548,700.4607414679684
549,700.4834984461049
550,700.5067811451313
551,700.530701669905
552,700.5553684899489
553,700.5808857137481
554,700.6073523771526
555,700.6348617482099
556,700.6635006524696
557,700.6933488245451
558,700.7244782930377
559,700.7569528068668
560,700.7908273117363
561,700.8261474857327
562,700.8629493428198
563,700.9012589123947
564,700.9410920021064
565,700.9824540495486
566,701.0253400661561
567,701.0697346742153
568,701.1156122359399
569,701.1629370719277
570,701.2116637642536
571,701.2617375367377
572,701.3130947022526
573,701.365663165366
574,701.4193629685376
575,701.4741068710865
576,701.5298009514742
577,701.5863452245529
578,701.6436342662099
579,701.701557838613
580,701.7600015101847
581,701.8188472651423
582,701.8779740975258
583,701.9372585843488
584,701.9965754326523
585,702.055797996431
586,702.114798761502
587,702.1734497987269
588,702.2316231879103
589,702.2891914159496
590,702.3460277535869
591,702.402006615721
592,702.4570039107442
593,702.5108973844376
594,702.5635669632507
595,702.6148951002898
596,702.6647671254033
597,702.7130715988369
598,702.759700666502
599,702.8045504142432
600,702.8475212183936
601,702.8885180896867
602,702.9274510069922
603,702.9642352367907
604,702.9987916342909
605,703.0310469226163
606,703.0609339472659
607,703.0883919038278
608,703.1133665375254
609,703.1358103134361
610,703.1556825561356
611,703.1729495575833
612,703.1875846526813
613,703.1995682628028
614,703.2088879077774
615,703.2155381859557
616,703.219520720554
617,703.2208440693797
618,703.2195235946779
619,703.2155812899985
620,703.2090455612781
621,703.1999509596345
622,703.1883378639325
623,703.1742521122784
624,703.157744583361
625,703.1388707309071
626,703.1176900771242
627,703.0942656732658
628,703.0686635368503
629,703.0409520754558
630,703.011201506781
631,702.9794832844013
632,702.9458695385819
633,702.9104325414442
634,702.8732442055389
635,702.8343756243756
636,702.7938966625476
637,702.7518756016624
638,702.7083788464008
639,702.6634706926801
640,702.6172131572716
641,702.5696658658551
642,702.5208859948158
643,702.4709282609533
644,702.4198449524368
645,702.3676859940596
646,702.3144990403855
647,702.2603295915332
648,702.205221127521
649,702.1492152578759
650,702.092351883429
651,702.0346693670031
652,701.9762047094009
653,701.9169937271265
654,701.857071228704
655,701.7964711871509
656,701.7352269069361
657,701.6733711843269
658,701.6109364601531
659,701.5479549636628
660,701.4844588456535
661,701.4204802986243
662,701.356051661378
663,701.2912055055701
664,701.2259747027134
665,701.1603924720584
666,701.0944924114483
667,701.0283085134854
668,700.961875168215
669,700.8952271522678
670,700.828399604083
671,700.761427985615
672,700.6943480324211
673,700.6271956956106
674,700.5600070802194
675,700.4928183848625
676,700.4256658471173
677,700.3585856982987
678,700.291614130398
679,700.2247872771783
680,700.1581412108052
681,700.0917119549274
682,700.0255355146464
683,699.959647922916
684,699.8940853013148
685,699.8288839311101
686,699.7640803287281
687,699.6997113185945
688,699.6358140958981
689,699.5724262720958
690,699.5095858967376
691,699.4473314503751
692,699.3857018051151
693,699.3247361521246
694,699.2644738988411
695,699.2049545417685
696,699.1462175223227
697,699.0883020728967
698,699.0312470589835
699,698.9750908219211
700,698.9198710260692
701,698.8656245137527
702,698.812387170904
703,698.7601938059653
704,698.7090780442123
705,698.6590722389924
706,698.6102074001743
707,698.5625131385061
708,698.5160176230854
709,698.4707475483995
710,698.4267281077769
711,698.383982971355
712,698.3425342678162
713,698.3024025694934
714,698.2636068803142
715,698.2261646259276
716,698.1900916451534
717,698.1554021815009
718,698.122108873429
719,698.0902227426924
720,698.0597531812828
721,698.0307079384542
722,698.0030931094911
723,697.9769131269968
724,697.9521707540239
725,697.9288670773145
726,697.9070014988122
727,697.8865717240078
728,697.8675737457677
729,697.8500018217244
730,697.8338484425146
731,697.81910428772
732,697.8057581667753
733,697.7937969435718
734,697.7832054456977
735,697.7739663612532
736,697.7660601270102
737,697.7594648111864
738,697.754155993122
739,697.7501066417045
740,697.7472869947493
741,697.745664442143
742,697.7452034157925
743,697.7458652891896
744,697.747608288875
745,697.7503874196134
746,697.7541544051335
747,697.7588576468778
748,697.7644422037908
749,697.770849796186
750,697.7780188362174
751,697.7858844867598
752,697.794378749562
753,697.8034305821308
754,697.8129660411137
755,697.8229084488999
756,697.8331785805744
757,697.8436948700987
758,697.8543736366381
759,697.8651293334984
760,697.875874822928
761,697.8865216799771
762,697.8969805273983
763,697.9071614013657
764,697.9169741453824
765,697.9263288279977
766,697.9351361791395
767,697.9433080397471
768,697.9507578197984
769,697.9574009608351
770,697.9631554005567
771,697.9679420382366
772,697.9716851999101
773,697.9743131015687
774,697.9757583076529
775,697.9759581813906
776,697.9748553228462
777,697.9723979897365
778,697.9685404955305
779,697.9632435796553
780,697.9564747453919
781,697.9482085611348
782,697.9384269197047
783,697.9271192491037
784,697.9142826673458
785,697.8999220741406
786,697.8840501732477
787,697.8666874210159
788,697.8478618987857
789,697.8276091093462
790,697.8059717001079
791,697.7829991175976
792,697.7587471991815
793,697.7332777087669
794,697.706657823583
795,697.678959579018
796,697.6502592782609
797,697.6206368735461
798,697.5901753261431
799,697.5589599526179
800,697.5270777652785
801,697.4946168152596
802,697.4616655473245
803,697.4283121755819
804,697.3946440883767
805,697.3607472886293
806,697.326705873451
807,697.2926015547547
808,697.2585132214589
809,697.2245165435421
810,697.1906836177521
811,697.1570826537939
812,697.123777698954
813,697.0908283991643
814,697.0582897953414
815,697.0262121547878
816,696.9946408379187
817,696.963616200336
818,696.9331735293315
819,696.9033430126959
820,696.8741497368858
821,696.8456137116785
822,696.8177499194986
823,696.7905683892997
824,696.7640742966893
825,696.738268093474
826,696.7131456708343
827,696.6886985607824
828,696.6649141798853
829,696.6417761169836
830,696.6192644633335
831,696.5973561806431
832,696.5760255009233
833,696.5552443520651
834,696.5349828039922
835,696.5152095310425
836,696.4958922860351
837,696.4769983805168
838,696.4584951651196
839,696.4403505046183
840,696.4225332438033
841,696.4050136617113
842,696.3877639123157
843,696.3707584494365
844,696.3539744330284
845,696.3373921138898
846,696.3209951943854
847,696.3047711635691
848,696.2887116057871
849,696.2728124823027
850,696.2570743854345
851,696.2415027638574
852,696.2261081164753
853,696.2109061514402
854,696.1959179065805
855,696.181169827072
856,696.1666937954362
857,696.1525271085683
858,696.1387123971773
859,696.125297484613
860,696.1123351838979
861,696.0998830332028
862,696.08800297062
863,696.0767609490096
864,696.0662264915997
865,696.0564721899724
866,696.0475731487002
867,696.0396063846256
868,696.0326501918776
869,696.0267834847506
870,696.0220851296975
871,696.0186332760501
872,696.0165046934297
873,696.0157741224025
874,696.0165136441649
875,696.0187920751555
876,696.0226743927489
877,696.0282211975866
878,696.0354882166357
879,696.0445258496873
880,696.0553787613624
881,696.0680855205838
882,696.082678289371
883,696.0991825623029
884,696.1176169569956
885,696.1379930548433
886,696.1603152906662
887,696.1845808900013
888,696.2107798534352
889,696.2388949884919
890,696.2689019909732
891,696.3007695786437
892,696.3344596798913
893,696.3699276782382
894,696.4071227109723
895,696.4459880175385
896,696.4864613311307
897,696.5284753053141
898,696.5719579667339
899,696.6168331852884
900,696.6630211544568
901,696.7104388762579
902,696.7590006470889
903,696.8086185420125
904,696.8592028955168
905,696.9106627761303
906,696.9629064508432
907,697.0158418337755
908,697.0693769124755
909,697.1234201449045
910,697.1778808206686
911,697.232669381329
912,697.2876976963938
913,697.342879293451
914,697.3981295424936
915,697.4533657957293
916,697.5085074850011
917,697.5634761794399
