acceleration,velocity,displacement
0.010580848855111244,0.0,0.0
0.00984028456331964,5.105283354607721e-06,1.2763208386519303e-09
0.009100924650278529,9.840585658007263e-06,5.012788091805677e-09
0.008363964265003942,1.4206807886827882e-05,1.1024636478014462e-08
0.00763058032161333,1.82054440334822e-05,1.9127699458091982e-08
0.00690192292918667,2.18385698461822e-05,2.9138702928008084e-08
0.006179107445216514,2.5108827439782996e-05,4.087555224949938e-08
0.005463207316102585,2.801940613011277e-05,5.415761064197332e-08
0.004755247843735694,3.057401992007234e-05,6.88059671545196e-08
0.004056200990960412,3.277688212874637e-05,8.464369266672428e-08
0.003366981301180164,3.4632677701781517e-05,1.0149608262435625e-07
0.0026884429520332475,3.614653376508487e-05,1.1919088549107284e-07
0.0020213778994403625,3.732398897795327e-05,1.3755851617683235e-07
0.001366515016954312,3.817096220705194e-05,1.5643225397308365e-07
0.0007245201082797483,3.8693720988360455e-05,1.7564842477193674e-07
9.599666496508103e-05,3.8898850181671665e-05,1.9504656756444476e-07
-0.0005185127506906742,3.879322116024027e-05,2.1446958539992273e-07
-0.0011185245990607152,3.838396182280242e-05,2.337638811456834e-07
-0.0017036120097943266,3.767842767058866e-05,2.5277947851903117e-07
-0.00227340203445728,3.668417415952576e-05,2.7137012897655976e-07
-0.0028275725401622387,3.540893051587088e-05,2.893934051454089e-07
-0.003365848768807403,3.3860575188628475e-05,3.0671078157153373e-07
-0.00388799958341248,3.20471131005735e-05,3.2318770364383425e-07
-0.004393833427808978,2.997665484776814e-05,3.3869364563091965e-07
-0.00488319403954983,2.7657397980928438e-05,3.531021588380938e-07
-0.005355955974789868,2.5097610477343512e-05,3.6629091095266177e-07
-0.0058120200191561925,2.2305616478856998e-05,3.781417176917119e-07
-0.0062513085619305625,1.9289784333585308e-05,3.8854056789482244e-07
-0.006673760999086539,1.605851694333103e-05,3.9737764321405153e-07
-0.007079329210731847,1.2620244390876434e-05,4.045473335476034e-07
-0.007467973145659492,8.983418801778598e-06,4.0994824934576715e-07
-0.007839656554061426,5.156511376848368e-06,4.134832318904239e-07
-0.00819434293826386,1.1480115037670465e-06,4.1505936261057775e-07
-0.008531991825108007,-3.0335721870759205e-06,4.145879724397505e-07
-0.00885255548279614,-7.3797090140519576e-06,4.1198465213946853e-07
-0.009155976199836848,-1.1881841934710204e-05,4.07169264402278e-07
-0.009442184220287603,-1.6531382039741315e-05,4.0006595840866514e-07
-0.009711096402382,-2.1319702195408716e-05,3.9060318734987764e-07
-0.009962615644847458,-2.623813020721608e-05,3.7871372924922145e-07
-0.01019663110544546,-3.127794189478931e-05,3.643347112237201e-07
-0.010413019216722446,-3.6430354475331285e-05,3.4740763713118996e-07
-0.010611645486518606,-4.168652065114155e-05,3.2787841834957174e-07
-0.010792367056695168,-4.7037523786944994e-05,3.056974072400501e-07
-0.010955035982257647,-5.24743745466832e-05,2.80819432656643e-07
-0.01109950318246037,-5.7988009337862705e-05,2.532038366855065e-07
-0.011225623000837189,-6.356929088368709e-05,2.2281451163011909e-07
-0.01133325828885306,-6.920901120610966e-05,1.8961993610766988e-07
-0.011422285901164184,-7.489789725361396e-05,1.5359320899273898e-07
-0.01149260246688379,-8.062661934562596e-05,1.1471207984292899e-07
-0.011544130285664003,-8.638580253376291e-05,7.295897437308177e-08
-0.01157682319153051,-9.216604090306153e-05,2.832101351387566e-08
-0.011590672231968819,-9.795791475893636e-05,-1.9209975401623815e-08
-0.011585711023552367,-0.00010375201057281666,-6.963745673456208e-08
-0.01156202066493399,-0.00010953894349493824,-1.2296019525150081e-07
-0.011519734110519778,-0.00011530938218880169,-1.791722766724358e-07
-0.011459039931894502,-0.00012105407569940526,-2.3826314114448754e-07
-0.011380185414246907,-0.0001267638820359406,-3.0021763057832403e-07
-0.011283478947610703,-0.00013242979812640502,-3.6501605061891044e-07
-0.011169291681896346,-0.0001380429907837818,-4.3263424784645715e-07
-0.011038058431121099,-0.00014359482831203616,-5.030437026204116e-07
-0.010890277839854934,-0.00014907691237978017,-5.762116377933657e-07
-0.010726511855809919,-0.0001544811098036964,-6.521011433392349e-07
-0.010547384574940807,-0.00015979958391138408,-7.30671316768005e-07
-0.01035358053435402,-0.00016502482518870778,-8.118774190430279e-07
-0.01014584252631006,-0.0001701496809538738,-8.956710455786734e-07
-0.009924968997362154,-0.00017516738383479186,-9.820003117758399e-07
-0.009691811081658574,-0.00018007157885454705,-1.0708100524481747e-06
-0.009447269299307465,-0.00018485634894978856,-1.1620420343992586e-06
-0.00919228993617272,-0.0001895162387586586,-1.2556351813263704e-06
-0.008927861118635515,-0.00019404627652236067,-1.3515258101466251e-06
-0.008655008607331758,-0.00019844199395385248,-1.4496478777656784e-06
-0.008374791351144245,-0.00020269944394347148,-1.5499332372400093e-06
-0.008088296855445896,-0.000206815215995119,-1.6523119022246569e-06
-0.007796636417647431,-0.00021078644931339234,-1.7567123185517846e-06
-0.00750094026905757,-0.00021461084348506858,-1.8630616417513998e-06
-0.007202352644182661,-0.00021828666671337864,-1.9712860193010117e-06
-0.006902026785420203,-0.00022181276157077936,-2.081310876372051e-06
-0.006601119882488853,-0.00022518854823775662,-2.1930612038241853e-06
-0.006300787936044238,-0.0002284140251923899,-2.306461847181722e-06
-0.0060021805237968255,-0.00023148976730735015,-2.421437795306657e-06
-0.005706435445992795,-0.00023441692129979756,-2.537914467458444e-06
-0.005414673244095405,-0.0002371971984723196,-2.6558179974014733e-06
-0.005127991614347412,-0.0002398328646869303,-2.775075513191286e-06
-0.004847459762103242,-0.00024232672753104296,-2.8956154112457793e-06
-0.004574112760506236,-0.00024468212066169534,-3.0173676232939637e-06
-0.004308945994305248,-0.0002469028853503982,-3.140263874796987e-06
-0.004052909786177731,-0.000248993349295519,-3.2642379334584666e-06
-0.0038069043095149933,-0.0002509583028194422,-3.389225846487207e-06
-0.0035717748818198344,-0.0002528029726172759,-3.5151661653463867e-06
-0.0033483077113680934,-0.0002545329932655729,-3.642000156817099e-06
-0.0031372261453716807,-0.0002561543767297578,-3.7696719993159317e-06
-0.0029391874466340993,-0.00025767348012775926,-3.898128963530311e-06
-0.0027547801110107627,-0.0002590969720171705,-4.027321576566544e-06
-0.0025845217301819195,-0.00026043179747746865,-4.157203768940204e-06
-0.002428857398937154,-0.0002616851422597484,-4.287733003874508e-06
-0.0022881586571548047,-0.0002628643962737714,-4.4188703885078885e-06
-0.0021627229403740826,-0.00026397711667315365,-4.55058076674462e-06
-0.002052773491759533,-0.00026503099078118705,-4.682832793608205e-06
-0.0019584596714086284,-0.0002660337990719791,-4.815598991071497e-06
-0.0018798575959917024,-0.0002669933783888292,-4.948855785436699e-06
-0.0018169710518029486,-0.00026791758555077784,-5.0825835264216005e-06
-0.0017697326387916181,-0.0002688142614734265,-5.216766488177652e-06
-0.0017380051159319742,-0.0002696911959121074,-5.351392852524036e-06
-0.0017215829294906677,-0.00027055609292346306,-5.486454674732928e-06
-0.0017201939146030654,-0.0002714165371344865,-5.621947832247415e-06
-0.0017335011644699118,-0.0002722799609042547,-5.757871956757101e-06
-0.0017611050604421287,-0.0002731536124604827,-5.894230350098285e-06
-0.001802545453761121,-0.00027404452508903354,-6.031029884485664e-06
-0.0018573039881310544,-0.00027495948744950656,-6.168280887620299e-06
-0.001924806550143804,-0.0002759050150840753,-6.305997013253694e-06
-0.0020044258311656972,-0.00027688732317940264,-6.444195097819564e-06
-0.0020954839831526604,-0.0002779123006329822,-6.58289500377266e-06
-0.002197255355414473,-0.000278985485467624,-6.722119450297811e-06
-0.002308969306151224,-0.0002801120416330154,-6.861893832072971e-06
-0.0024298130849690356,-0.00028129673723079545,-7.0022460267889235e-06
-0.0025589347828597524,-0.0002825439241977526,-7.143206192146061e-06
-0.0026954463533370187,-0.0002838575194818018,-7.28480655306595e-06
-0.0028384267245311887,-0.0002852409877512689,-7.427081179874218e-06
-0.0029869250371869814,-0.0002866973256916984,-7.5700657582349596e-06
-0.003139964048396967,-0.0002882290479630944,-7.713797351648658e-06
-0.0032965437383444857,-0.0002898381749097798,-7.858314157366876e-06
-0.003455645157572164,-0.00029152622213375894,-8.00365525662776e-06
-0.003616234558113221,-0.0002932941920626803,-8.14986036017687e-06
-0.0037772678532525276,-0.00029514256766552177,-8.296969550108921e-06
-0.003937695435593957,-0.0002970713084877334,-8.445023019147235e-06
-0.004096467349869273,-0.0002990798491840992,-8.594060808565193e-06
-0.004252538775913084,-0.00030116710071554476,-8.744122546040105e-06
-0.0044048757437988185,-0.00030333145434547276,-8.895247184805358e-06
-0.004552460986171688,-0.0003055707885279654,-9.047472745523717e-06
-0.004694299829430208,-0.0003078824787318659,-9.200836062338674e-06
-0.00482942602957734,-0.00031026341019661774,-9.355372534570794e-06
-0.004956907467694419,-0.0003127099935709357,-9.511115885512682e-06
-0.005075851629477419,-0.0003152181833452287,-9.668097929741723e-06
-0.005185410796523872,-0.000317783498951729,-9.826348350315963e-06
-0.005284786875681709,-0.00032040104836978035,-9.985894487146341e-06
-0.005373235791998985,-0.0003230655540367005,-1.0146761137747961e-05
-0.0054500713705660985,-0.00032577138082734176,-1.0308970371463972e-05
-0.005514668632029916,-0.0003285125658279908,-1.0472541358127804e-05
-0.005566466432801519,-0.00033128284959419867,-1.0637490211983351e-05
-0.005604969402522666,-0.0003340757085530297,-1.080382985152016e-05
-0.005629749168798751,-0.0003368843881958601,-1.0971569875707381e-05
-0.005640444902934278,-0.0003397019367137933,-1.1140716456934795e-05
-0.005636763255949075,-0.0003425212387535142,-1.1311272250801622e-05
-0.005618477772317218,-0.00034533504901058075,-1.1483236322742645e-05
-0.005585427873408732,-0.00034813602542201224,-1.1656604091350793e-05
-0.005537517504988517,-0.00035091676176661154,-1.1831367288147949e-05
-0.0054747135458890935,-0.00035366981952933093,-1.2007513933471935e-05
-0.005397044069932985,-0.00035638775893328644,-1.218502832808759e-05
-0.005304596532669597,-0.0003590631690839371,-1.2363891060091896e-05
-0.0051975159209964724,-0.0003616886971973536,-1.2544079026662219e-05
-0.005076002867110603,-0.00036425707689438034,-1.2725565470185151e-05
-0.004940311698637118,-0.00036676115553581725,-1.29083200282927e-05
-0.004790748379274833,-0.0003691939205552952,-1.309230879731548e-05
-0.0046276682875643375,-0.000371548524722005,-1.3277494408634804e-05
-0.0044514737810284555,-0.0003738183102391532,-1.3463836117375093e-05
-0.004262611497640614,-0.00037599683155882047,-1.3651289902824587e-05
-0.004061569359230396,-0.0003780778767730382,-1.3839808579907553e-05
-0.0038488732621156877,-0.00038005548742837475,-1.4029341920957905e-05
-0.0036250834632174634,-0.00038192397660970803,-1.4219836786967426e-05
-0.0033907906903843524,-0.0003836779451481085,-1.441123726740688e-05
-0.0031466120217433784,-0.00038531229582614045,-1.4603484827650443e-05
-0.0028931865878211584,-0.0003868222454785316,-1.479651846297661e-05
-0.0026311711475533158,-0.00038820333491237523,-1.4990274858074337e-05
-0.0023612355752977545,-0.000389451436593088,-1.5184688550950703e-05
-0.00208405827640592,-0.0003905627600560139,-1.5379692100112978e-05
-0.0018003215322232907,-0.0003915338550081712,-1.5575216253879024e-05
-0.0015107067686757068,-0.00039236161208339594,-1.5771190120651917e-05
-0.0012158897496111639,-0.00039304326121296764,-1.5967541338976007e-05
-0.0009165357159361904,-0.00039357636757935446,-1.616419624617409e-05
-0.0006132945181811899,-0.0003939588251378838,-1.63610800443534e-05
-0.0003067958141505878,-0.0003941888477209668,-1.6558116962568113e-05
2.355582937963187e-06,-0.00039426495777876994,-1.6755230413943047e-05
0.0003135841176828664,-0.00039418597285361475,-1.6952343146601143e-05
0.0006263475783459463,-0.00039395098992960753,-1.7149377387296948e-05
0.0009401407596597655,-0.00039355936784510613,-1.7346254976740625e-05
0.001254498596170679,-0.0003930107080061485,-1.754289749570344e-05
0.0015689986581471891,-0.00039230483369256903,-1.7739226381128118e-05
0.0018832629195878353,-0.00039144176829813526,-1.7935163031625794e-05
0.002196958741227025,-0.00039042171288293157,-1.813062890192106e-05
0.002509799046176874,-0.0003892450234360806,-1.8325545586000814e-05
0.00282154169169802,-0.00038791218825161186,-1.8519834888922736e-05
0.0031319880581496726,-0.00038642380581414994,-1.8713418887439175e-05
0.003440980892137208,-0.00038478056357657824,-1.8906219979786856e-05
0.003748401460360517,-0.00038298321798845383,-1.9098160925178113e-05
0.0040541660950499684,-0.0003810325760996012,-1.9289164873700126e-05
0.0043582222368860465,-0.0003789294790166172,-1.947915538747918e-05
0.004660544099178343,-0.0003766747874326011,-1.9668056454091485e-05
0.004961128082972474,-0.00037426936938706335,-1.9855792493296402e-05
0.005259988067111136,-0.00037171409034954245,-2.0042288358230552e-05
0.005557150685057363,-0.0003690098056615003,-2.0227469332233313e-05
0.0058526506873166975,-0.0003661573553184068,-2.041126112247829e-05
0.006146526479022523,-0.00036315756102682197,-2.0593589851564596e-05
0.006438815916277668,-0.00036001122542799694,-2.0774382048178302e-05
0.006729552438568037,-0.0003567191333392855,-2.095356463787012e-05
0.007018761605348911,-0.00035328205482830624,-2.113106493491202e-05
0.0073064580923098135,-0.0003497007499038916,-2.130681063609507e-05
0.007592643186037258,-0.0003459759745843048,-2.148072981721712e-05
0.007877302797134708,-0.0003421084880885118,-2.1652750932885324e-05
0.008160405999117597,-0.0003380990608894487,-2.1822802820129815e-05
0.008441904098714533,-0.0003339484833649907,-2.1990814706193426e-05
0.008721730247670645,-0.0003296575747783944,-2.2156716220729272e-05
0.008999799605148424,-0.00032522719231518963,-2.232043741250267e-05
0.009276010045974135,-0.000320658239902409,-2.2481908770557067e-05
0.009550243384882518,-0.00031595167654469486,-2.2641061249668842e-05
0.009822367060125688,-0.0003111085239334428,-2.2797826299788377e-05
0.010092236200724643,-0.0003061298731182302,-2.2952135899051296e-05
0.010359695995835003,-0.0003010168900690903,-2.3103922589848128e-05
0.01062458429005857,-0.0002957708199976169,-2.3253119517364805e-05
0.010886734337311719,-0.00029039299034077433,-2.3399660469949403e-05
0.011145977649517398,-0.0002848848123440671,-2.3543479920620613e-05
0.011402146872243432,-0.0002792477812136269,-2.3684513069010036e-05
0.011655078613256977,-0.00027348347484225177,-2.3822695883024005e-05
0.011904616152554653,-0.0002675935511507989,-2.395796513952227e-05
0.012150611980076258,-0.00026157974411764116,-2.409025846333938e-05
0.012392930132410029,-0.0002554438585895196,-2.421951436401617e-05
0.012631448317037225,-0.00024918776397715774,-2.4345672269657838e-05
0.012866059815186565,-0.0002428133869441018,-2.4468672557388152e-05
0.013096675149192695,-0.000236322703203007,-2.458845657992493e-05
0.013323223498952309,-0.00022971772854097074,-2.4704966687860923e-05
0.013545653859217091,-0.0002230005092014284,-2.4818146247296522e-05
0.01376393594046644,-0.00021617311175150752,-2.4927939652534757e-05
0.013978060825353167,-0.00020923761256005262,-2.5034292333612647e-05
0.014188041400653833,-0.00020219608700355088,-2.5137150758503547e-05
0.014393912593709401,-0.00019505059850496005,-2.5236462429880677e-05
0.014595731452728081,-0.00018780318749335068,-2.5332175876380253e-05
0.014793577120606518,-0.00018045586035001702,-2.5424240638341094e-05
0.014987550759731535,-0.00017301057837993252,-2.5512607248023583e-05
0.015177775484820953,-0.0001654692468187944,-2.5597227204323263e-05
0.015364396345294446,-0.00015783370386126554,-2.567805294199328e-05
0.015547580369451688,-0.00015010570968257902,-2.575503779537924e-05
0.015727516652306837,-0.00014228693542713938,-2.582813595665667e-05
0.01590441645077912,-0.0001343789521513679,-2.5897302428551297e-05
0.01607851324659635,-0.00012638321972702402,-2.5962492971520894e-05
0.016250062738863796,-0.00011830107573065899,-2.6023664045385314e-05
0.01641934272515536,-0.0001101337243646542,-2.6080772745409142e-05
0.01658665282413082,-0.00010188222547733264,-2.6133776732869638e-05
0.016752313993544817,-9.354748377291374e-05,-2.61826341601822e-05
0.016916667810270552,-8.51302383219599e-05,-2.6227303590705917e-05
0.017080075502240732,-7.663105249383208e-05,-2.6267743913409864e-05
0.0172429167521944,-6.80503044302233e-05,-2.6303914252640877e-05
0.017405588319172566,-5.938817816238156e-05,-2.633577387328903e-05
0.017568502531250054,-5.06446554497759e-05,-2.636328208169207e-05
0.017732085690094563,-4.181950839443975e-05,-2.6386398122653122e-05
0.01789677640921706,-3.291229286961184e-05,-2.6405081072969134e-05
0.018063023895868918,-2.3922342793340346e-05,-2.6419289731884872e-05
0.01823128618122455,-1.484876527406698e-05,-2.6428982508901723e-05
0.018402028298793578,-5.690436654062449e-06,-2.6434117309383756e-05
0.018575720403995348,3.5540005216347833e-06,-2.6434651418416863e-05
0.018752835820395757,1.2886139577732559e-05,-2.643054138339202e-05
0.018933848994479384,2.2307810781451344e-05,-2.6421742895802224e-05
0.019119233343448516,3.182108136593332e-05,-2.6408210672765378e-05
0.019309458985780795,4.1428254448240646e-05,-2.6389898338811835e-05
0.01950499034461716,5.113186678084013e-05,-2.6366758308504563e-05
0.019706283606850384,6.093468526870702e-05,-2.6338741670492177e-05
0.019913784012080063,7.083970217343964e-05,-2.630579807363164e-05
0.02012792294280431,8.085012891216073e-05,-2.6267875615860242e-05
0.020349114790965,9.096938834560306e-05,-2.6224920736545802e-05
0.0205777535823095,0.00010120110543892168,-2.617687811309967e-05
0.020814209348190595,0.0001115490961715467,-2.6123690562697053e-05
0.021058824245757144,0.00012201735457003363,-2.606529895001166e-05
0.02131190843976698,0.00013261003774141467,-2.6001642101933798e-05
0.021573735768227555,0.0001433314487934133,-2.593265673030009e-05
0.021844539219235112,0.00015418601754027897,-2.585827736371667e-05
0.022124506250966024,0.00016517827890782924,-2.5778436289604643e-05
0.02241377399279275,0.00017631284896876893,-2.5693063507635494e-05
0.022712424373770614,0.00018759439856040977,-2.56020866957532e-05
0.023020479236085255,0.00019902762446287372,-2.550543118999738e-05
0.02333789550498731,0.00021061721814814185,-2.5403019979344626e-05
0.02366456050107977,0.00022236783214965862,-2.5294773716770176e-05
0.024000287489968262,0.00023428404414742063,-2.5180610747695906e-05
0.024344811561667675,0.0002463703189103296,-2.5060447156931468e-05
0.024697785916884474,0.00025863096827996764,-2.4934196835133894e-05
0.02505877861656953,0.00027107010941333114,-2.480177156571057e-05
0.02542726983242508,0.0002836916215255798,-2.466308113297584e-05
0.025802649621397982,0.00029649910138903555,-2.4518033452247186e-05
0.026184216237221506,0.00030949581785369044,-2.4366534722436506e-05
0.026571174992959953,0.0003226846656612358,-2.4208489601557775e-05
0.02696263770479912,0.0003360681188356756,-2.4043801405433548e-05
0.02735762277015348,0.00034964818395441375,-2.3872372329736027e-05
0.02775505594689347,0.0003634263536336755,-2.3694103695339005e-05
0.02815377189877923,0.0003774035605950937,-2.3508896216781813e-05
0.028552516558938274,0.00039158013270952305,-2.331665029345566e-05
0.02894995034250453,0.0004059557494348837,-2.3117266322919558e-05
0.029344652217011474,0.0004205294000747627,-2.2910645035542146e-05
0.02973512462268228,0.00043529934428468615,-2.2696687849452284e-05
0.030119799227071736,0.0004502630752471247,-2.2475297244569332e-05
0.030497043494696372,0.0004654172859275667,-2.224637715427566e-05
0.030865168048869542,0.0004807578388134582,-2.20098333730904e-05
0.031222434801305172,0.0004962797395260019,-2.1765573978505535e-05
0.03156706582382996,0.0005119771146822857,-2.1513509764953464e-05
0.031897252928874936,0.000527843194370462,-2.1253554687690278e-05
0.03221116790787599,0.0005438702995796497,-2.098562631420275e-05
0.03250697335389133,0.0005600498348950915,-2.0709646280584067e-05
