frame_number,force
0,888.6040700071102
1,888.5958769052496
2,888.5877633701597
3,888.5798079904123
4,888.5720874198115
5,888.5646754619119
6,888.5576422117495
7,888.551053267567
8,888.5449690226646
9,888.5394440456857
10,888.5345265563906
11,888.5302580027749
12,888.5266727436722
13,888.5237978383923
14,888.5216529417131
15,888.5202502994509
16,888.5195948375087
17,888.5196843358316
18,888.5205096780525
19,888.5220551678348
20,888.5242989038117
21,888.5272132060113
22,888.5307650871607
23,888.534916761984
24,888.5396261865069
25,888.5448476177648
26,888.5505321829185
27,888.5566284464028
28,888.5630829649451
29,888.5698408228781
30,888.5768461430038
31,888.5840425700915
32,888.5913737247457
33,888.5987836257945
34,888.6062170802395
35,888.6136200409903
36,888.620939933625
37,888.6281259541473
38,888.6351293400226
39,888.6419036163431
40,888.64840481778
41,888.6545916856363
42,888.6604258385115
43,888.6658719148961
44,888.6708976861498
45,888.6754741384735
46,888.6795755225673
47,888.6831793696181
48,888.6862664721008
49,888.688820827718
50,888.6908295450895
51,888.6922827108166
52,888.693173218984
53,888.6934965655515
54,888.6932506114125
55,888.6924353193932
56,888.6910524719809
57,888.6891053775907
58,888.6865985734012
59,888.6835375324912
60,888.679928382577
61,888.6757776431059
62,888.6710919866939
63,888.6658780299063
64,888.6601421569846
65,888.6538903780619
66,888.6471282210389
67,888.6398606546068
68,888.6320920392764
69,888.623826103225
70,888.6150659397802
71,888.6058140234957
72,888.5960722422179
73,888.5858419431831
74,888.5751239918351
75,888.563918842498
76,888.5522266201958
77,888.5400472129897
78,888.5273803744695
79,888.5142258360171
80,888.5005834275678
81,888.4864532041438
82,888.4718355744981
83,888.4567314284662
84,888.4411422607288
85,888.4250702895778
86,888.4085185690775
87,888.3914910919023
88,888.3739928790902
89,888.356030052787
90,888.3376098888806
91,888.3187408479416
92,888.2994325844963
93,888.2796959358596
94,888.2595428922756
95,888.2389865500205
96,888.2180410486327
97,888.1967214929869
98,888.1750438611981
99,888.1530249007304
100,888.1306820171509
101,888.108033161308
102,888.0850967198324
103,888.061891410525
104,888.0384361800867
105,888.0147500990981
106,887.9908522491613
107,887.9667615989409
108,887.942496868208
109,887.9180763811505
110,887.8935179122008
111,887.8688385297786
112,887.8440544454005
113,887.8191808764631
114,887.7942319298025
115,887.7692205102206
116,887.7441582548103
117,887.7190554913526
118,887.6939212179503
119,887.6687631012196
120,887.6435874909732
121,887.6183994496809
122,887.5932027950631
123,887.5680001543247
124,887.54279302901
125,887.5175818701255
126,887.4923661635511
127,887.4671445253958
128,887.4419148058762
129,887.4166741989461
130,887.3914193538263
131,887.3661464842312
132,887.3408514718163
133,887.3155299619631
134,887.2901774515842
135,887.2647893694201
136,887.2393611494047
137,887.2138882977277
138,887.1883664546474
139,887.162791452917
140,887.1371593754554
141,887.1114666149315
142,887.0857099369548
143,887.0598865468346
144,887.0339941579482
145,887.0080310582786
146,886.9819961710593
147,886.955889105619
148,886.9297101949006
149,886.9034605165821
150,886.8771418958013
151,886.8507568896525
152,886.8243087562483
153,886.797801413067
154,886.7712393898418
155,886.7446277804669
156,886.7179721966698
157,886.6912787242024
158,886.6645538810479
159,886.6378045771474
160,886.6110380758633
161,886.5842619579378
162,886.5574840887157
163,886.53071258911
164,886.5039558104353
165,886.4772223129344
166,886.4505208476239
167,886.4238603412089
168,886.3972498843669
169,886.3706987244113
170,886.344216263626
171,886.3178120639407
172,886.2914958570922
173,886.265277557538
174,886.2391672740414
175,886.2131753158108
176,886.1873121904803
177,886.1615885933187
178,886.1360153887292
179,886.1106035856754
180,886.0853643081022
181,886.0603087600639
182,886.0354481837637
183,886.010793807916
184,885.9863567844014
185,885.9621481127914
186,885.9381785540918
187,885.9144585362599
188,885.89099805444
189,885.8678065686365
190,885.8448929012317
191,885.8222651368496
192,885.7999305275199
193,885.7778954065943
194,885.7561651152093
195,885.7347439449508
196,885.7136350995206
197,885.6928406768683
198,885.6723616719552
199,885.6521979992685
200,885.6323485333238
201,885.6128111647964
202,885.5935828696319
203,885.5746597880143
204,885.5560373089572
205,885.5377101549301
206,885.5196724605762
207,885.5019178412781
208,885.484439450923
209,885.467230032227
210,885.4502819655489
211,885.4335873224363
212,885.4171379286621
213,885.400925439002
214,885.3849414229284
215,885.3691774574434
216,885.3536252214107
217,885.3382765854797
218,885.3231236927555
219,885.3081590269882
220,885.2933754664729
221,885.2787663229011
222,885.2643253654184
223,885.2500468312638
224,885.2359254251874
225,885.2219563099446
226,885.2081350896286
227,885.1944577867607
228,885.1809208132147
229,885.1675209343036
230,885.15425522488
231,885.1411210161993
232,885.1281158322922
233,885.1152373143315
234,885.1024831311197
235,885.0898508739637
236,885.077337935305
237,885.0649413723795
238,885.0526577593074
239,885.0404830327154
240,885.0284123368381
241,885.0164398740413
242,885.0045587662291
243,884.9927609320908
244,884.9810369848226
245,884.9693761547467
246,884.9577662408989
247,884.9461935949332
248,884.9346431397322
249,884.9230984241334
250,884.911541714086
251,884.8999541192807
252,884.8883157531748
253,884.8766059236187
254,884.8648033507596
255,884.8528864081145
256,884.8408333817322
257,884.8286227415642
258,884.8162334186724
259,884.8036450816214
260,884.7908384054765
261,884.777795327504
262,884.7644992848133
263,884.7509354303238
264,884.7370908245066
265,884.722954601672
266,884.7085181110929
267,884.6937750339347
268,884.6787214758943
269,884.663356033287
270,884.6476798286988
271,884.6316965119925
272,884.6154122228361
273,884.598835511434
274,884.5819772149002
275,884.5648502880132
276,884.547469588787
277,884.5298516210205
278,884.5120142377364
279,884.4939763116323
280,884.4757573815141
281,884.4573772864392
282,884.4388558008081
283,884.4202122833228
284,884.4014653509103
285,884.382632586101
286,884.363730283664
287,884.34477324008
288,884.3257745879549
289,884.3067456767004
290,884.2876960004351
291,884.2686331737883
292,884.2495629558489
293,884.2304893216639
294,884.2114145794088
295,884.1923395298618
296,884.1732636634193
297,884.154185388279
298,884.1351022812257
299,884.1160113502434
300,884.0969092971336
301,884.0777927692862
302,884.0586585925306
303,884.0395039805738
304,884.0203267195214
305,884.0011253275964
306,883.9818991908195
307,883.9626486758915
308,883.9433752223049
309,883.9240814168243
310,883.9047710544326
311,883.8854491901005
312,883.866122185367
313,883.8467977534781
314,883.8274850068883
315,883.8081945105403
316,883.7889383429532
317,883.769730165129
318,883.7505852953101
319,883.7315207860976
320,883.7125554996212
321,883.6937101766182
322,883.6750074963834
323,883.6564721258009
324,883.6381307560678
325,883.6200121252067
326,883.6021470238628
327,883.5845682818043
328,883.5673107329088
329,883.5504111569198
330,883.533908196759
331,883.5178422507545
332,883.50225534008
333,883.4871909531789
334,883.4726938705168
335,883.4588099736427
336,883.4455860418549
337,883.4330695384283
338,883.4213083875084
339,883.4103507427845
340,883.400244749708
341,883.3910383037072
342,883.3827788068535
343,883.3755129245227
344,883.3692863424867
345,883.3641435245079
346,883.360127470872
347,883.3572794784931
348,883.355638902883
349,883.3552429220492
350,883.3561263030095
351,883.3583211729617
352,883.3618567983032
353,883.3667593749265
354,883.3730518326121
355,883.3807536556827
356,883.3898807218978
357,883.4004451615891
358,883.412455238752
359,883.4259152550986
360,883.4408254773183
361,883.4571820875686
362,883.4749771578344
363,883.4941986499242
364,883.5148304437994
365,883.5368523972054
366,883.5602404392345
367,883.5849666998339
368,883.6109996765143
369,883.6383044384371
370,883.6668428665728
371,883.6965739268833
372,883.7274539718761
373,883.759437064931
374,883.7924753218838
375,883.826519265202
376,883.8615181870754
377,883.8974205183987
378,883.9341742007845
379,883.9717270582997
380,884.0100271647547
381,884.0490232014622
382,884.088664799922
383,884.1289028641178
384,884.1696898679476
385,884.2109801244775
386,884.25273002527
387,884.2948982499059
388,884.3374459473841
389,884.3803368915749
390,884.4235376124299
391,884.4670175041066
392,884.5107489111042
393,884.5547071935453
394,884.5988707721815
395,884.6432211525901
396,884.6877429273138
397,884.7324237553869
398,884.7772543207027
399,884.8222282728289
400,884.867342154805
401,884.9125953216969
402,884.957989851662
403,885.0035304490272
404,885.0492243372722
405,885.0950811393591
406,885.1411127435828
407,885.1873331546964
408,885.2337583319019
409,885.2804060168153
410,885.3272955552295
411,885.3744477163241
412,885.4218845123662
413,885.4696290212357
414,885.5177052132353
415,885.5661377826195
416,885.6149519835772
417,885.6641734701532
418,885.7138281392341
419,885.763941974843
420,885.8145408910361
421,885.8656505701432
422,885.9172962928808
423,885.9695027569998
424,886.0222938819587
425,886.0756925987201
426,886.1297206256653
427,886.1843982332992
428,886.2397440017403
429,886.2957745758155
430,886.3525044227001
431,886.4099455965826
432,886.4681075143117
433,886.5269967455247
434,886.5866168199708
435,886.6469680535419
436,886.7080473935639
437,886.7698482838025
438,886.832360550028
439,886.8955703068549
440,886.9594598853876
441,887.0240077795942
442,887.0891886085071
443,887.154973092069
444,887.2213280402416
445,887.2882163568025
446,887.3555970601998
447,887.4234253236308
448,887.4916525354372
449,887.560226379817
450,887.6290909377183
451,887.6981868088618
452,887.7674512571623
453,887.8368183820454
454,887.9062193169527
455,887.9755824544836
456,888.0448336960932
457,888.1138967234863
458,888.1826932889215
459,888.2511435224186
460,888.3191662546775
461,888.3866793546271
462,888.4536000798062
463,888.5198454367888
464,888.5853325480657
465,888.6499790212285
466,888.7137033160901
467,888.7764251058734
468,888.8380656298764
469,888.8985480365205
470,888.957797716916
471,889.0157426299569
472,889.0723136204391
473,889.127444731472
474,889.1810735115761
475,889.2331413159148
476,889.283593600488
477,889.3323802076476
478,889.3794556407641
479,889.4247793253793
480,889.4683158539096
481,889.5100352108152
482,889.54991297493
483,889.5879304954485
484,889.6240750382595
485,889.658339900025
486,889.6907244882663
487,889.7212343663645
488,889.7498812626228
489,889.7766830424655
490,889.8016636427825
491,889.8248529677568
492,889.8462867462332
493,889.8660063513594
494,889.8840585835632
495,889.9004954181216
496,889.9153737189544
497,889.9287549207596
498,889.9407046818505
499,889.9512925098139
500,889.960591361531
501,889.9686772185571
502,889.975628638865
503,889.9815262868462
504,889.9864524450579
505,889.9904905127872
506,889.993724497319
507,889.996238503641
508,889.9981162276086
509,889.9994404568002
510,890.0002925827213
511,890.0007521277499
512,890.0008962901991
513,890.0007995107275
514,890.0005330628229
515,890.0001646695597
516,889.9997581488739
517,889.9993730902798
518,889.9990645668197
519,889.9988828865381
520,889.9988733877396
521,889.9990762819012
522,889.9995265475211
523,890.0002538771822
524,890.0012826785335
525,890.0026321280762
526,890.0043162751008
527,890.0063441918088
528,890.008720164295
529,890.0114439177979
530,890.0145108689662
531,890.0179123980892
532,890.0216361352151
533,890.0256662555526
534,890.0299837810572
535,890.0345668862439
536,890.0393912069236
537,890.0444301507986
538,890.0496552084933
539,890.0550362626542
540,890.0605418915558
541,890.0661396627017
542,890.071796411634
543,890.0774785016625
544,890.083152061195
545,890.0887831963113
546,890.0943381772898
547,890.0997835992328
548,890.105086518719
549,890.1102145700154
550,890.1151360651929
551,890.1198200823501
552,890.1242365453908
553,890.1283562980701
554,890.1321511746577
555,890.135594069472
556,890.138659007461
557,890.1413212177268
558,890.1435572113074
559,890.1453448638841
560,890.1466635038082
561,890.1474940060227
562,890.1478188925402
563,890.1476224396231
564,890.1468907908471
565,890.1456120741859
566,890.1437765201601
567,890.141376576906
568,890.1384070171725
569,890.1348650324504
570,890.1307503107929
571,890.1260650968438
572,890.1208142342116
573,890.1150051907588
574,890.1086480662508
575,890.101755579976
576,890.0943430348134
577,890.0864282543404
578,890.0780314903258
579,890.0691752987244
580,890.0598843831497
581,890.0501854059619
582,890.0401067684794
583,890.0296783631187
584,890.0189313012684
585,890.0078976215765
586,889.996609984434
587,889.9851013597657
588,889.9734047161517
589,889.9615527189395
590,889.9495774432386
591,889.9375101054511
592,889.9253808154916
593,889.9132183512722
594,889.901049956579
595,889.8889011625116
596,889.8767956314856
597,889.8647550221704
598,889.85279887406
599,889.8409445111478
600,889.8292069645948
601,889.8175989141255
602,889.806130647421
603,889.794810036172
604,889.7836425266252
605,889.7726311417734
606,889.7617764922225
607,889.7510767931117
608,889.7405278847438
609,889.7301232545532
610,889.7198540577818
611,889.7097091338495
612,889.699675015332
613,889.6897359271511
614,889.6798737751068
615,889.67006812493
616,889.6602961752602
617,889.6505327298235
618,889.6407501751986
619,889.630918470961
620,889.6210051592633
621,889.6109754014376
622,889.6007920496049
623,889.5904157606246
624,889.5798051575687
625,889.5689170408723
626,889.5577066484448
627,889.5461279616568
628,889.5341340519435
629,889.5216774607776
630,889.5087106045835
631,889.495186195864
632,889.4810576715063
633,889.4662796182677
634,889.4508081843777
635,889.4346014660965
636,889.4176198591756
637,889.3998263667813
638,889.3811868569849
639,889.3616702644935
640,889.3412487331051
641,889.3198976972764
642,889.2975959029422
643,889.2743253693919
644,889.2500712958189
645,889.2248219180847
646,889.1985683230859
647,889.1713042296966
648,889.1430257462398
649,889.1137311143198
650,889.0834204478193
651,889.0520954749608
652,889.0197592912577
653,888.9864161315915
654,888.95207116993
655,888.9167303554455
656,888.8804002942597
657,888.8430881863383
658,888.80480182606
659,888.7655496720727
660,888.725340987651
661,888.6841860479633
662,888.6420964064364
663,888.5990852094575
664,888.5551675471265
665,888.5103608274684
666,888.464685162279
667,888.418163754244
668,888.3708232762647
669,888.3226942342504
670,888.2738113040382
671,888.2242136322208
672,888.173945090096
673,888.1230544700402
674,888.0715956145064
675,888.0196274694995
676,887.9672140567859
677,887.9144243619966
678,887.8613321384111
679,887.8080156277825
680,887.7545572001759
681,887.7010429152788
682,887.6475620085588
683,887.5942063068778
684,887.5410695794059
685,887.4882468308167
686,887.4358335448931
687,887.3839248879475
688,887.3326148829409
689,887.2819955668425
690,887.2321561452245
691,887.1831821585403
692,887.1351546735822
693,887.0881495120283
694,887.0422365270538
695,886.9974789388665
696,886.9539327396874
697,886.9116461772387
698,886.8706593234434
699,886.8310037326916
700,886.7927021923421
701,886.7557685670183
702,886.7202077373879
703,886.6860156333169
704,886.6531793605818
705,886.6216774198172
706,886.5914800160351
707,886.5625494564846
708,886.534840633394
709,886.5083015864699
710,886.4828741385105
711,886.458494596641
712,886.4350945115865
713,886.4126014876174
714,886.3909400357188
715,886.3700324620715
716,886.349799783495
717,886.330162661119
718,886.3110423429243
719,886.2923616049944
720,886.2740456807802
721,886.2560231676441
722,886.2382269003099
723,886.2205947811534
724,886.2030705572562
725,886.1856045342703
726,886.1681542179518
727,886.1506848753198
728,886.1331700079984
729,886.1155917305522
730,886.0979410475235
731,886.0802180250106
732,886.0624318555987
733,886.0446008183807
734,886.02675213796
735,886.0089217475597
736,885.9911539619742
737,885.9735010665881
738,885.95602282932
739,885.938785942999
740,885.9218634061092
741,885.9053338499102
742,885.8892808196965
743,885.8737920174368
744,885.8589585124461
745,885.844873926112
746,885.8316335957137
747,885.8193337207614
748,885.8080704935467
749,885.7979392147574
750,885.7890333955417
751,885.7814438489147
752,885.7752577751351
753,885.7705578470958
754,885.7674213027078
755,885.7659190515959
756,885.7661148031838
757,885.7680642226524
758,885.77181412106
759,885.7774016870513
760,885.7848537703086
761,885.7941862302314
762,885.8054033657004
763,885.8184974421407
764,885.8334483304335
765,885.8502232690097
766,885.8687767563097
767,885.8890505762752
768,885.9109739554254
769,885.9344638470745
770,885.9594253366844
771,885.9857521618212
772,886.0133273399937
773,886.0420238972683
774,886.0717056899806
775,886.1022283112858
776,886.1334400737353
777,886.1651830583276
778,886.1972942197356
779,886.229606536965
780,886.2619501986471
781,886.2941538125851
782,886.3260456300565
783,886.3574547765309
784,886.3882124813103
785,886.4181532983355
786,886.447116308653
787,886.4749462924752
788,886.5014948568007
789,886.5266215042782
790,886.5501946305078
791,886.5720924396599
792,886.5922037713185
793,886.610428833971
794,886.6266798420428
795,886.6408815540383
796,886.6529717098713
797,886.6629013661499
798,886.6706351285659
799,886.6761512802129
800,886.6794418039788
801,886.6805122970792
802,886.6793817767907
803,886.6760823781123
804,886.6706589459037
805,886.6631685260511
806,886.6536797625112
807,886.6422722093153
808,886.6290355681662
809,886.6140688631415
810,886.5974795646704
811,886.5793826755163
812,886.5598997914414
813,886.5391581481432
814,886.5172896642422
815,886.4944299883155
816,886.4707175566703
817,886.4462926675894
818,886.4212965767493
819,886.3958706172735
820,886.3701553467279
821,886.3442897225374
822,886.3184103067401
823,886.2926505004372
824,886.2671398077531
825,886.2420031288589
826,886.2173600820253
827,886.1933243560146
828,886.1700030961795
829,886.1474963297933
830,886.1258964377939
831,886.1052876810937
832,886.0857457898173
833,886.0673376230942
834,886.0501209053714
835,886.0341440432564
836,886.019446025355
837,886.0060564065346
838,885.9939953768346
839,885.9832739131541
840,885.9738940091072
841,885.9658489760437
842,885.9591238068336
843,885.9536955932795
844,885.94953398742
845,885.9466016965742
846,885.944855002219
847,885.9442442940332
848,885.9447146124414
849,885.9462061950097
850,885.9486550233253
851,885.9519933674329
852,885.9561503249391
853,885.9610523519527
854,885.9666237832607
855,885.9727873394629
856,885.9794646189866
857,885.9865765727068
858,885.9940439583511
859,886.0017877713539
860,886.0097296487705
861,886.017792243395
862,886.0258995661268
863,886.0339772956524
864,886.0419530555084
865,886.0497566594431
866,886.0573203261469
867,886.0645788631837
868,886.0714698175796
869,886.0779335884927
870,886.0839134971429
871,886.0893558109908
872,886.0942097223495
873,886.0984272852398
874,886.1019633175747
875,886.1047752780369
876,886.1068231277063
877,886.1080691856099
878,886.1084779855844
879,886.1080161398667
880,886.1066522128858
881,886.104356607015
882,886.101101460917
883,886.0968605607626
884,886.0916092645219
885,886.0853244388652
886,886.0779844067396
887,886.0695689023997
888,886.060059030878
889,886.049437230807
890,886.037687241941
891,886.0247940803138
892,886.0107440245472
893,885.9955246169837
894,885.9791246832168
895,885.9615343727858
896,885.9427452223251
897,885.9227502410153
898,885.9015440172541
899,885.879122844636
900,885.8554848641356
901,885.8306302181925
902,885.8045612119033
903,885.7772824768867
904,885.7488011341411
905,885.7191269530496
906,885.6882725045838
907,885.6562533076534
908,885.623087968072
909,885.588798309363
910,885.5534094935434
911,885.5169501285143
912,885.4794523573999
913,885.4409519246788
914,885.4014882143347
915,885.3611042562566
916,885.3198466982532
917,885.2777657419837
918,885.234915041945
