frame_number,force
0,710.9577600079365
1,710.9517217346124
2,710.9456926132614
3,710.939681745322
4,710.9336981318505
5,710.9277506255112
6,710.9218478856505
7,710.9159983370186
8,710.9102101314088
9,710.9044911105713
10,710.8988487687898
11,710.8932902141335
12,710.8878221279048
13,710.882450722094
14,710.8771816950107
15,710.8720201858715
16,710.8669707298479
17,710.8620372157089
18,710.8572228486192
19,710.8525301208806
20,710.8479607933247
21,710.8435158892812
22,710.839195701319
23,710.8349998086271
24,710.8309271006693
25,710.8269758012467
26,710.82314348687
27,710.8194270945655
28,710.8158229165643
29,710.8123265820647
30,710.8089330286277
31,710.8056364671666
32,710.8024303448143
33,710.7993073095812
34,710.7962591800698
35,710.7932769229424
36,710.7903506404779
37,710.7874695703794
38,710.7846220997839
39,710.7817957950163
40,710.7789774481248
41,710.7761531409939
42,710.7733083278367
43,710.7704279365688
44,710.7674964883811
45,710.7644982328402
46,710.7614172937048
47,710.7582378193139
48,710.7549441313702
49,710.751520866916
50,710.7479531095674
51,710.7442265071286
52,710.7403273734668
53,710.7362427730171
54,710.7319605866479
55,710.7274695580013
56,710.7227593198138
57,710.7178204000642
58,710.7126442082449
59,710.7072230027138
60,710.7015498408465
61,710.6956185145436
62,710.6894234746148
63,710.682959748601
64,710.6762228572828
65,710.669208735064
66,710.6619136586054
67,710.6543341867176
68,710.6464671126496
69,710.6383094277705
70,710.6298582939855
71,710.6211110219236
72,710.6120650530773
73,710.6027179457338
74,710.593067365697
75,710.583111083262
76,710.572846978087
77,710.5622730537264
78,710.5513874633174
79,710.5401885468738
80,710.5286748790458
81,710.5168453249485
82,710.504699101463
83,710.4922358423078
84,710.4794556665528
85,710.4663592512568
86,710.4529479089811
87,710.4392236700929
88,710.4251893684087
89,710.4108487272332
90,710.3962064416945
91,710.3812682527741
92,710.3660410085071
93,710.3505327082048
94,710.3347525260658
95,710.3187108111459
96,710.3024190614723
97,710.2858898714509
98,710.2691368538527
99,710.2521745401048
100,710.2350182643937
101,710.2176840375233
102,710.2001884155833
103,710.1825483668952
104,710.1647811391663
105,710.146904128039
106,710.1289347486838
107,710.1108903133402
108,710.0927879185804
109,710.0746443456945
110,710.056475976311
111,710.0382987242481
112,710.0201279841942
113,710.0019785976848
114,709.9838648361714
115,709.9658003996122
116,709.9477984276506
117,709.9298715198855
118,709.9120317619087
119,709.8942907539541
120,709.8766596387098
121,709.8591491243384
122,709.8417694986473
123,709.8245306309503
124,709.8074419593538
125,709.7905124628368
126,709.7737506194281
127,709.7571643535207
128,709.7407609761912
129,709.7245471221601
130,709.7085286862448
131,709.692710761473
132,709.6770975808655
133,709.6616924653754
134,709.6464977812686
135,709.6315149110396
136,709.6167442426203
137,709.602185181741
138,709.5878361913093
139,709.573694859791
140,709.5597579985762
141,709.5460217666747
142,709.5324818198302
143,709.5191334802256
144,709.5059719223657
145,709.4929923704567
146,709.4801903025881
147,709.4675616571161
148,709.4551030367296
149,709.4428119058756
150,709.4306867777115
151,709.4187273873748
152,709.4069348486354
153,709.3953117906246
154,709.383862470591
155,709.3725928580707
156,709.3615106859147
157,709.3506254642783
158,709.3399484547944
159,709.3294926036306
160,709.3192724337297
161,709.3093038978741
162,709.2996041952437
163,709.290191555171
164,709.2810849929746
165,709.2723040437686
166,709.2638684806498
167,709.2557980234939
168,709.2481120440087
169,709.2408292723009
170,709.2339675102859
171,709.2275433573399
172,709.2215719531513
173,709.2160667418382
174,709.2110392604624
175,709.2064989545738
176,709.2024530235938
177,709.1989062994702
178,709.1958611625543
179,709.1933174985849
180,709.1912726996894
181,709.1897217103002
182,709.1886571162095
183,709.1880692722995
184,709.1879464621977
185,709.1882750813841
186,709.1890398343673
187,709.190223936706
188,709.1918093138416
189,709.1937767905251
190,709.1961062662115
191,709.1987768725334
192,709.2017671092275
193,709.2050549557576
194,709.2086179577592
195,709.212433289557
196,709.2164777955104
197,709.2207280136176
198,709.2251601848528
199,709.2297502512126
200,709.2344738446992
201,709.2393062692344
202,709.2442224784347
203,709.2491970538256
204,709.2542041892449
205,709.2592176872726
206,709.264210972765
207,709.2691571273555
208,709.2740289472054
209,709.2787990246666
210,709.2834398532837
211,709.2879239549718
212,709.2922240281277
213,709.2963131156139
214,709.3001647918069
215,709.3037533680553
216,709.307054115792
217,709.3100435060657
218,709.3126994633401
219,709.3150016299488
220,709.3169316357026
221,709.3184733655805
222,709.3196132181333
223,709.320340348465
224,709.3206468917765
225,709.3205281654748
226,709.3199828488401
227,709.3190131388842
228,709.3176248798536
229,709.3158276628963
230,709.3136348924698
231,709.3110638170172
232,709.3081355224604
233,709.3048748874943
234,709.3013104995857
235,709.2974745305685
236,709.2934025712599
237,709.2891334259679
238,709.2847088699841
239,709.2801733753903
240,709.2755738117585
241,709.2709591281819
242,709.2663800216927
243,709.2618885950232
244,709.2575380045898
245,709.2533820984265
246,709.2494750440812
247,709.2458709481152
248,709.2426234710986
249,709.2397854438857
250,709.2374084916165
251,709.2355426710817
252,709.2342361252532
253,709.2335347566466
254,709.233481919635
255,709.2341181315307
256,709.2354808030499
257,709.2376039897756
258,709.2405181666558
259,709.2442500274905
260,709.2488223114897
261,709.2542536597397
262,709.2605585054757
263,709.2677470025244
264,709.2758249954563
265,709.28479403303
266,709.2946514244009
267,709.3053903362983
268,709.3169999289024
269,709.3294655276572
270,709.3427688272405
271,709.3568881226989
272,709.3717985620082
273,709.3874724144518
274,709.4038793501101
275,709.4209867266335
276,709.4387598793546
277,709.4571624094206
278,709.4761564629783
279,709.49570299378
280,709.5157620023656
281,709.5362927468964
282,709.5572539231467
283,709.5786038134672
284,709.6003004060076
285,709.6223014857408
286,709.6445646981593
287,709.6670475857303
288,709.6897075969546
289,709.7125020683554
290,709.7353881808563
291,709.7583228937367
292,709.7812628613369
293,709.8041643393148
294,709.8269830882971
295,709.8496742834386
296,709.8721924388725
297,709.8944913561296
298,709.9165241050586
299,709.938243044555
300,709.9595998885264
301,709.980545820071
302,710.0010316541835
303,710.0210080470058
304,710.0404257479616
305,710.0592358898274
306,710.0773903106852
307,710.0948419008732
308,710.1115449676133
309,710.1274556099617
310,710.1425320971687
311,710.1567352445917
312,710.1700287827122
313,710.1823797159424
314,710.1937586682911
315,710.2041402127345
316,710.2135031808087
317,710.2218309487885
318,710.2291116967162
319,710.2353386363401
320,710.2405102037434
321,710.2446302123473
322,710.2477079622417
323,710.2497583025578
324,710.2508016447567
325,710.2508639262055
326,710.2499765251758
327,710.2481761301477
328,710.2455045674237
329,710.2420085911322
330,710.2377396387466
331,710.2327535538143
332,710.2271102766211
333,710.2208735036481
334,710.2141103175769
335,710.206890790501
336,710.1992875635581
337,710.1913754065006
338,710.183230760797
339,710.1749312695968
340,710.1665552974056
341,710.1581814418573
342,710.1498880397291
343,710.1417526694028
344,710.13385165241
345,710.1262595574556
346,710.1190487110332
347,710.1122887190263
348,710.1060460034664
349,710.1003833583234
350,710.0953595281451
351,710.0910288134431
352,710.0874407065812
353,710.0846395616528
354,710.0826643019943
355,710.0815481698176
356,710.081318523299
357,710.0819966863204
358,710.0835978544557
359,710.0861310583363
360,710.0895991832231
361,710.0939990420056
362,710.0993214975595
363,710.1055516289464
364,710.1126689346088
365,710.1206475651759
366,710.1294565790887
367,710.1390602156399
368,710.1494181815528
369,710.1604859482954
370,710.1722150577614
371,710.1845534340562
372,710.19744569947
373,710.2108334936388
374,710.2246557960121
375,710.2388492523515
376,710.2533485059073
377,710.2680865336631
378,710.2829949880064
379,710.2980045442247
380,710.3130452539162
381,710.3280469037205
382,710.3429393782179
383,710.357653025777
384,710.3721190262944
385,710.3862697598162
386,710.4000391748823
387,710.4133631552467
388,710.4261798834762
389,710.4384301995788
390,710.4500579519356
391,710.4610103365685
392,710.4712382198103
393,710.4806964394397
394,710.4893440804715
395,710.4971447235407
396,710.5040666650846
397,710.5100831085653
398,710.515172325087
399,710.5193177808103
400,710.5225082280898
401,710.5247377572782
402,710.5260058066647
403,710.5263171291791
404,710.5256817162234
405,710.5241146809127
406,710.5216361046635
407,710.5182708521273
408,710.5140483598373
409,710.5090024037889
410,710.5031708509989
411,710.4965954000961
412,710.489321315907
413,710.4813971622714
414,710.4728745359139
415,710.4638078022762
416,710.454253831894
417,710.4442717333862
418,710.4339225770232
419,710.423269101693
420,710.4123753980219
421,710.401306561398
422,710.3901283108341
423,710.3789065727391
424,710.3677070318704
425,710.3565946544462
426,710.3456331909784
427,710.3348846694013
428,710.3244088918891
429,710.3142629500098
430,710.3045007720528
431,710.2951727144382
432,710.2863252068822
433,710.278000458375
434,710.2702362279863
435,710.2630656616512
436,710.2565171938475
437,710.2506145114932
438,710.2453765765595
439,710.2408177038213
440,710.2369476904095
441,710.2337719938439
442,710.2312919547745
443,710.229505059758
444,710.2284052382028
445,710.2279831864928
446,710.2282267116151
447,710.2291210864579
448,710.2306494093436
449,710.2327929615223
450,710.2355315584492
451,710.238843893193
452,710.2427078722474
453,710.2471009445744
454,710.2520004239786
455,710.2573838038008
456,710.2632290621625
457,710.2695149554918
458,710.2762212972932
459,710.2833292180085
460,710.2908214009432
461,710.2986822890715
462,710.3068982580049
463,710.3154577513791
464,710.324351376456
465,710.3335719595178
466,710.343114561614
467,710.3529764548147
468,710.3631570580372
469,710.3736578308072
470,710.3844821231646
471,710.3956349801474
472,710.4071229002176
473,710.4189535489537
474,710.4311354317875
475,710.443677531531
476,710.4565889174623
477,710.4698783330253
478,710.4835537692122
479,710.4976220308375
480,710.5120883032611
481,710.5269557274987
482,710.5422249917723
483,710.5578939473667
484,710.5739572564195
485,710.590406079147
486,710.6072278079314
487,710.624405855292
488,710.6419195016031
489,710.6597438064701
490,710.6778495854046
491,710.6962034514027
492,710.7147679194894
493,710.7335015711603
494,710.7523592747997
495,710.7712924575759
496,710.7902494242135
497,710.8091757184346
498,710.8280145232151
499,710.8467070956171
500,710.865193230868
501,710.8834117492227
502,710.9013009985673
503,710.9187993657579
504,710.9358457900516
505,710.9523802723221
506,710.9683443739605
507,710.9836816998217
508,710.9983383608
509,711.0122634137306
510,711.0254092786154
511,711.0377321344154
512,711.0491922941427
513,711.0597545583464
514,711.0693885447141
515,711.0780689911959
516,711.0857760305105
517,711.0924954344163
518,711.0982188264105
519,711.1029438617167
520,711.1066743736277
521,711.1094204850696
522,711.1111986832512
523,711.1120318538069
524,711.1119492697436
525,711.1109865302469
526,711.1091854448252
527,711.106593859161
528,711.1032654203149
529,711.0992592805528
530,711.0946397409391
531,711.0894758380158
532,711.0838408793518
533,711.0778119361195
534,711.0714693022807
535,711.0648959296337
536,711.0581768459443
537,711.0513985606607
538,711.0446484605671
539,711.0380141966638
540,711.0315830634686
541,711.0254413725642
542,711.0196738233053
543,711.0143628747745
544,711.0095881238403
545,711.0054256942611
546,711.0019476413414
547,710.9992213759683
548,710.9973091109478
549,710.9962673314835
550,710.9961462907536
551,710.9969895312497
552,710.9988334328851
553,711.0017067895544
554,711.0056304166869
555,711.0106167933491
556,711.0166697434819
557,711.0237841616917
558,711.0319457898285
559,711.041131051537
560,711.0513069525296
561,711.0624310537976
562,711.0744515233933
563,711.0873072705705
564,711.1009281646861
565,711.1152353404281
566,711.1301415902262
567,711.1455518435539
568,711.1613637309432
569,711.1774682284388
570,711.193750376927
571,711.2100900707934
572,711.2263629110586
573,711.2424411186687
574,711.2581945034225
575,711.273491482708
576,711.2882001419046
577,711.3021893259577
578,711.3153297501486
579,711.3274951171815
580,711.3385632267814
581,711.3484170633508
582,711.3569458476983
583,711.3640460403296
584,711.3696222852565
585,711.3735882843536
586,711.3758675936348
587,711.3763943348258
588,711.3751138175959
589,711.3719830688761
590,711.3669712657407
591,711.3600600680552
592,711.351243847344
593,711.3405298093917
594,711.327938009639
595,711.3135012619339
596,711.2972649422603
597,711.2792866897125
598,711.2596360075523
599,711.23839376793
600,711.2156516247071
601,711.1915113397527
602,711.1660840291962
603,711.1394893373551
604,711.1118545471501
605,711.0833136366149
606,711.0540062916023
607,711.0240768849842
608,710.9936734325382
609,710.9629465353393
610,710.932048317884
611,710.901131370333
612,710.8703477022458
613,710.839847714226
614,710.8097791932103
615,710.7802863367464
616,710.7515088114302
617,710.7235808505089
618,710.6966303953128
619,710.6707782845656
620,710.6461374949182
621,710.6228124357709
622,710.600898302198
623,710.5804804915058
624,710.5616340905925
625,710.5444234416171
626,710.5289017923752
627,710.5151110360877
628,710.5030815440347
629,710.4928320940031
630,710.484369897473
631,710.4776907279207
632,710.4727791507903
633,710.4696088527011
634,710.4681430642913
635,710.4683350686735
636,710.4701287861113
637,710.4734594249425
638,710.4782541883455
639,710.4844330257831
640,710.4919094170658
641,710.5005911768028
642,710.5103812679098
643,710.5211786143462
644,710.5328789045449
645,710.5453753778306
646,710.5585595870002
647,710.5723221316309
648,710.5865533583262
649,710.6011440252499
650,710.6159859287039
651,710.6309724894235
652,710.6459992960773
653,710.660964603584
654,710.6757697846754
655,710.6903197346796
656,710.7045232313639
657,710.7182932533806
658,710.731547261995
659,710.7442074510692
660,710.7562009698001
661,710.76746012175
662,710.7779225426854
663,710.7875313591657
664,710.7962353298767
665,710.8039889719355
666,710.8107526740544
667,710.8164927972317
668,710.821181761946
669,710.82479811952
670,710.8273266049148
671,710.8287581684929
672,710.8290899847541
673,710.8283254366465
674,710.8264740748215
675,710.8235515520038
676,710.819579533316
677,710.8145855839126
678,710.8086030353523
679,710.801670831322
680,710.7938333516607
681,710.7851402118621
682,710.7756460343038
683,710.7654101877481
684,710.7544964926459
685,710.7429728906359
686,710.7309110770575
687,710.7183860956588
688,710.7054758952149
689,710.6922608482772
690,710.6788232325753
691,710.6652466760604
692,710.6516155678889
693,710.6380144399888
694,710.6245273266135
695,710.6112371115482
696,710.5982248739824
697,710.5855692443455
698,710.5733457803724
699,710.5616263715123
700,710.5504786774903
701,710.5399656052679
702,710.5301448277829
703,710.5210683471224
704,710.5127821038283
705,710.5053256330057
706,710.4987317672341
707,710.4930263863546
708,710.4882282147443
709,710.4843486670054
710,710.4813917428346
711,710.4793539714722
712,710.4782244057903
713,710.4779846657291
714,710.47860903055
715,710.4800645794821
716,710.4823113806929
717,710.4853027287202
718,710.488985430197
719,710.4933001370177
720,710.4981817257008
721,710.5035597220934
722,710.509358771272
723,710.5154991523111
724,710.5218973360282
725,710.5284665813508
726,710.5351175634917
727,710.5417590252838
728,710.548298442252
729,710.5546426923687
730,710.5606987226165
731,710.5663742060037
732,710.5715781842848
733,710.5762216931863
734,710.5802183682431
735,710.5834850302974
736,710.5859422502597
737,710.5875148925971
738,710.588132635764
739,710.5877304655345
740,710.586249134881
741,710.5836355826923
742,710.5798433038434
743,710.5748326650357
744,710.5685711639053
745,710.56103363211
746,710.5522023854347
747,710.5420673248049
748,710.5306259915145
749,710.517883578739
750,710.5038529006256
751,710.4885543205804
752,710.4720156414821
753,710.4542719614681
754,710.4353654986844
755,710.4153453868031
756,710.3942674412489
757,710.3721938954193
758,710.3491931071518
759,710.3253392373134
760,710.3007119034028
761,710.2753958111584
762,710.2494803669812
763,710.2230592740456
764,710.1962301151905
765,710.1690939257671
766,710.1417547596765
767,710.1143192519935
768,710.0868961815253
769,710.0595960357678
770,710.0325305789879
771,710.0058124224564
772,709.9795545951946
773,709.9538701139799
774,709.9288715518688
775,709.9046706044679
776,709.8813776527659
777,709.8591013210322
778,709.8379480283436
779,709.8180215327188
780,709.7994224675334
781,709.7822478705945
782,709.7665907066124
783,709.7525393836474
784,709.7401772638824
785,709.7295821696415
786,709.7208258873769
787,709.7139736748748
788,709.7090837791816
789,709.7062069741235
790,709.7053861267882
791,709.706655802183
792,709.7100419145329
793,709.7155614325154
794,709.7232221444408
795,709.7330224880249
796,709.7449514477797
797,709.7589885212933
798,709.7751037544266
799,709.7932578451176
800,709.8134023157706
801,709.8354797542728
802,709.8594241227194
803,709.8851611309082
804,709.9126086693753
805,709.9416772951398
806,709.9722707627441
807,710.0042865933373
808,710.0376166749742
809,710.0721478876728
810,710.1077627468668
811,710.1443400586946
812,710.1817555803842
813,710.2198826792993
814,710.2585929851571
815,710.2977570310117
816,710.3372448793616
817,710.3769267302417
818,710.4166735086136
819,710.4563574285851
820,710.4958525318316
821,710.5350351976326
822,710.5737846229729
823,710.611983273073
824,710.6495173042953
825,710.6862769615184
826,710.7221569507525
827,710.757056785809
828,710.7908811062134
829,710.8235399629061
830,710.8549490687968
831,710.88503001263
832,710.9137104362278
833,710.9409241762613
834,710.9666113718625
835,710.990718538965
836,711.0131986119976
837,711.034010953868
838,711.0531213356504
839,711.070501887585
840,711.0861310230628
841,711.0999933374876
842,711.1120794838686
843,711.122386026169
844,711.1309152702092
845,711.1376750713766
846,711.1426786192447
847,711.1459442011644
848,711.1474949490163
849,711.1473585746827
850,711.1455671000645
851,711.1421565868824
852,711.1371668705218
853,711.1306413011714
854,711.1226264946285
855,711.1131720943908
856,711.102330546038
857,711.0901568844238
858,711.076708533658
859,711.0620451191886
860,711.0462282907396
861,711.0293215545813
862,711.0113901133394
863,710.9925007112281
864,710.972721482722
865,710.9521218037182
866,710.9307721459099
867,710.9087439364898
868,710.8861094257645
869,710.8629415648307
870,710.8393138946698
871,710.8153004471611
872,710.790975657428
873,710.7664142853603
874,710.7416913423295
875,710.716882017575
876,710.692061597813
877,710.6673053733125
878,710.642688524117
879,710.6182859815559
880,710.5941722625082
881,710.5704212763359
882,710.5471061063434
883,710.5242987691046
884,710.5020699565338
885,710.4804887672639
886,710.4596224348788
887,710.4395360600586
888,710.4202923521348
889,710.4019513840744
890,710.3845703638417
891,710.3682034237639
892,710.3529014275695
893,710.3387117927832
894,710.3256783251302
895,710.3138410617665
896,710.3032361210354
897,710.2938955575223
898,710.2858472222931
899,710.2791146292326
900,710.2737168292098
901,710.2696682944395
902,710.2669788160238
903,710.2656534180381
904,710.2656922913137
905,710.2670907493615
906,710.2698392083362
907,710.2739231931236
908,710.2793233725737
909,710.2860156279374
910,710.2939711587959
911,710.3031566297267
912,710.3135343589724
913,710.3250625481733
914,710.3376955503102
915,710.3513841717022
916,710.3660760034841
