frame_number,force
0,832.0979600000229
1,831.9374645799028
2,831.7875299648172
3,831.6574712248847
4,831.5542814320235
5,831.4818728870735
6,831.440735491109
7,831.4280460429101
8,831.4381946622965
9,831.4636306143901
10,831.4958768228282
11,831.526542641044
12,831.5481957820936
13,831.5550195458526
14,831.5432381583175
15,831.5113199347237
16,831.4599781333703
17,831.3919947384171
18,831.3118902471974
19,831.2254573685022
20,831.1391817562132
21,831.0595894199926
22,830.9925763960043
23,830.9427870351996
24,830.9131178677338
25,830.9044293255419
26,830.9155293015168
27,830.9434424418572
28,830.9839127378369
29,831.0320327061388
30,831.0828750498426
31,831.132029070037
32,831.1759939298421
33,831.2124193247321
34,831.2401940331625
35,831.2593804111891
36,831.2710042618531
37,831.2767374596318
38,831.2785347287206
39,831.2782896556997
40,831.2775601018144
41,831.2773885750347
42,831.2782158708882
43,831.2798666065364
44,831.2815831311995
45,831.2820936845624
46,831.2797047277696
47,831.272404473793
48,831.2579700276938
49,831.2340880231352
50,831.1985095978015
51,831.1492504149043
52,831.0848284241526
53,831.0045258166267
54,830.908658774099
55,830.798817679888
56,830.6780083430149
57,830.5506154094229
58,830.422144349714
59,830.2987639808446
60,830.1867283588542
61,830.0917741604934
62,830.0185685974119
63,829.9702490244845
64,829.9480724181191
65,829.9511875002482
66,829.9765499174185
67,830.0190155990385
68,830.0716558141992
69,830.1263176123476
70,830.1744020910326
71,830.2077781199885
72,830.2197175000975
73,830.2057301241969
74,830.1641835875935
75,830.0966073187523
76,830.0076130919296
77,829.9044170955073
78,829.7960157031541
79,829.6921275929577
80,829.6020493772393
81,829.5335747298781
82,829.4921089374653
83,829.4800869695787
84,829.4967748041084
85,829.5384852496264
86,829.5991644348609
87,829.6712308109917
88,829.7465148374391
89,829.8171664626399
90,829.8764478265688
91,829.9193754496962
92,829.9431891155525
93,829.9476008792284
94,829.9347560106502
95,829.9088676985454
96,829.8755700618811
97,829.841111434384
98,829.8115301711157
99,829.7919280402992
100,829.7859236425387
101,829.7953461069818
102,829.8202008077895
103,829.8588902181258
104,829.9086176594508
105,829.9658691669711
106,830.0268753800591
107,830.0879911814533
108,830.1459706126376
109,830.1981380022731
110,830.2424622211463
111,830.2775433577281
112,830.3025267379512
113,830.3169631498181
114,830.3206388030362
115,830.3134127860468
116,830.2951145908347
117,830.2655477237741
118,830.2246140777345
119,830.1725359688178
120,830.110125913177
121,830.0390440608027
122,829.9619853745724
123,829.882745828519
124,829.8061293136188
125,829.7376766716884
126,829.683216751162
127,829.6482511092463
128,829.6372072492727
129,829.6526530184002
130,829.694640415155
131,829.7603811432085
132,829.8444040013766
133,829.9392237367916
134,830.0364196171697
135,830.1279237936717
136,830.2072733594326
137,830.2705929538668
138,830.3171402446206
139,830.3493396547824
140,830.3723227427942
141,830.3930725707842
142,830.4193254309105
143,830.4584045059615
144,830.5161467981962
145,830.5960572898048
146,830.6987969300216
147,830.8220724489272
148,830.9609322061532
149,831.1083956274883
150,831.2562870685398
151,831.3961321033833
152,831.5200005028322
153,831.6212199373106
154,831.694916624338
155,831.7383599532478
156,831.7511021886176
157,831.7349144156511
158,831.6935286343355
159,831.632210526219
160,831.5572107496489
161,831.4751615036562
162,831.3924838691985
163,831.3148550906299
164,831.246772100442
165,831.1912464333699
166,831.1496691680176
167,831.1218780307953
168,831.1064288476077
169,831.1010245059906
170,831.1030143742504
171,831.1098718465515
172,831.1195835566982
173,831.1309118695193
174,831.1435012832161
175,831.1578008559525
176,831.1747981160913
177,831.1956129879778
178,831.2210546822309
179,831.2512593914241
180,831.2854850416933
181,831.322069110529
182,831.3585072632147
183,831.3916081575485
184,831.4177056911747
185,831.4329347059494
186,831.4335834370722
187,831.4165254403733
188,831.3797111201311
189,831.3226668491203
190,831.246913346051
191,831.1561935057443
192,831.0564147406034
193,830.9552612214734
194,830.8614936579417
195,830.7840092575193
196,830.7307809658537
197,830.7078326513564
198,830.718421088704
199,830.7625684666142
200,830.8370202481755
201,830.9356165062385
202,831.0499919699699
203,831.1704777700279
204,831.2870673290327
205,831.3903255912786
206,831.4721532937405
207,831.5263501466262
208,831.5489482660939
209,831.5383179035836
210,831.4950808455956
211,831.4218870935839
212,831.3231071298078
213,831.2044756399216
214,831.07271015593
215,830.935121576542
216,830.7992223243307
217,830.6723200520362
218,830.5610746587579
219,830.4710104805341
220,830.406015949428
221,830.3679108237668
222,830.3561850403521
223,830.3679936364789
224,830.3984366424265
225,830.441088258566
226,830.4886944676348
227,830.5339447855368
228,830.5702310262196
229,830.5923156130019
230,830.5968382048992
231,830.5825992368016
232,830.5505840148106
233,830.5037340940842
234,830.4465178631038
235,830.3843792810678
236,830.3231479007743
237,830.2684815406976
238,830.2253930211277
239,830.1978903246879
240,830.1887365519957
241,830.1993141830368
242,830.2295700276259
243,830.2780332996349
244,830.3419282711913
245,830.4174165668088
246,830.499981628387
247,830.5849192365293
248,830.6678564644598
249,830.745208230757
250,830.8144916596734
251,830.874445549382
252,830.9249439550396
253,830.9667431817082
254,831.0011435152977
255,831.0296620453817
256,831.0537934861951
257,831.0748915335786
258,831.0941532037048
259,831.1126501620902
260,831.1313382853559
261,831.1510011709026
262,831.1721388942848
263,831.1948622240933
264,831.21885216598
265,831.2433958267845
266,831.2674580995448
267,831.2897365859383
268,831.3086765469641
269,831.3224659327165
270,831.3290609321499
271,831.3263004042869
272,831.3121543447616
273,831.2851165245931
274,831.2446929019089
275,831.1918698746267
276,831.1294077803632
277,831.0618279225857
278,830.9950381215724
279,830.9356342964038
280,830.8899946459252
281,830.8633390996422
282,830.8589478701286
283,830.8776985033437
284,830.9179931815186
285,830.9760497294317
286,831.0464649495614
287,831.122934283874
288,831.1990104080389
289,831.2687963333082
290,831.3274990027006
291,831.3718116048348
292,831.4001238041625
293,831.412564747489
294,831.4108816088914
295,831.3981686876583
296,831.3784807698247
297,831.3563697591428
298,831.336379291719
299,831.3225363370333
300,831.3178931239072
301,831.324182973054
302,831.3416491123817
303,831.369079929212
304,831.4040346155008
305,831.4431874628267
306,831.4826949396081
307,831.5185155111831
308,831.5466600237824
309,831.5633789134625
310,831.5652940738822
311,831.5494816718242
312,831.5135239631936
313,831.4555630212715
314,831.3743870452619
315,831.2695566161207
316,831.1415517477382
317,830.9919121030005
318,830.8233527540165
319,830.6398425890701
320,830.4466151504007
321,830.2500600981804
322,830.0574486956508
323,829.8764850363896
324,829.7147269871555
325,829.5789646986382
326,829.4746620561311
327,829.405546154575
328,829.3733844312206
329,829.3779537245865
330,829.4171962318637
331,829.4875524590706
332,829.5844382482385
333,829.7027968441272
334,829.8376297053428
335,829.984409085743
336,830.139300243275
337,830.2991573814243
338,830.461300215093
339,830.6231316193869
340,830.7817098360364
341,830.9334122691429
342,831.0738047824137
343,831.1977718997834
344,831.2998950279098
345,831.3750101052862
346,831.4188475374549
347,831.4286591400769
348,831.4037569675481
349,831.3459071942636
350,831.2595258454099
351,831.1516191949235
352,831.0314249898597
353,830.9097577700128
354,830.7981244140171
355,830.7077198610752
356,830.6484265631199
357,830.6279379307382
358,830.6511120298322
359,830.7196277642964
360,830.8319581958355
361,830.9836132720646
362,831.1675687167414
363,831.3748043689848
364,831.5949062780987
365,831.8167123535345
366,832.0289896409795
367,832.2211319987571
368,832.3838684885101
369,832.5099644292086
370,832.5948622698498
371,832.6371620021546
372,832.6388270896783
373,832.6050458159218
374,832.5437470945775
375,832.4648207271671
376,832.3791220237825
377,832.2973679707017
378,832.229053922601
379,832.181517874609
380,832.1592533745156
381,832.1635424032343
382,832.192456394611
383,832.2412428123731
384,832.3030625213463
385,832.3699813458247
386,832.4340737459264
387,832.4884790329558
388,832.5282545342051
389,832.5508941582068
390,832.5564346981932
391,832.5471534067603
392,832.5269430518044
393,832.5005065293334
394,832.4725303221411
395,832.4469763994173
396,832.4265850560473
397,832.4126250009332
398,832.4048815312142
399,832.4018453811556
400,832.4010480946721
401,832.3994819085209
402,832.394045432876
403,832.3819661936275
404,832.3611584465378
405,832.3304819494329
406,832.289882824469
407,832.2404150254687
408,832.1841460414205
409,832.1239466302068
410,832.0631702838472
411,832.0052509048224
412,831.9532743000237
413,831.9095949724207
414,831.875565259521
415,831.8514162395583
416,831.8362884467633
417,831.8283766811797
418,831.8251441337292
419,831.82357625959
420,831.8204653134846
421,831.812719602607
422,831.7976767503764
423,831.7733883582636
424,831.7388462812079
425,831.6941290755525
426,831.6404478071661
427,831.5800642550121
428,831.5160571019126
429,831.4519354621663
430,831.3911414479679
431,831.3365306178531
432,831.289947577588
433,831.2519981898968
434,831.2220604524172
435,831.1985094526786
436,831.1790927590018
437,831.1613810534191
438,831.1432155958074
439,831.1230710213321
440,831.1002550256386
441,831.0748863972516
442,831.0476359879898
443,831.0192725647528
444,830.990106215882
445,830.9594538200719
446,830.9252635022712
447,830.8840200815603
448,830.8309962739354
449,830.7608218992334
450,830.6682580700087
451,830.5490315100425
452,830.4006081567346
453,830.2228222588741
454,830.0182924947864
455,829.7925589251253
456,829.5538917692355
457,829.3127645488579
458,829.0810370307582
459,828.8709396047637
460,828.6939775710107
461,828.5598756339826
462,828.4756648390838
463,828.444990253347
464,828.4676995680555
465,828.5397613768829
466,828.6535438718277
467,828.7984430524723
468,828.9617923571592
469,829.129946317565
470,829.2894217440347
471,829.4279778443132
472,829.5355092747387
473,829.604635638495
474,829.6309219181953
475,829.6127534765254
476,829.5509825509997
477,829.4485105365197
478,829.3099411703306
479,829.1413544996598
480,828.9501671184693
481,828.7450035916646
482,828.5355073128732
483,828.3320437459456
484,828.1452807701612
485,827.9856616746885
486,827.8628047590572
487,827.7848681514488
488,827.7579223448327
489,827.785380673504
490,827.8675398090536
491,828.0012764075983
492,828.1799436813653
493,828.3935171974689
494,828.6290407126048
495,828.8714050480386
496,829.1044491623098
497,829.3123080369003
498,829.4808653168527
499,829.5991263171854
500,829.6603289538417
501,829.662653403715
502,829.6094483512238
503,829.5089386154248
504,829.3734218826048
505,829.2180172228854
506,829.0590906063508
507,828.912538260743
508,828.7921470491046
509,828.708255629883
510,828.6668936502625
511,828.6694852046418
512,828.7131008981005
513,828.7911661560279
514,828.8944953273128
515,829.0125081903343
516,829.134478783156
517,829.2506674981715
518,829.3532140037408
519,829.4367247588619
520,829.4985516058481
521,829.5387986347735
522,829.5601048285098
523,829.5672431537939
524,829.5665709557185
525,829.565370906938
526,829.5711345245132
527,829.5908525237658
528,829.6303754336643
529,829.6938864762956
530,829.7834982127275
531,829.8989707475233
532,830.0375650777123
533,830.1940736990706
534,830.361081180125
535,830.5294833724844
536,830.6892441496601
537,830.8303177331819
538,830.9436350691465
539,831.0220493739145
540,831.0611446392519
541,831.0598142791279
542,831.0205154812525
543,830.9491183411795
544,830.8543166058403
545,830.7466444543373
546,830.6372257074023
547,830.5364439257801
548,830.4527515694383
549,830.3918225279383
550,830.3561820665711
551,830.3453306684596
552,830.3562617446993
553,830.3842147570209
554,830.4235182978958
555,830.4684239457916
556,830.5138644870137
557,830.5560739368782
558,830.5930018571312
559,830.6244701740645
560,830.6520627061334
561,830.6787854291704
562,830.7085714465707
563,830.7457232967129
564,830.7943771880786
565,830.8580332206951
566,830.9391458266215
567,831.0387503535474
568,831.1561328617229
569,831.2886072025149
570,831.4314991723754
571,831.5784195258607
572,831.7218441081862
573,831.8539446309634
574,831.9675546839742
575,832.0571214445994
576,832.1194863339077
577,832.1543619650462
578,832.1644290283136
579,832.1550495874745
580,832.133655489946
581,832.1089083523826
582,832.0897474170583
583,832.0844494332803
584,832.0998142564918
585,832.1405556752061
586,832.2089272513304
587,832.304567692295
588,832.4245308241447
589,832.5634783831912
590,832.7140414451031
591,832.8673661524465
592,833.0138333697536
593,833.1438961793225
594,833.2489483746632
595,833.3221327611142
596,833.3589996574608
597,833.3579235398505
598,833.3202028655834
599,833.2498231079229
600,833.1529329730745
601,833.0371286299855
602,832.9106472983647
603,832.7815587477309
604,832.657034751231
605,832.5427764671954
606,832.4426732414331
607,832.3587378178524
608,832.291310764355
609,832.2394648139049
610,832.2014915653726
611,832.1753414275781
612,832.1589180718584
613,832.1501843167272
614,832.1470969278113
615,832.1474434304156
616,832.1486943712445
617,832.1479866117268
618,832.1422991608365
619,832.1287915717048
620,832.1051987878906
621,832.0701562619998
622,832.0233643547554
623,831.9655649941427
624,831.8983652925511
625,831.823977420448
626,831.7449455309493
627,831.6639095824333
628,831.5834260036418
629,831.5058421179333
630,831.4332172090666
631,831.3672874974935
632,831.3094628262666
633,831.2608220279159
634,831.2220700741573
635,831.1934477307229
636,831.1746234866021
637,831.1646167822382
638,831.161789185078
639,831.1639091934543
640,831.168271832959
641,831.1718544697577
642,831.1715108977353
643,831.1642204046118
644,831.1473922183785
645,831.1191838894708
646,831.0787598375694
647,831.0264210099472
648,830.9635726585765
649,830.8925399226848
650,830.8162713712479
651,830.7379847449838
652,830.6608107129132
653,830.5874836940989
654,830.5201197413885
655,830.4601159727982
656,830.408196958739
657,830.3646021935391
658,830.329353159257
659,830.3024933970131
660,830.2842039638215
661,830.2747594387906
662,830.2743600130602
663,830.2829126343662
664,830.2998347101651
665,830.3239332134806
666,830.3533831994401
667,830.3858003188445
668,830.4183797854159
669,830.4480678854258
670,830.4717424332755
671,830.4863942333282
672,830.4893091098388
673,830.478245646999
674,830.4515939814032
675,830.408497487535
676,830.3489289717525
677,830.273729355385
678,830.184624556504
679,830.0842256593203
680,829.9759952288886
681,829.8641498282292
682,829.7534801398444
683,829.6490962045923
684,829.5561222792544
685,829.479363236091
686,829.4229593673575
687,829.3900593752451
688,829.3825608621326
689,829.4009638581227
690,829.4443531305408
691,829.5104947657119
692,829.5960178936357
693,829.6966504879878
694,829.8074832555645
695,829.9232461784835
696,830.0385978810367
697,830.1484422342143
698,830.2482860394315
699,830.3346301476589
700,830.4053529468446
701,830.4600148738218
702,830.5000003852028
703,830.52843037931
704,830.5498214449967
705,830.569524610661
706,830.5930289343727
707,830.6252475105725
708,830.6699013078895
709,830.7290832734697
710,830.803044047804
711,830.8902063929967
712,830.9873832692936
713,831.0901455925813
714,831.1932764111967
715,831.2912614742714
716,831.3787816582683
717,831.4511743305487
718,831.5048236796823
719,831.5374382191588
720,831.5481847358994
721,831.5376708950547
722,831.5077928677939
723,831.4614750694917
724,831.4023273864582
725,831.3342508980882
726,831.2610452873508
727,831.1860907365135
728,831.1121682205918
729,831.0414407120121
730,830.9755645089056
731,830.9158596936004
732,830.8634541948744
733,830.8193308800527
734,830.7842508985485
735,830.758583207906
736,830.7421086378425
737,830.7338679074041
738,830.7321005978646
739,830.7343027201174
740,830.7374176404917
741,830.7381509364687
742,830.7333590877306
743,830.7204269068687
744,830.6975485309063
745,830.6638684658868
746,830.6194959691941
747,830.5654395209089
748,830.5035025373965
749,830.436151110499
750,830.366333009299
751,830.297214507418
752,830.2318241369908
753,830.1726479051314
754,830.1212717240138
755,830.0781682928414
756,830.0426728684628
757,830.0131278835931
758,829.9871443801367
759,829.9619328176221
760,829.9346681445943
761,829.9028535558011
762,829.8646431777493
763,829.8190925963016
764,829.7663246562938
765,829.7076096995164
766,829.6453558339857
767,829.5829924595554
768,829.5247254865764
769,829.4751610931337
770,829.4388336260371
771,829.4197078324252
772,829.4207344124561
773,829.4435204682189
774,829.4881454208113
775,829.5531244908267
776,829.6355095891794
777,829.7311192621473
778,829.8348863016997
779,829.9412904069502
780,830.0448120949775
781,830.1403270419419
782,830.2233793592428
783,830.2903252025341
784,830.3383900846576
785,830.3656997927106
786,830.3713262652246
787,830.3553598013577
788,830.3189916383228
789,830.264567816235
790,830.1955631190191
791,830.1164365375713
792,830.0323675958831
793,829.9489123107091
794,829.8716361267321
795,829.8057814775796
796,829.7560170688373
797,829.726287970819
798,829.7197432151055
799,829.7386884943766
800,829.784517457014
801,829.8576041590263
802,829.957164421077
803,830.0811055784684
804,830.2258911106039
805,830.3864556105078
806,830.5562149526334
807,830.7272208403547
808,830.8905015846259
809,831.0366104510175
810,831.1563727096803
811,831.2417821354862
812,831.286947305821
813,831.2889441857814
814,831.2484226649559
815,831.1698541695738
816,831.0613755247721
817,830.934243877598
818,830.8019510811644
819,830.6790706494297
820,830.5799473205705
821,830.5173763747264
822,830.501425166809
823,830.5385147737179
824,830.6308305136437
825,830.7760923759868
826,830.9676922037038
827,831.1951844769038
828,831.4451000105364
829,831.7020342175205
830,831.9499334733923
831,832.173467846122
832,832.3593575229328
833,832.4975216702182
834,832.5819281214857
835,832.6110365905473
836,832.5877663402835
837,832.5189916567917
838,832.4146510494315
839,832.2866102011131
840,832.1474297844544
841,832.0091746045713
842,831.882378710664
843,831.7752507000688
844,831.6931605896409
845,831.6384102761258
846,831.6102766224947
847,831.6053268249584
848,831.6180072566841
849,831.6414736880575
850,831.6685741461498
851,831.6928498033967
852,831.7094052841455
853,831.7155141659374
854,831.7108612686138
855,831.6973849034747
856,831.6787659805173
857,831.6596887924946
858,831.6450373603983
859,831.6391788442339
860,831.645434096016
861,831.6657712818662
862,831.7007054664604
863,831.7493603246389
864,831.8096546524412
865,831.8785990972924
866,831.9526865108105
867,832.0283199985549
868,832.1021922796589
869,832.1715526804401
870,832.2343550306256
871,832.2893206751359
872,832.3359568727266
873,832.3745586012933
874,832.4062068555625
875,832.4327586763071
876,832.4568042748427
877,832.4815580764478
878,832.5106661844733
879,832.5479485420607
880,832.5971287383018
881,832.6616139059769
882,832.7443603724953
883,832.8478077100426
884,832.973813468101
885,833.1235070151562
886,833.29702081626
887,833.4931339711633
888,833.7089298391154
889,833.9395882373766
890,834.1784031631736
891,834.4170679750109
892,834.6462258525619
893,834.8562469219441
894,835.0381522055266
895,835.1845543876531
896,835.2904504614786
897,835.3537190045296
898,835.3752544045054
899,835.358774675989
900,835.3104116654331
901,835.2382000403711
902,835.151538204313
903,835.0606398712011
904,834.9759562463069
905,834.9075306035735
906,834.8642562521553
907,834.8530546364674
908,834.87805613037
909,834.9399138385646
910,835.0353895769612
911,835.1573272548949
912,835.2950812699189
913,835.4354013303607
914,835.5637007865491
915,835.6655665795568
916,835.7283173734711
