frame_number,force
0,609.0799000000151
1,609.2344638707187
2,609.3940687659497
3,609.5628656271224
4,609.7433074559709
5,609.9355186202525
6,610.1369385875118
7,610.3423151967112
8,610.5440777112111
9,610.7330570685567
10,610.8994553634061
11,611.0339277621439
12,611.1286416103125
13,611.1782019482437
14,611.1803546881641
15,611.1363908703927
16,611.0511901628267
17,610.9328763136444
18,610.7921133171527
19,610.6411285741308
20,610.4925823222316
21,610.3584024838658
22,610.2486899335156
23,610.1707972058047
24,610.1286916387771
25,610.1227011452811
26,610.1496884319185
27,610.2036265858243
28,610.2764907172315
29,610.3593480483695
30,610.4435057712268
31,610.5215549358469
32,610.588150457067
33,610.6404128683795
34,610.6779189616104
35,610.7023355543881
36,610.7168150489847
37,610.7253012418485
38,610.7318861541042
39,610.7403137170925
40,610.7536610647323
41,610.7741773770953
42,610.8032407273079
43,610.8413905674695
44,610.8883977513088
45,610.9433568650933
46,611.0048209090855
47,611.071007448586
48,611.1400657466813
49,611.2103371617276
50,611.2805216649426
51,611.3497036623313
52,611.4172566360664
53,611.4826866811841
54,611.545476479247
55,611.6049804322196
56,611.6604147176394
57,611.7109674908934
58,611.7560112307943
59,611.7953490830466
60,611.8294040495133
61,611.8592796474222
62,611.8866644008411
63,611.9135882417739
64,611.9420593215771
65,611.9736342061592
66,612.0090086545064
67,612.0477345609653
68,612.088145071354
69,612.1275090189862
70,612.162371662808
71,612.1890064227948
72,612.2039069724619
73,612.204266026807
74,612.1883949011343
75,612.1560380878299
76,612.1085414246834
77,612.0488435889098
78,611.9812720568965
79,611.911135847347
80,611.8441320831154
81,611.785631074625
82,611.7399555594131
83,611.7097853821814
84,611.6957820931825
85,611.696463659457
86,611.7083107729537
87,611.7260745937969
88,611.743266694374
89,611.7528135153086
90,611.7478327371165
91,611.7224515233381
92,611.6725629977124
93,611.5964179191253
94,611.4949661821478
95,611.3718904817848
96,611.2333111554984
97,611.0871855668297
98,610.9424721964467
99,610.8081693842532
100,610.6923615618249
101,610.6014059987896
102,610.539366475024
103,610.5077490325097
104,610.5055388188326
105,610.529500111295
106,610.574685139577
107,610.6350845480912
108,610.704335120329
109,610.7763870663962
110,610.8460369541668
111,610.9092573151041
112,610.963290768118
113,611.0065149100064
114,611.0381245517681
115,611.0577207096385
116,611.0649264684655
117,611.0591464896783
118,611.0395422475509
119,611.0052238184369
120,610.9555892000493
121,610.8907022641862
122,610.8116028638677
123,610.7204752726497
124,610.6206451111635
125,610.516418837286
126,610.4128090343152
127,610.3151874696431
128,610.2288858836757
129,610.1587540915468
130,610.108703005023
131,610.081290270233
132,610.0774194803976
133,610.0962058844209
134,610.1350247348353
135,610.189730287343
136,610.2550249784649
137,610.3249531923763
138,610.3934752671931
139,610.455052922503
140,610.5051705338396
141,610.5407365855905
142,610.5603396591737
143,610.564353490412
144,610.5548948460741
145,610.5356434909816
146,610.5115329658104
147,610.4883146525182
148,610.4720035811819
149,610.4682448050334
150,610.4816745883816
151,610.5153620603223
152,610.5704028739854
153,610.645716348292
154,610.7380811532091
155,610.8424274089051
156,610.9523776660033
157,611.0609873739375
158,611.1615811317146
159,611.2485426224595
160,611.3179197839859
161,611.3677459145738
162,611.3980308954175
163,611.410438264482
164,611.4077318758098
165,611.3931317142653
166,611.3697346235896
167,611.3401213362728
168,611.3062055906822
169,611.2693197920888
170,611.2304915658287
171,611.190831984834
172,611.1519163848313
173,611.1160140506547
174,611.0860496704394
175,611.0652635039276
176,611.0566442447716
177,611.0622888590184
178,611.0828619822963
179,611.1172826472438
180,611.1626922269628
181,611.2146948636541
182,611.2678228113275
183,611.3161526565116
184,611.3539791559824
185,611.3764491593216
186,611.3800713224163
187,611.363040169453
188,611.325340319791
189,611.2686314348277
190,611.195954212364
191,611.1113262767918
192,611.0193014124561
193,610.9245515306618
194,610.8315097697075
195,610.744092739428
196,610.6655063195695
197,610.5981346424289
198,610.5435082434167
199,610.5023364496727
200,610.4745758272658
201,610.4595059574852
202,610.4558039110444
203,610.4616400978862
204,610.4748367905288
205,610.4931126977505
206,610.5143836965616
207,610.5370387545357
208,610.5601054301983
209,610.5832663176454
210,610.6067468447644
211,610.6311247597499
212,610.6571086735278
213,610.685322156593
214,610.7161272224257
215,610.7495174395783
216,610.7850940281079
217,610.8221162628267
218,610.8596080244636
219,610.8965056067092
220,610.9318298753524
221,610.9648499644248
222,610.9951931677716
223,611.0228684498602
224,611.0482041605152
225,611.07172720217
226,611.094015218773
227,611.1155431641728
228,611.1365350790328
229,611.1568277152703
230,611.1757562597932
231,611.1920831932983
232,611.2040028994699
233,611.2092532681102
234,611.205340530772
235,611.1898434387607
236,611.1607335865083
237,611.1166500384272
238,611.0570952993762
239,610.9825561771183
240,610.8945765047079
241,610.7958082526061
242,610.690045011328
243,610.5822093709882
244,610.4782407174222
245,610.3848261631973
246,610.3089404689024
247,610.2572096312587
248,610.2351749795129
249,610.2465844909784
250,610.2928504995988
251,610.3727806939733
252,610.4826262246949
253,610.6164246042079
254,610.7665720978484
255,610.9245467317779
256,611.0817039130919
257,611.2300660127661
258,611.3630247272949
259,611.475881637075
260,611.5661726689794
261,611.6337462245087
262,611.6805859063818
263,611.7103980196654
264,611.7280286488245
265,611.7388153986043
266,611.7479862798875
267,611.7601890604443
268,611.7791894751883
269,611.8077344413365
270,611.8475438631199
271,611.8993782009406
272,611.9631339816355
273,612.0379410134733
274,612.1222612934706
275,612.2140072531503
276,612.3106942721248
277,612.4096186276486
278,612.5080247777878
279,612.6032170812368
280,612.6925873649928
281,612.7735621972997
282,612.8435089640382
283,612.8996656630258
284,612.9391672463133
285,612.9592266361208
286,612.9574885074011
287,612.9325143090161
288,612.8842981533271
289,612.8146808024876
290,612.7275386757614
291,612.6286746813436
292,612.5254082049988
293,612.4259253929001
294,612.3384890458366
295,612.2706157633311
296,612.2283133999828
297,612.2154506425107
298,612.2333194545894
299,612.2804505054196
300,612.3527316293299
301,612.4438416438119
302,612.5459540404321
303,612.6506144630713
304,612.7496698050603
305,612.8361225912626
306,612.9047973429468
307,612.9527347072901
308,612.9792666750466
309,612.9857658339619
310,612.975109591526
311,612.9509590875366
312,612.9170030257754
313,612.8763296784908
314,612.8310477995182
315,612.7821877819163
316,612.729820086679
317,612.6732811890403
318,612.6114169377015
319,612.5428098645175
320,612.4660034632966
321,612.3797464751891
322,612.283260420146
323,612.1765076415192
324,612.0604216578528
325,611.9370564254349
326,611.8096088714616
327,611.6822683895823
328,611.5598566292879
329,611.4472566282067
330,611.3486966816617
331,611.2670229543284
332,611.2031217380172
333,611.1556213927506
334,611.120937054558
335,611.0936511749437
336,611.0671692330108
337,611.0345509388106
338,610.989386897685
339,610.9265800744797
340,610.8429174161112
341,610.7373739014434
342,610.6111508381629
343,610.4674866864887
344,610.3112862564826
345,610.1486059857937
346,609.9860283100082
347,609.8299682368446
348,609.685977212529
349,609.5581292335856
350,609.4485791985126
351,609.3573711307763
352,609.2825456388181
353,609.220550946435
354,609.1669048196671
355,609.1170032218805
356,609.0669435353849
357,609.0142288220468
358,608.9582393531994
359,608.9003973428281
360,608.844007476122
361,608.7938137859037
362,608.7553515139673
363,608.7341821652859
364,608.7350939791544
365,608.7613497822626
366,608.8140764089017
367,608.8919021358405
368,608.990939550397
369,609.1051613514131
370,609.2271267300557
371,609.348923194031
372,609.4631440358562
373,609.5637427828165
374,609.6466623750797
375,609.7101864346987
376,609.7549890508901
377,609.7838832995241
378,609.8013047170967
379,609.8126115570053
380,609.823318325621
381,609.838384754253
382,609.861657291231
383,609.8955177485665
384,609.9407513459978
385,609.9966126779015
386,610.0610447675472
387,610.1309971268211
388,610.2027932914402
389,610.2725077335828
390,610.3363195582627
391,610.3908154676423
392,610.4332189744583
393,610.4615319141468
394,610.4745931062868
395,610.472082820292
396,610.4545145738009
397,610.423242709323
398,610.3804776104538
399,610.3292636685927
400,610.2733630934223
401,610.2170067360414
402,610.1645085689904
403,610.1197798347115
404,610.0858176072497
405,610.0642763566016
406,610.0552433583179
407,610.0573076224554
408,610.0679348005599
409,610.0840675120429
410,610.1028089502342
411,610.1220430509765
412,610.1408795411467
413,610.1598557337766
414,610.1808712850012
415,610.2068801213348
416,610.2414034957093
417,610.2879492828318
418,610.3494321102766
419,610.4276889353382
420,610.5231654509672
421,610.6348125687446
422,610.7601914733318
423,610.8957415446757
424,611.0371231034659
425,611.1795366089938
426,611.3179641383538
427,611.447349919662
428,611.5627795818648
429,611.6597118980511
430,611.734286607602
431,611.783701722854
432,611.8066216066451
433,611.8035397399602
434,611.7769964155041
435,611.7315653764675
436,611.6735742581116
437,611.6105853818723
438,611.5507073308544
439,611.5018243676594
440,611.4708308736833
441,611.462955473928
442,611.4812569159034
443,611.5263626935518
444,611.5964914868508
445,611.6877512722223
446,611.7946528610698
447,611.9107456702968
448,612.0292782674792
449,612.1438049990505
450,612.248687203218
451,612.3394577887206
452,612.4130288668546
453,612.4677354664015
454,612.5032307956307
455,612.5202696128808
456,612.5204218817153
457,612.5057499319154
458,612.4784744233996
459,612.44065976233
460,612.3939626935578
461,612.3394922598613
462,612.2778191371567
463,612.2091541160183
464,612.133686274572
465,612.0520192376952
466,611.965583471985
467,611.8768801450644
468,611.7894574205885
469,611.7076138834826
470,611.6359169478905
471,611.5786720581071
472,611.5394656813893
473,611.520851526772
474,611.5241913451506
475,611.5496237296512
476,611.5961212268955
477,611.6616030390837
478,611.7430895205132
479,611.8368987706981
480,611.9388787737054
481,612.0446509054232
482,612.1498413492062
483,612.2502988524077
484,612.3423072041247
485,612.4227779471221
486,612.4893754828425
487,612.5405214374655
488,612.5752640432224
489,612.5930624635747
490,612.5935818794143
491,612.5765859625493
492,612.541953947294
493,612.489782717003
494,612.4205007334837
495,612.3349324137538
496,612.2342949376659
497,612.1201519120108
498,611.9943573196998
499,611.8590004655206
500,611.7163430679719
501,611.5687449425628
502,611.4185935630712
503,611.2682673427425
504,611.1201634086191
505,610.9768008957733
506,610.8409718471323
507,610.7158720481891
508,610.6051280184085
509,610.5126575234142
510,610.4423526559877
511,610.3976325476964
512,610.3809523957846
513,610.3933652342213
514,610.4342138368721
515,610.5009960300664
516,610.589420668406
517,610.6936634276869
518,610.8068230348989
519,610.9215468604351
520,611.0307447034645
521,611.1282702961367
522,611.2094473599266
523,611.2713551231965
524,611.3128509789697
525,611.3343710791527
526,611.3375912746835
527,611.3250388241302
528,611.2997274508709
529,611.2648682874815
530,611.2236938704892
531,611.179400559482
532,611.1351615233162
533,611.0941230991359
534,611.0593034132692
535,611.0333567863297
536,611.0182285421085
537,611.0147832892835
538,611.0225199760151
539,611.0394700442092
540,611.0623224605806
541,611.0867586573096
542,611.1079273873501
543,611.1209552664651
544,611.1213922245005
545,611.1055387307493
546,611.0706651896243
547,611.015169570715
548,610.9387079615632
549,610.842293242592
550,610.7283273389563
551,610.6005367068477
552,610.4638071389278
553,610.3239308354924
554,610.1872748375725
555,610.0603753349842
556,609.9494781421217
557,609.8600764177921
558,609.7965117474293
559,609.7616784027315
560,609.7568198392879
561,609.7813823150185
562,609.832919201136
563,609.907091345764
564,609.9978350511428
565,610.0977503453578
566,610.1987134693017
567,610.2926641608612
568,610.3724734404004
569,610.4327611415725
570,610.4705107359706
571,610.4853452202858
572,610.4793992261675
573,610.456828282316
574,610.4230839851164
575,610.3841164792125
576,610.3456484127993
577,610.3126222180366
578,610.2888717315304
579,610.277020337106
580,610.278569804557
581,610.2941184711314
582,610.3236343107853
583,610.3667116772689
584,610.4227593579645
585,610.4910935131378
586,610.5709330040224
587,610.6613096583766
588,610.7609120388469
589,610.867890993677
590,610.9796793397652
591,611.0929018934861
592,611.2034480151684
593,611.3067417673803
594,611.3981960822177
595,611.4737939915153
596,611.5307025036323
597,611.5677990483614
598,611.5859943756344
599,611.5882728096568
600,611.5794224766432
601,611.565479504184
602,611.5529594646281
603,611.5479951197323
604,611.555532254683
605,611.5787348229097
606,611.6186975618398
607,611.674471708514
608,611.7433275439867
609,611.8211488025844
610,611.902876464125
611,611.9829607682557
612,612.0558115594374
613,612.1162449197823
614,612.1599083400264
615,612.183642669246
616,612.1857308889461
617,612.166001118993
618,612.1257805236651
619,612.0677212158121
620,611.9955346948265
621,611.9136779171063
622,611.8270296618937
623,611.7405831768083
624,611.6591683481537
625,611.5872073143821
626,611.5284979635438
627,611.4860097882228
628,611.4616763808518
629,611.456188865976
630,611.4688275296746
631,611.497393780198
632,611.5383071474528
633,611.5869092690206
634,611.6379705845454
635,611.6863392167668
636,611.727632446814
637,611.7588664158179
638,611.7789359271433
639,611.7888692442903
640,611.79179107028
641,611.7925508245349
642,611.7970256778635
643,611.8111764964843
644,611.8399940743701
645,611.8865059029016
646,611.9510181485424
647,612.0307414089496
648,612.1198859577945
649,612.2102206752763
650,612.2920003262657
651,612.3551092357601
652,612.3902522505903
653,612.390032529888
654,612.3497784337673
655,612.2680184021001
656,612.1465583943026
657,611.9901905116343
658,611.8061358415524
659,611.6033660966679
660,611.3919322638719
661,611.1823595860823
662,610.9850841872689
663,610.8098614191197
664,610.665103888152
665,610.5571857091188
666,610.4898178816039
667,610.4636206834933
668,610.4759970747704
669,610.5213580412826
670,610.5916781168713
671,610.6772966609285
672,610.767854808941
673,610.8532600041126
674,610.9245759589959
675,610.9747464841796
676,610.9990888347647
677,610.9955308831981
678,610.9646013029402
679,610.9092039505763
680,610.8342177580491
681,610.7459726825211
682,610.6516666738413
683,610.558792985597
684,610.474624224137
685,610.4057609329143
686,610.3577304273524
687,610.3346334967474
688,610.3388703609788
689,610.3710071791152
690,610.4298487827181
691,610.51274838161
692,610.6161136695581
693,610.7359952342648
694,610.8686163733744
695,611.0107368814624
696,611.1597989747835
697,611.3138438283926
698,611.4712198617583
699,611.630151061247
700,611.7882855333946
701,611.9423686895406
702,612.088162177003
703,612.2206640945315
704,612.3346003980781
705,612.4250800059452
706,612.4882627737944
707,612.5218961239175
708,612.5256283557526
709,612.5010750665832
710,612.4516622017255
711,612.3822824791694
712,612.2988040622619
713,612.2074855959343
714,612.1143718110661
715,612.0247466317876
716,611.9427071215432
717,611.8709070234687
718,611.8105000652538
719,611.7612770148321
720,611.7219453363193
721,611.6904738929344
722,611.6644316203636
723,611.6412766417794
724,611.6185793053952
725,611.5941775257514
726,611.5662684196539
727,611.5334453088576
728,611.4947002692492
729,611.4494251694864
730,611.397441983626
731,611.3390685742144
732,611.2751960106432
733,611.2073400834817
734,611.1376377168034
735,611.0687760053742
736,611.0038509277762
737,610.9461503001639
738,610.8988570621455
739,610.8646903189299
740,610.8455342474462
741,610.8421268290542
742,610.8538836442824
743,610.8789222604235
744,610.9143268435779
745,610.9566400134703
746,611.002495191945
747,611.0492372588428
748,611.0953593972883
749,611.1406303272196
750,611.1858843320019
751,611.2325512181927
752,611.2820721792206
753,611.3353679605231
754,611.3925007408433
755,611.4526016465668
756,611.5140394788334
757,611.574727817785
758,611.6324460796086
759,611.6850874425078
760,611.7308110105545
761,611.76812328003
762,611.7959190481338
763,611.8134874711067
764,611.8204722004374
765,611.8167868629107
766,611.8025145460036
767,611.7778333081108
768,611.7429968254829
769,611.6983707621075
770,611.644499397946
771,611.582167525639
772,611.5124332536566
773,611.4366284144851
774,611.3563415392663
775,611.2734077526227
776,611.1899277323636
777,611.1083183537806
778,611.0313585521529
779,610.9621527013664
780,610.9039294110703
781,610.859653297761
782,610.83152643722
783,610.8205272049291
784,610.8261269582238
785,610.8462549530198
786,610.877506797899
787,610.915548844004
788,610.9556549364344
789,610.9933035804555
790,611.0247547667334
791,611.047520364508
792,611.06064864222
793,611.0647718801447
794,611.0619189012539
795,611.0551514470563
796,611.0481101739375
797,611.0445424846133
798,611.0478569725863
799,611.0607375819668
800,611.0848559605752
801,611.1207194306287
802,611.1676674375165
803,611.2239947039969
804,611.2871611883786
805,611.3540535848169
806,611.4212761420724
807,611.4854560145046
808,611.5435459893619
809,611.593099763498
810,611.6324893497168
811,611.6610345703559
812,611.679022595693
813,611.6876113094777
814,611.688629057426
815,611.6842979798524
816,611.6769147766412
817,611.6685216769649
818,611.6605966400874
819,611.6537909811432
820,611.6477429010367
821,611.6409925404042
822,611.6310221326918
823,611.614446411327
824,611.5873705792789
825,611.5459031148026
826,611.4867682606222
827,611.4079270925313
828,611.309097355732
829,611.1920710156284
830,611.0607701075991
831,610.9210391325037
832,610.780217510993
833,610.6465560107998
834,610.5285453395311
835,610.434225240279
836,610.3705375478572
837,610.342770551908
838,610.3541227002877
839,610.4054078889242
840,610.4949324204963
841,610.6185749578485
842,610.7700771514329
843,610.9415068641543
844,611.1238118064268
845,611.3073684881512
846,611.4824652258942
847,611.6397237370226
848,611.7705182723573
849,611.8674535584987
850,611.9249108459579
851,611.939600850797
852,611.9110138727548
853,611.8416523002945
854,611.7369692599744
855,611.6049987274504
856,611.4557133392676
857,611.3001690958782
858,611.1495084279469
859,611.0139178317046
860,610.9016667877889
861,610.8183663864752
862,610.7665663331304
863,610.7457578106144
864,610.7527725150901
865,610.78248448208
866,610.8286626490168
867,610.8848100678975
868,610.9448586977443
869,611.0036474398817
870,611.0571695029773
871,611.1026160250282
872,611.1382668742045
873,611.1632920267245
874,611.1775261473559
875,611.181267714431
876,611.1751413507159
877,611.1600459619486
878,611.1371844266463
879,611.1081432772414
880,611.0749800909289
881,611.040277480775
882,611.0071207382302
883,610.97895582521
884,610.9593034064204
885,610.9513484747738
886,610.9574794512753
887,610.9788897631869
888,611.015355331217
889,611.0652566274358
890,611.1258421691665
891,611.1936641461047
892,611.2650797035855
893,611.3367059361594
894,611.4057382308421
895,611.4700884574145
896,611.5283615688076
897,611.5797408839994
898,611.6238690194068
899,611.6607892916396
900,611.6909671667462
901,611.7153633856168
902,611.7354975276263
903,611.7534350161031
904,611.7716506206156
905,611.7927552985303
906,611.8191116185594
907,611.8524002586595
908,611.8932238573477
909,611.940832578516
910,611.9930332458313
911,612.0463191485863
912,612.0962340290291
913,612.1379415920727
914,612.1669063175108
915,612.1795415373704
916,612.1736906475385
917,612.1488700863426
