frame_number,force
0,860.5724500093738
1,860.4887923887891
2,860.4054686343437
3,860.3228102723227
4,860.2411441821242
5,860.1607903535123
6,860.0820597370395
7,860.0052522129638
8,859.9306546999061
9,859.8585394205073
10,859.7891623376681
11,859.7227617711907
12,859.6595572005456
13,859.5997482557314
14,859.5435138958276
15,859.4910117739619
16,859.4423777869499
17,859.3977258066752
18,859.3571475883427
19,859.3207128489571
20,859.2884695084168
21,859.260444085429
22,859.236642240814
23,859.2170494614975
24,859.2016318791322
25,859.1903372169668
26,859.1830958567216
27,859.1798220141795
28,859.180415008865
29,859.1847606103886
30,859.1927324422153
31,859.2041934229089
32,859.2189972252241
33,859.236989734388
34,859.2580104881549
35,859.2818940826435
36,859.3084715298351
37,859.3375715549079
38,859.3690218237563
39,859.4026500927978
40,859.4382852748394
41,859.4757584167372
42,859.5149035866114
43,859.5555586699321
44,859.5975660747825
45,859.6407733473022
46,859.6850336990881
47,859.7302064493297
48,859.7761573856684
49,859.8227590488567
50,859.8698909467253
51,859.9174397026864
52,859.9652991435811
53,860.0133703316558
54,860.0615615456987
55,860.1097882163605
56,860.1579728201829
57,860.2060447360225
58,860.2539400666209
59,860.3016014272995
60,860.348977703288
61,860.3960237769322
62,860.4427002256506
63,860.4889729908272
64,860.5348130170072
65,860.580195860469
66,860.6251012670715
67,860.66951272122
68,860.7134169701379
69,860.7568035295162
70,860.7996641775128
71,860.8419924441631
72,860.8837831030299
73,860.9250316716928
74,860.965733927386
75,861.0058854436063
76,861.0454811529062
77,861.0845149406888
78,861.1229792748134
79,861.1608648761666
80,861.1981604355544
81,861.2348523817316
82,861.2709247040527
83,861.3063588317185
84,861.3411335704136
85,861.3752250965342
86,861.4086070092376
87,861.4412504411315
88,861.4731242289473
89,861.5041951452276
90,861.5344281906187
91,861.5637869440061
92,861.5922339650162
93,861.6197312411005
94,861.6462406701417
95,861.6717245689812
96,861.696146197657
97,861.7194702882233
98,861.7416635665711
99,861.7626952565388
100,861.7825375577008
101,861.8011660904261
102,861.818560303021
103,861.8347038359093
104,861.8495848377402
105,861.8631962290001
106,861.8755359103534
107,861.8866069148576
108,861.8964175045038
109,861.9049812120751
110,861.9123168297697
111,861.9184483468063
112,861.9234048388039
113,861.927220311671
114,861.9299335021983
115,861.9315876369463
116,861.9322301506669
117,861.9319123657001
118,861.9306891347088
119,861.928618450618
120,861.9257610293062
121,861.9221798716777
122,861.9179398115001
123,861.9131070540672
124,861.9077487096603
125,861.9019323258686
126,861.8957254238004
127,861.8891950439702
128,861.8824073073938
129,861.8754269962062
130,861.8683171566423
131,861.8611387260569
132,861.8539501846188
133,861.8468072310915
134,861.8397624810417
135,861.832865185601
136,861.8261609697826
137,861.8196915907529
138,861.8134947174697
139,861.8076037333445
140,861.8020475634331
141,861.7968505273896
142,861.7920322189257
143,861.7876074117535
144,861.7835859912783
145,861.7799729110195
146,861.7767681730096
147,861.7739668321816
148,861.7715590256531
149,861.7695300283573
150,861.7678603364855
151,861.7665257800313
152,861.7654976655821
153,861.7647429502882
154,861.7642244477853
155,861.763901067149
156,861.7637280866211
157,861.7636574641358
158,861.7636381860801
159,861.7636166543957
160,861.7635371107019
161,861.763342095043
162,861.7629729362204
163,861.7623702700844
164,861.7614745813613
165,861.7602267637753
166,861.7585686928164
167,861.7564438055308
168,861.7537976817573
169,861.7505786210623
170,861.746738209266
171,861.7422318679777
172,861.7370193799682
173,861.7310653826306
174,861.7243398215858
175,861.7168183569466
176,861.7084827158332
177,861.6993209861186
178,861.689327847851
179,861.6785047402064
180,861.6668599630626
181,861.6544087131473
182,861.6411730549712
183,861.627181826523
184,861.6124704795268
185,861.5970808547565
186,861.5810608947556
187,861.5644642987131
188,861.5473501261608
189,861.5297823571249
190,861.5118294168361
191,861.4935636738389
192,861.4750609215653
193,861.4563998545957
194,861.4376615510678
195,861.418928971504
196,861.4002864816362
197,861.3818194031052
198,861.3636135922176
199,861.3457550441399
200,861.3283295181378
201,861.3114221783645
202,861.2951172440772
203,861.2794976430957
204,861.2646446628713
205,861.2506375945684
206,861.2375533667674
207,861.2254661664546
208,861.2144470456979
209,861.2045635128594
210,861.1958791074906
211,861.1884529583099
212,861.1823393239489
213,861.177587116876
214,861.1742394126935
215,861.172332949995
216,861.1718976293151
217,861.1729560221073
218,861.1755229013878
219,861.1796048051474
220,861.1851996430397
221,861.1922963565967
222,861.2008746426202
223,861.2109047480595
224,861.222347343035
225,861.2351534771454
226,861.2492646228403
227,861.2646128084826
228,861.281120842736
229,861.2987026307085
230,861.3172635806917
231,861.33670109882
232,861.3569051681004
233,861.3777590079424
234,861.3991398100252
235,861.4209195457416
236,861.4429658397892
237,861.4651429041601
238,861.4873125267942
239,861.5093351089458
240,861.5310707441527
241,861.552380329188
242,861.5731266940184
243,861.5931757349997
244,861.6123975345896
245,861.6306674515339
246,861.6478671664248
247,861.6638856677365
248,861.6786201632249
249,861.6919769018947
250,861.703871893117
251,861.7142315118222
252,861.7229929814976
253,861.7301047294231
254,861.7355266108852
255,861.7392300012139
256,861.7411977566054
257,861.7414240466478
258,861.7399140631928
259,861.7366836121629
260,861.7317585975122
261,861.7251744095751
262,861.7169752326507
263,861.7072132884605
264,861.6959480332084
265,861.6832453262098
266,861.6691765867796
267,861.6538179533751
268,861.6372494563345
269,861.6195542143195
270,861.6008176644015
271,861.5811268350374
272,861.5605696689232
273,861.5392343993932
274,861.517208980894
275,861.4945805719827
276,861.4714350684042
277,861.4478566838567
278,861.4239275767776
279,861.3997275225805
280,861.3753336319111
281,861.3508201162134
282,861.3262581017871
283,861.301715492362
284,861.2772568782906
285,861.252943488446
286,861.2288331793338
287,861.2049804546164
288,861.1814365068971
289,861.1582492726475
290,861.13546349128
291,861.1131207605109
292,861.0912595817227
293,861.0699153908847
294,861.0491205731087
295,861.0289044620075
296,861.0092933276852
297,860.9903103585
298,860.9719756416648
299,860.9543061468441
300,860.9373157158021
301,860.9210150602738
302,860.9054117696203
303,860.8905103292864
304,860.8763121506405
305,860.8628156125616
306,860.8500161149653
307,860.8379061442595
308,860.8264753509851
309,860.8157106409612
310,860.8055962822464
311,860.7961140299618
312,860.7872432695008
313,860.7789611769666
314,860.7712428946711
315,860.7640617191273
316,860.7573892989813
317,860.7511958407351
318,860.7454503209634
319,860.7401207046407
320,860.7351741695892
321,860.7305773368352
322,860.7262965063696
323,860.7222978978257
324,860.718547895545
325,860.7150132969475
326,860.7116615620785
327,860.7084610611844
328,860.705381316494
329,860.7023932341481
330,860.6994693222437
331,860.6965838909668
332,860.6937132307235
333,860.690835764272
334,860.6879321693947
335,860.6849854697939
336,860.6819810934387
337,860.67890689892
338,860.6757531708662
339,860.6725125850363
340,860.6691801427817
341,860.6657530737979
342,860.6622307062167
343,860.6586143047203
344,860.6549068801681
345,860.65111297682
346,860.6472384444714
347,860.643290202982
348,860.6392760066976
349,860.635204216328
350,860.631083585277
351,860.6269230658859
352,860.6227316390185
353,860.6185181685769
354,860.6142912810819
355,860.6100592691897
356,860.6058300171932
357,860.6016109467597
358,860.5974089822884
359,860.5932305364936
360,860.5890815173043
361,860.5849673566657
362,860.5808930603579
363,860.5768632758188
364,860.5728823728284
365,860.5689545306536
366,860.5650838255731
367,860.5612743143288
368,860.5575301109318
369,860.5538554555641
370,860.5502547751605
371,860.5467327360576
372,860.5432942898512
373,860.5399447139408
374,860.536689648087
375,860.5335351279346
376,860.530487615993
377,860.5275540301149
378,860.5247417692855
379,860.5220587365677
380,860.5195133591194
381,860.5171146051556
382,860.5148719977227
383,860.5127956255882
384,860.5108961523898
385,860.5091848257517
386,860.5076734877848
387,860.5063745874324
388,860.5053011941683
389,860.5044670118887
390,860.5038863913446
391,860.503574339215
392,860.5035465223043
393,860.5038192663392
394,860.5044095497188
395,860.5053349926601
396,860.5066138414518
397,860.5082649465527
398,860.5103077323865
399,860.5127621558239
400,860.5156486494722
401,860.5189880454839
402,860.5228014761303
403,860.5271102487119
404,860.5319356938674
405,860.537298987768
406,860.5432209503286
407,860.549721823474
408,860.5568210352507
409,860.5645369568518
410,860.5728866605042
411,860.5818856868985
412,860.5915478314774
413,860.6018849590336
414,860.6129068550573
415,860.6246211199817
416,860.6370331097816
417,860.6501459242793
418,860.6639604431979
419,860.6784754088413
420,860.6936875527908
421,860.709591762369
422,860.7261812814121
423,860.7434479393283
424,860.7613824021684
425,860.7799744390002
426,860.7992131960184
427,860.8190874697439
428,860.8395859701965
429,860.8606975659409
430,860.8824115053554
431,860.90471761128
432,860.9276064482897
433,860.9510694628837
434,860.9750990969884
435,860.9996888748193
436,861.0248334630924
437,861.050528705271
438,861.0767716314517
439,861.1035604459698
440,861.1308944949486
441,861.1587742163414
442,861.1872010756155
443,861.21617749085
444,861.2457067514268
445,861.2757929346078
446,861.3064408240639
447,861.337655833918
448,861.3694439411587
449,861.4018116282477
450,861.4347658362431
451,861.468313927076
452,861.5024636520544
453,861.5372231223081
454,861.5726007760984
455,861.60860533827
456,861.6452457684851
457,861.6825311963647
458,861.7204708425223
459,861.7590739247212
460,861.7983495485508
461,861.8383065825334
462,861.8789535181077
463,861.9202983150798
464,861.9623482332073
465,862.0051096512436
466,862.0485878759223
467,862.0927869442405
468,862.1377094225732
469,862.1833562057177
470,862.2297263182779
471,862.2768167202057
472,862.324622118137
473,862.3731347843391
474,862.4223443853648
475,862.4722378225015
476,862.5227990854924
477,862.574009119766
478,862.6258457063736
479,862.6782833540966
480,862.7312932047
481,862.7848429536909
482,862.838896788948
483,862.8934153483798
484,862.9483556965007
485,863.0036713192526
486,863.0593121363286
487,863.1152245301587
488,863.1713513906624
489,863.2276321752888
490,863.284002984863
491,863.3403966571329
492,863.3967428813394
493,863.452968338143
494,863.5089968693426
495,863.5647496808456
496,863.6201455805673
497,863.6751012509236
498,863.7295315539789
499,863.7833498664836
500,863.8364684417542
501,863.8887987949101
502,863.9402521068902
503,863.9907396413355
504,864.0401731678339
505,864.0884653856385
506,864.1355303433612
507,864.1812838513673
508,864.2256438839937
509,864.2685309683386
510,864.3098685555893
511,864.3495833699191
512,864.3876057290222
513,864.4238698297119
514,864.4583139922564
515,864.4908808587197
516,864.5215175431782
517,864.5501757342763
518,864.5768117524002
519,864.6013865650565
520,864.6238657652779
521,864.6442195187828
522,864.6624224857089
523,864.6784537221886
524,864.692296566601
525,864.7039385151223
526,864.713371090501
527,864.7205897063202
528,864.7255935267957
529,864.7283853201501
530,864.728971302253
531,864.727360966845
532,864.7235668994326
533,864.7176045736143
534,864.7094921307473
535,864.6992501461419
536,864.6869013868699
537,864.6724705669648
538,864.6559841049183
539,864.6374698867154
540,864.6169570364289
541,864.5944756959876
542,864.5700568157796
543,864.5437319578715
544,864.5155331136696
545,864.4854925374381
546,864.4536425961473
547,864.4200156351653
548,864.3846438591689
549,864.3475592286101
550,864.3087933734479
551,864.2683775264779
552,864.2263424777344
553,864.1827185494016
554,864.1375355885509
555,864.0908229739243
556,864.0426096332247
557,863.992924068401
558,863.9417943874674
559,863.8892483420274
560,863.8353133697747
561,863.7800166410839
562,863.7233851085689
563,863.665445558198
564,863.6062246601452
565,863.5457490173341
566,863.4840452099199
567,863.4211398345476
568,863.357059537604
569,863.2918310417028
570,863.2254811645257
571,863.1580368289598
572,863.0895250632364
573,863.0199729896487
574,862.9494078003992
575,862.8778567189167
576,862.8053469446984
577,862.7319055799127
578,862.6575595371679
579,862.5823354297853
580,862.5062594477836
581,862.4293572235783
582,862.3516536909923
583,862.273172940466
584,862.1939380734566
585,862.1139710603024
586,862.0332926076911
587,861.9519220431596
588,861.8698772238035
589,861.7871744746132
590,861.7038285596037
591,861.6198526871551
592,861.5352585497661
593,861.4500563972881
594,861.3642551414706
595,861.2778624886122
596,861.190885096451
597,861.1033287510344
598,861.0151985591194
599,860.9264991518785
600,860.8372348966218
601,860.7474101148741
602,860.6570293068633
603,860.566097383391
604,860.4746199055108
605,860.3826033306585
606,860.2900552619698
607,860.1969846964932
608,860.1034022678485
609,860.0093204788964
610,859.9147539199342
611,859.8197194681057
612,859.7242364642347
613,859.6283268639025
614,859.5320153600144
615,859.4353294743952
616,859.3382996164028
617,859.2409591073767
618,859.1433441708957
619,859.0454938898441
620,858.9474501318147
621,858.8492574444367
622,858.7509629223703
623,858.6526160484441
624,858.5542685128171
625,858.4559740159264
626,858.3577880629332
627,858.2597677585211
628,858.161971610431
629,858.0644593481277
630,857.9672917604032
631,857.8705305536125
632,857.7742382309916
633,857.6784779927806
634,857.5833136561492
635,857.488809593232
636,857.3950306851548
637,857.3020422896426
638,857.209910219275
639,857.1187007266853
640,857.028480492161
641,856.9393166084004
642,856.8512765568773
643,856.7644281707579
644,856.6788395808051
645,856.5945791425635
646,856.5117153443208
647,856.4303166954654
648,856.3504515946316
649,856.272188177236
650,856.1955941426279
651,856.1207365618062
652,856.0476816674993
653,855.9764946293635
654,855.9072393178253
655,855.8399780605357
656,855.774771395805
657,855.711677827937
658,855.6507535899443
659,855.5920524194167
660,855.5356253532682
661,855.4815205468535
662,855.4297831225897
663,855.3804550526598
664,855.3335750793383
665,855.2891786745834
666,855.2472980378409
667,855.2079621282168
668,855.1711967252422
669,855.1370245118217
670,855.105465173355
671,855.0765355079001
672,855.0502495432289
673,855.0266186573971
674,855.0056516993945
675,854.9873551053886
676,854.9717330048493
677,854.9587873106722
678,854.94851778872
679,854.9409221044292
680,854.9359958464602
681,854.9337325293988
682,854.9341235791219
683,854.9371583055806
684,854.9428238684324
685,854.9511052412255
686,854.9619851798939
687,854.9754442011113
688,854.9914605751765
689,855.0100103365357
690,855.0310673137133
691,855.0546031800602
692,855.0805875268244
693,855.1089879593654
694,855.1397702154347
695,855.172898301917
696,855.2083346444343
697,855.2460402437149
698,855.2859748337485
699,855.3280970386525
700,855.372364526963
701,855.4187341635952
702,855.4671621611851
703,855.5176042335324
704,855.5700157535201
705,855.6243519159013
706,855.6805679026074
707,855.7386190461544
708,855.7984609860977
709,855.8600498142335
710,855.9233422057797
711,855.9882955351841
712,856.0548679757868
713,856.1230185824279
714,856.1927073561105
715,856.2638952904847
716,856.3365444009407
717,856.4106177380878
718,856.4860793881294
719,856.5628944630914
720,856.6410290840568
721,856.7204503605238
722,856.8011263684687
723,856.8830261284603
724,856.9661195837451
725,857.0503775774763
726,857.1357718284719
727,857.2222749050031
728,857.3098601950816
729,857.3985018700267
730,857.4881748371324
731,857.5788546773679
732,857.6705175642753
733,857.7631401601235
734,857.8566994857932
735,857.9511727625958
736,858.0465372268259
737,858.1427699202217
738,858.239847460936
739,858.3377458001295
740,858.4364399692788
741,858.535903823137
742,858.6361097832112
743,858.7370285868649
744,858.8386290477104
745,858.9408778334074
746,859.0437392668522
747,859.1471751559233
748,859.2511446557087
749,859.3556041658894
750,859.4605072650792
751,859.5658046832997
752,859.6714443130151
753,859.7773712581015
754,859.8835279191146
755,859.9898541126862
756,860.096287223066
757,860.2027623846112
758,860.3092126950497
759,860.4155694602732
760,860.5217624722095
761,860.6277203219729
762,860.7333707506615
763,860.8386410394363
764,860.9434584388827
765,861.0477506356311
766,861.151446252345
767,861.2544753757647
768,861.3567701066754
769,861.4582651253259
770,861.5588982654341
771,861.6586110889003
772,861.7573494520808
773,861.8550640539986
774,861.9517109576174
775,862.0472520767328
776,862.1416556224583
777,862.2348965045489
778,862.3269566839328
779,862.4178254736888
780,862.5074997864675
781,862.5959843275956
782,862.6832917351527
783,862.7694426706171
784,862.8544658652154
785,862.9383981271793
786,863.0212843137701
787,863.1031772698745
788,863.1841377330501
789,863.2642342036527
790,863.3435427780405
791,863.422146942614
792,863.5001373265645
793,863.5776114114622
794,863.6546731956017
795,863.731432810134
796,863.8080060830515
797,863.8845140471172
798,863.9610823892046
799,864.0378408408744
800,864.1149225126787
801,864.1924631772113
802,864.2706005081905
803,864.349473284869
804,864.4292205726433
805,864.5099808914723
806,864.5918913830395
807,864.6750869854533
808,864.7596996215999
809,864.8458574051899
810,864.933683867332
811,865.0232972058783
812,865.1148095597708
813,865.2083263112036
814,865.3039454192779
815,865.4017567896148
816,865.5018416850481
817,865.6042721829385
818,865.7091106844194
819,865.8164094797385
820,865.9262103720472
821,866.0385443601796
822,866.1534313796543
823,866.2708801002827
824,866.3908877781851
825,866.5134401597498
826,866.6385114350637
827,866.7660642381932
828,866.8960496912656
829,867.0284074888498
830,867.1630660190847
831,867.2999425186434
832,867.4389432602292
833,867.5799637738047
834,867.7228891055361
835,867.8675941205089
836,868.0139438559164
837,868.1617939304783
838,868.310991013589
839,868.4613733545311
840,868.6127713687064
841,868.765008275149
842,868.9179007780533
843,869.0712597844077
844,869.2248911496795
845,869.3785964438572
846,869.5321737311698
847,869.6854183582916
848,869.8381237474414
849,869.9900821922375
850,870.1410856553057
851,870.2909265670672
852,870.4393986246523
853,870.5862975890723
854,870.7314220784525
855,870.8745743553251
856,871.015561106078
857,871.1541942102405
858,871.2902914965392
859,871.423677482037
860,871.5541840902664
861,871.6816513438624
862,871.8059280265866
863,871.926872309106
864,872.0443523331884
865,872.1582467508039
866,872.2684452175639
867,872.3748488424108
868,872.4773705960772
869,872.5759356795274
870,872.6704818514224
871,872.7609597116463
872,872.8473329364298
873,872.929578459514
874,873.0076865930712
875,873.0816610818822
876,873.1515190847423
877,873.2172910781771
878,873.2790206790029
879,873.3367643836788
880,873.390591223687
881,873.4405823374333
882,873.4868304604934
883,873.529439337381
884,873.5685230591714
885,873.6042053319325
886,873.6366186806633
887,873.6659035924247
888,873.692207601207
889,873.7156843166565
890,873.7364923996179
891,873.7547944893679
892,873.7707560897317
893,873.784544423468
894,873.7963272663764
895,873.8062717745721
896,873.8145433200857
897,873.8213043507149
898,873.82671328934
899,873.8309234860087
900,873.8340822339935
901,873.8363298594965
902,873.8377988937633
903,873.8386133356116
904,873.838888011089
905,873.8387280348162
906,873.8382283750962
907,873.8374735230782
908,873.8365372657075
909,873.8354825625102
910,873.8343615266863
911,873.8332155110637
912,873.8320752993111
913,873.8309614027473
914,873.8298844630986
915,873.828845761083
916,873.8278378289616
917,873.826845162085
