frame_number,force
0,606.6447700000396
1,606.8656414065861
2,607.0804504285946
3,607.2838149712077
4,607.4715827493903
5,607.6411663623746
6,607.7916460193984
7,607.9236719633338
8,608.0392153577455
9,608.1412093241803
10,608.2331155541774
11,608.3184605248811
12,608.4004015755386
13,608.4813902063152
14,608.5629847324175
15,608.6458263582192
16,608.7297500726423
17,608.8139790855823
18,608.8973559277306
19,608.9785799402547
20,609.0564297566224
21,609.1299426517156
22,609.1985115028901
23,609.2618662894464
24,609.3199392795068
25,609.3726536121861
26,609.4196973806827
27,609.4603399223442
28,609.4933234742826
29,609.5168387651399
30,609.5285824005963
31,609.5258998778544
32,609.5060270807915
33,609.4664360826835
34,609.4052619815523
35,609.3217502526045
36,609.2166392445172
37,609.0923912863205
38,608.953210356957
39,608.8048295343737
40,608.6541021439602
41,608.5084658934816
42,608.3753575181171
43,608.261642651454
44,608.1731110521118
45,608.114083749832
46,608.0871768127276
47,608.0932466330331
48,608.1314988393558
49,608.1996959643415
50,608.2943784515561
51,608.4110384710988
52,608.5442446128177
53,608.6877685651091
54,608.8347768113449
55,608.9781237586283
56,609.1107516814169
57,609.2261860961293
58,609.3190945939715
59,609.3858382709128
60,609.4249131472583
61,609.4371868678829
62,609.4258743703742
63,609.3962320280681
64,609.3549780478502
65,609.3094898958333
66,609.2668890822026
67,609.2331661928923
68,609.2124938596301
69,609.2068283437762
70,609.215841600395
71,609.2371748331677
72,609.2669605307269
73,609.3005174528048
74,609.3330883866493
75,609.3604820252093
76,609.3795143082696
77,609.3882159058787
78,609.3858468481895
79,609.3727924622362
80,609.3503917359583
81,609.3207019627627
82,609.286180643608
83,609.249288252175
84,609.2120662651602
85,609.1757856535366
86,609.1407585217497
87,609.1063584614947
88,609.0712373376158
89,609.0336913957882
90,608.9921194107673
91,608.9455102202228
92,608.8938867355856
93,608.8386291689937
94,608.7826150070014
95,608.7301433990276
96,608.6866392825958
97,608.6581488928636
98,608.650656548386
99,608.6692879922974
100,608.7175073121203
101,608.7964334845581
102,608.9043856007364
103,609.0367272371043
104,609.1860415393306
105,609.3426357254044
106,609.4953377837448
107,609.6325037682515
108,609.7431152472429
109,609.8178337912375
110,609.8498970845909
111,609.8357773320805
112,609.7755605885021
113,609.6730276735384
114,609.5354164738122
115,609.3728424260664
116,609.1973824917206
117,609.0218967376352
118,608.8587413353915
119,608.7185741016878
120,608.6094432252435
121,608.5362839816299
122,608.5008486336694
123,608.5019955988457
124,608.5362043952927
125,608.598183075598
126,608.6814779197648
127,608.7790436490628
128,608.8837607415879
129,608.9888920177088
130,609.0884632664392
131,609.1775425347812
132,609.2523882498729
133,609.3104462134836
134,609.3502055743506
135,609.3709697577879
136,609.3726379983343
137,609.3555917307106
138,609.32072194249
139,609.269551678331
140,609.2043569247156
141,609.1281898305169
142,609.0447435654744
143,608.9580513202947
144,608.8720737304652
145,608.7902775399593
146,608.7153171931668
147,608.6488960854133
148,608.591823354327
149,608.5442179797635
150,608.5057676339426
151,608.4759448294169
152,608.4541184984197
153,608.4395530212433
154,608.4313306369786
155,608.428252942793
156,608.428774791342
157,608.4310064937075
158,608.43279689074
159,608.4318910711089
160,608.4261437493026
161,608.4137547186583
162,608.3934780043916
163,608.3647560242803
164,608.3277498046267
165,608.2832643052227
166,608.2325938474787
167,608.1773344798447
168,608.1192192077912
169,608.060015695751
170,608.001488159216
171,607.9453885428219
172,607.8934328735008
173,607.8472460955446
174,607.8082994458794
175,607.7778792597595
176,607.7571020386129
177,607.7469525582497
178,607.7482995379137
179,607.7618468208816
180,607.7880059465353
181,607.8267197928594
182,607.8772985176678
183,607.938319374443
184,608.007601456564
185,608.0822378319089
186,608.1586749626326
187,608.2328532536076
188,608.3004288751362
189,608.357076924177
190,608.3988471187852
191,608.4225216191514
192,608.42591484469
193,608.4080591528308
194,608.3692374816065
195,608.3108505868016
196,608.2351405484974
197,608.1448304953916
198,608.0427679906975
199,607.9316580050146
200,607.8139415242788
201,607.6918369666618
202,607.567525645152
203,607.4434235087012
204,607.3224403300952
205,607.2081114363333
206,607.1045220349275
207,607.0160180075956
208,606.9467681828713
209,606.900277895398
210,606.878945950695
211,606.8837251955263
212,606.9139167123094
213,606.9671126689632
214,607.039298620871
215,607.1251204399714
216,607.2183050319919
217,607.3121976250002
218,607.4003516943376
219,607.4770950354737
220,607.5380046401052
221,607.580245541004
222,607.6027490552988
223,607.6062207299232
224,607.5929864338544
225,607.5667051980807
226,607.5319871713739
227,607.4939544359224
228,607.4577852190655
229,607.428289912572
230,607.4095645754929
231,607.4047449648461
232,607.4158520273088
233,607.443698753941
234,607.4878343899633
235,607.5465337317695
236,607.6168726885265
237,607.6949375173225
238,607.7761877200356
239,607.8559498976325
240,607.929982049314
241,607.9950234554398
242,608.0492372776212
243,608.0924639449779
244,608.1262344074186
245,608.1535403485949
246,608.178410420263
247,608.2053733020956
248,608.2388829901128
249,608.2827510363428
250,608.3396061494092
251,608.4104063340794
252,608.4940595907676
253,608.5872375750342
254,608.6844605473954
255,608.7784898036208
256,608.8610122218803
257,608.9235574920689
258,608.958547398805
259,608.9603371411307
260,608.9260861437109
261,608.8563072457482
262,608.7549923678541
263,608.6292870290031
264,608.4887636445472
265,608.3444056968806
266,608.2074510108259
267,608.0882482981681
268,607.9952607838276
269,607.934316173108
270,607.9081663104857
271,607.9163877277574
272,607.9556202229018
273,608.0200973011864
274,608.1023760076206
275,608.1941444255402
276,608.2869900882594
277,608.3730513373231
278,608.4455257550024
279,608.499045811012
280,608.5299350786631
281,608.5363404934199
282,608.5182266639672
283,608.4772343473077
284,608.4164369058547
285,608.3400526890782
286,608.2531713196329
287,608.1615257741453
288,608.0713002031777
289,607.9889244521086
290,607.9207919758761
291,607.8728596622678
292,607.8501366930611
293,607.8561236723623
294,607.892304261884
295,607.9578056467941
296,608.0493224393616
297,608.1613465291803
298,608.2866851172447
299,608.4172035758831
300,608.5447047417948
301,608.6618431514173
302,608.7629627434882
303,608.8447387477493
304,608.9065111101313
305,608.9502385586981
306,608.9800795139862
307,609.0016853050636
308,609.0213403078484
309,609.045097371566
310,609.0780412337505
311,609.1237724581928
312,609.1841487405869
313,609.2592626962731
314,609.3475918668327
315,609.4462420297064
316,609.5512198229092
317,609.6577029699082
318,609.760312039338
319,609.8534142112616
320,609.9314954796226
321,609.9896181208796
322,610.0239409840045
323,610.0322365570318
324,610.0143099869031
325,609.9722241537512
326,609.9102610086225
327,609.8345934086764
328,609.7526941937169
329,609.6725609440484
330,609.6018725869053
331,609.5472046389733
332,609.5134101689443
333,609.5032313845841
334,609.5171550685453
335,609.5534813569981
336,609.6085571962385
337,609.6771352773791
338,609.7528360833368
339,609.8286917685015
340,609.8977353650414
341,609.9535850841569
342,609.990971788359
343,610.0061648000667
344,609.9972612544865
345,609.9643124879927
346,609.9092674459966
347,609.8357273358448
348,609.7485345167761
349,609.6532513916686
350,609.5556049378166
351,609.4609752199899
352,609.3739955168695
353,609.2983049302069
354,609.2364522396392
355,609.1899141907987
356,609.1591884228503
357,609.1439447271696
358,609.1432311233084
359,609.1557080336157
360,609.179842826013
361,609.2139861286622
362,609.256301093795
363,609.304600864102
364,609.3562015586799
365,609.4078786980261
366,609.4559506730304
367,609.4964618502654
368,609.5254304755346
369,609.5391447250773
370,609.5344958504668
371,609.5093149831747
372,609.4626520269356
373,609.3949321303276
374,609.3079548844406
375,609.2047497248701
376,609.0893474914849
377,608.9665483104585
378,608.8417416651674
379,608.7207748012847
380,608.6098070191337
381,608.5150653946216
382,608.4424418943534
383,608.3969299962323
384,608.3819716478233
385,608.3988501008434
386,608.446290617221
387,608.5203972873239
388,608.6149713295288
389,608.7221628467404
390,608.8333383212616
391,608.9400122321922
392,609.0346919697494
393,609.1115178355083
394,609.1666358376403
395,609.1983007396182
396,609.2067500302034
397,609.193907140364
398,609.1629673330435
399,609.1179059992995
400,609.0629467044287
401,609.002042736556
402,608.9384445504563
403,608.874425777134
404,608.8112198384732
405,608.74918556289
406,608.688178267515
407,608.628057008276
408,608.56921871127
409,608.5130299028821
410,608.4620385458322
411,608.4198910996697
412,608.3909416873416
413,608.3796079238996
414,608.3895864490147
415,608.4230752669997
416,608.480153665169
417,608.5584474905129
418,608.6531627278831
419,608.7575059113611
420,608.8634308774353
421,608.9625741507942
422,609.0471948554489
423,609.1109449845403
424,609.149359398167
425,609.1600358692007
426,609.142535602668
427,609.0980689984375
428,609.0290576024693
429,608.9386806505945
430,608.8305012099339
431,608.7082169573266
432,608.5755217783784
433,608.4360322782966
434,608.293241311243
435,608.1504918471536
436,608.0109861999639
437,607.8778360386508
438,607.75412544785
439,607.6429333209022
440,607.5472692696534
441,607.4699179685681
442,607.4132323174553
443,607.3789336100593
444,607.3679569318953
445,607.380346142231
446,607.4151896477608
447,607.4705996531455
448,607.5437473889218
449,607.6309607551349
450,607.7278789083574
451,607.8296503661669
452,607.9311605317271
453,608.0272859815648
454,608.1131909408538
455,608.184681137135
456,608.2385942373547
457,608.2731554872429
458,608.2882041764029
459,608.2852187241572
460,608.2671186070942
461,608.2378759675453
462,608.2020126928694
463,608.164077627428
464,608.1281869782711
465,608.0976774313422
466,608.0748848765203
467,608.0610372389782
468,608.0562434327024
469,608.0595697052185
470,608.0692099975711
471,608.0827636502928
472,608.0976212682033
473,608.1114283515976
474,608.1225554014011
475,608.1304683717462
476,608.1358888203943
477,608.1406781770487
478,608.1474631402298
479,608.1590950871957
480,608.1780678822602
481,608.2060057379457
482,608.2433000135303
483,608.2889414587796
484,608.3405697129172
485,608.394737385115
486,608.4473493801478
487,608.4941972036162
488,608.5314881827456
489,608.5562781750921
490,608.566739496412
491,608.5622297204386
492,608.5431770250656
493,608.5108489101035
494,608.4670924825409
495,608.414115582563
496,608.3543391768766
497,608.2903168848339
498,608.224695636895
499,608.1601804425142
500,608.0994631866312
501,608.0450827711793
502,607.999210084335
503,607.9633943533935
504,607.9383433875056
505,607.9238113602323
506,607.9186326121693
507,607.9208953409359
508,607.9282210941358
509,607.9381075421792
510,607.9482924508246
511,607.9570990401448
512,607.9637230034605
513,607.968417310108
514,607.9725290235616
515,607.978351869391
516,607.9887812524944
517,608.006797461532
518,608.0348591943664
519,608.0743394763927
520,608.125137399727
521,608.1855402147856
522,608.2523293539315
523,608.321070002923
524,608.386515808673
525,608.4430819247154
526,608.48535790919
527,608.5086276537174
528,608.5093478149535
529,608.4855305420082
530,608.4369858350555
531,608.3653958946733
532,608.2742107374629
533,608.1683682811632
534,608.0538567827415
535,607.9371569260868
536,607.8246211613908
537,607.7218637126691
538,607.6332409945928
539,607.5614895848623
540,607.5075586644352
541,607.4706457795456
542,607.4484297247652
543,607.4374796044534
544,607.4337932349989
545,607.4333912128858
546,607.4328841643052
547,607.4299421518352
548,607.4236129579798
549,607.4144537011323
550,607.4044621440033
551,607.396818927598
552,607.3954741149463
553,607.4046267304034
554,607.42815116853
555,607.4690233855512
556,607.5288031106056
557,607.607235858687
558,607.702037543274
559,607.8089085468073
560,607.9217990882954
561,608.0334181957919
562,608.1359435706476
563,608.2218521704325
564,608.2847601095505
565,608.3201452360277
566,608.325837625807
567,608.3022067121815
568,608.2520338787997
569,608.1801117102791
570,608.0926433575675
571,607.9965289067728
572,607.8986265191805
573,607.8050722766097
574,607.7207352017135
575,607.6488633831952
576,607.590941820821
577,607.5467504919874
578,607.5145982671582
579,607.4917079608265
580,607.4747226949291
581,607.4602852884694
582,607.445614449404
583,607.42897946414
584,607.4099794168668
585,607.3895725596577
586,607.3698632304144
587,607.3537122573817
588,607.3442710894163
589,607.3445404935494
590,607.3570221750801
591,607.383480769787
592,607.4247961967603
593,607.4808880680898
594,607.5507217243934
595,607.632419148305
596,607.7234771170024
597,607.8210559299745
598,607.9222707334836
599,608.0244081087519
600,608.1250099007842
601,608.2218134482117
602,608.3125955721594
603,608.3950082408014
604,608.4664949613501
605,608.5243414129512
606,608.565866261856
607,608.5887199019236
608,608.591234790406
609,608.5727614841162
610,608.533930357234
611,608.4767943179534
612,608.4048263913769
613,608.3227697918626
614,608.2363651511016
615,608.1519944184666
616,608.0762717204545
617,608.0155895498302
618,607.9756189613606
619,607.9607782459913
620,607.9737187087895
621,608.0149084176138
622,608.0824028613189
623,608.1718664784885
624,608.2768635009473
625,608.389391395417
626,608.500596307418
627,608.6015858186289
628,608.6842373478373
629,608.7418971608403
630,608.7698869611504
631,608.7657810883812
632,608.7294661388476
633,608.6630252411445
634,608.5704964296731
635,608.4575430729743
636,608.331054226184
637,608.1986798203611
638,608.068308049502
639,607.9475048375726
640,607.8429503121251
641,607.7599221467941
642,607.701887651057
643,607.6702657585132
644,607.6643957792267
645,607.6817087475117
646,607.7180631556334
647,607.7681926431161
648,607.8262120605402
649,607.8861359415382
650,607.9423823853061
651,607.99025463863
652,608.0263884449212
653,608.0491191324791
654,608.0586852129643
655,608.0571813958979
656,608.0482153554491
657,608.0362914427351
658,608.0260149623941
659,608.0212635413169
660,608.0244914181906
661,608.0363069556558
662,608.0554005117806
663,608.078823710593
664,608.1025550339705
665,608.1222399686006
666,608.1339690679249
667,608.1349585142106
668,608.1240283264026
669,608.1018245620673
670,608.0707805345146
671,608.0348369871006
672,607.9989459672549
673,607.9683962000485
674,607.9480408337254
675,607.941564535598
676,607.9509467570056
677,607.9762295990281
678,608.0156080118285
679,608.0657847076438
680,608.1224988948802
681,608.1811289722008
682,608.2372665636663
683,608.2871735417041
684,608.3280802971402
685,608.3583445871162
686,608.3775227509587
687,608.3863902907877
688,608.3869141499705
689,608.3821599395061
690,608.3761184630215
691,608.3734430074485
692,608.3790986205158
693,608.3979415853993
694,608.4342657039447
695,608.4913611521059
696,608.5711315681789
697,608.673811500298
698,608.797821332137
699,608.9397889355819
700,609.0947499128733
701,609.2565048472233
702,609.4180748097303
703,609.5721828313918
704,609.7117098160238
705,609.8301095369984
706,609.9217911309522
707,609.9824761829649
708,610.0095191958987
709,610.0021612528556
710,609.9616752719066
711,609.8913566424038
712,609.7963189762658
713,609.6830842954157
714,609.5590124179788
715,609.4316659982217
716,609.3082169152078
717,609.1949660301847
718,609.097005659893
719,609.0180219707702
720,608.9602107472903
721,608.9242711096172
722,608.9094574231947
723,608.9136967962451
724,608.9337911983641
725,608.9657062268504
726,609.0049156320816
727,609.0467517285944
728,609.0867259933395
729,609.1208164742249
730,609.1457346502295
731,609.1591682008425
732,609.159965071591
733,609.1482085599761
734,609.1251468659657
735,609.0929721062411
736,609.0544731164495
737,609.0126067967399
738,608.9700521417498
739,608.9288295902543
740,608.8900661081567
741,608.8539488888464
742,608.8198554914902
743,608.7866090127768
744,608.7527969584888
745,608.7170984776172
746,608.6785695280997
747,608.636841847684
748,608.592214321812
749,608.5456513896637
750,608.4987241868665
751,608.453517084525
752,608.4124938356834
753,608.3783092242894
754,608.3535741844044
755,608.3406116620108
756,608.3412496329291
757,608.3566833974505
758,608.3874199611196
759,608.4333038664885
760,608.4936069586312
761,608.5671407337344
762,608.6523379853361
763,608.7472679458043
764,608.8495911672687
765,608.9565055214864
766,609.0647555506768
767,609.1707572894834
768,609.2708436859161
769,609.3615939379805
770,609.4401868101249
771,609.5047045207059
772,609.5543081871059
773,609.5892225289838
774,609.610516286538
775,609.6197310585327
776,609.6184622668497
777,609.6080067408699
778,609.5891633145008
779,609.5622256696186
780,609.5271569081247
781,609.4838906286885
782,609.4326733821234
783,609.3743568409693
784,609.3105623462565
785,609.2436705242654
786,609.1766324452632
787,609.1126487270968
788,609.0548023066718
789,609.005739120034
790,608.9674597557162
791,608.9412325245063
792,608.9275965383782
793,608.9264066587107
794,608.9368739213983
795,608.9575684220965
796,608.9863763261508
797,609.0204373387123
798,609.0561234905971
799,609.089134300537
800,609.1147627501921
801,609.1283382991536
802,609.1257976817877
803,609.1042884664926
804,609.0626847500154
805,609.0018947950892
806,608.9248701944402
807,608.8362842479098
808,608.7419206182387
809,608.6478785082488
810,608.559739567167
811,608.4818493026942
812,608.4168393896642
813,608.3654552015926
814,608.3266722951573
815,608.2980239165686
816,608.276043796645
817,608.2567453641506
818,608.2360849575857
819,608.210376944321
820,608.1766416872359
821,608.1328780559375
822,608.0782616773253
823,608.0132724515589
824,607.9397435527706
825,607.8608034441677
826,607.780675039544
827,607.7043243680158
828,607.6370009232775
829,607.5837407412969
830,607.5488920939035
831,607.535694299301
832,607.54592140788
833,607.5796035181062
834,607.6348507937007
835,607.707815221055
836,607.7928247808948
837,607.8827145850692
838,607.9693606232506
839,608.0443918081041
840,608.1000188475094
841,608.1298860073317
842,608.1298312142671
843,608.0984329324486
844,608.037239603177
845,607.9506314121742
846,607.8453404994104
847,607.7297173257367
848,607.6128552639353
849,607.503679877836
850,607.4100923999869
851,607.3382428534077
852,607.292000879906
853,607.2726801178035
854,607.2790401521851
855,607.3075469351879
856,607.3528458154506
857,607.408397713912
858,607.467223706809
859,607.5226816354865
860,607.5691785773515
861,607.6027264812104
862,607.621272805377
863,607.6247684933943
864,607.614966887916
865,607.594988701445
866,607.5687434135539
867,607.5403417414681
868,607.5136284263332
869,607.4919003931343
870,607.4777897612838
871,607.473235078465
872,607.4794625787621
873,607.4969420017344
874,607.5253326424959
875,607.5634561122089
876,607.6093164570563
877,607.6601674648144
878,607.712626664715
879,607.7628462453529
880,607.8067565771946
881,607.8403988002358
882,607.8603571480311
883,607.8642748037212
884,607.8513839613208
885,607.8229215564579
886,607.7822774522799
887,607.7347680698558
888,607.6870385949342
889,607.6462153620223
890,607.6190001958726
891,607.6109015846022
892,607.6257443858686
893,607.6655102099883
894,607.7304612958067
895,607.8194284220731
896,607.9301290080579
897,608.0594208459415
898,608.2034531235948
899,608.3577222690382
900,608.5170774288489
901,608.6757497781332
902,608.8274831638863
903,608.9658097485711
904,609.0844592956661
905,609.1778431740724
906,609.2415322084305
907,609.2726505647598
908,609.2701266287393
909,609.2347698203456
910,609.1691739773948
911,609.0774749764685
912,608.9650063364807
913,608.8379024561939
914,608.7027004718261
915,608.565992521607
916,608.4341783941504
917,608.3133545175976
918,608.2093365490849
