acceleration,velocity,displacement
-0.016534001680238566,0.0,0.0
-0.01573366302048133,-8.066916175179976e-06,-2.016729043794994e-09
-0.014936403941841751,-1.5734432915760744e-05,-7.967066316530175e-09
-0.014145277692696287,-2.3004853324395254e-05,-1.7651887876569177e-08
-0.013363285310970802,-2.9881994075312027e-05,-3.0873599726496e-08
-0.012593350614169468,-3.6371153056597095e-05,-4.7436886509473284e-08
-0.011838296403317912,-4.247906481096894e-05,-6.714944097636479e-08
-0.011100822153642912,-4.821384445020915e-05,-8.982266829165931e-08
-0.010383483398420613,-5.358492083822503e-05,-1.1527235961376786e-07
-0.009688672963528547,-5.8602959928712316e-05,-1.433193298055022e-07
-0.009018604183268282,-6.327977921541153e-05,-1.7379001459153316e-07
-0.008375296214268406,-6.76282543147957e-05,-2.0651702297408497e-07
-0.007760561547047387,-7.166221875512464e-05,-2.4133964124156505e-07
-0.0071759957837840465,-7.53963580878325e-05,-2.7810428545230433e-07
-0.0066229697076935394,-7.88460994607019e-05,-3.1666489983943793e-07
-0.006102623620147317,-8.202749779266212e-05,-3.568832991527789e-07
-0.005615863867582951,-8.495711966459469e-05,-3.986294535170931e-07
-0.005163361423693442,-8.765192598741379e-05,-4.417817149300952e-07
-0.004745552346532574,-9.01291544299703e-05,-4.862269850344413e-07
-0.004362639914959819,-9.240620249534339e-05,-5.318608242657696e-07
-0.004014598269240175,-9.45005120413934e-05,-5.785875028999538e-07
-0.0037011774142294927,-9.642945596226081e-05,-6.263199949008673e-07
-0.0034219094623766134,-9.821022768141234e-05,-6.749799158117857e-07
-0.0031761159952997577,-9.985973404583142e-05,-7.244974062435966e-07
-0.0029629164270487326,-0.00010139449215141855,-7.748109627929092e-07
-0.0027812372719952703,-0.00010283053057617955,-8.258672184748086e-07
-0.002629822243488054,-0.00010418329545505039,-8.776206749826161e-07
-0.002507243116408183,-0.00010546756179502445,-9.300333892951348e-07
-0.002411911275460515,-0.00010669735039299162,-9.83074617342139e-07
-0.002342089857335672,-0.00010788585067619068,-1.0367204176094345e-06
-0.002295906392923684,-0.00010904534973875552,-1.090953217713171e-06
-0.002271365866783382,-0.00011018716780368228,-1.1457613470987805e-06
-0.0022663641287808804,-0.00011132160030257334,-1.2011385391253445e-06
-0.002278701608743826,-0.00011245786673695452,-1.2570834058852266e-06
-0.0023060972946274045,-0.00011360406646279732,-1.3135988891851645e-06
-0.002346202942303186,-0.00011476714152202997,-1.3706916911813712e-06
-0.0023966174966080158,-0.00011595284663175777,-1.4283716882198181e-06
-0.002454901715409982,-0.00011716572643476227,-1.4866513314864481e-06
-0.002518592993637552,-0.00011840910011202415,-1.5455450381231448e-06
-0.002585220380667917,-0.00011968505345560052,-1.605068576515051e-06
-0.002652319773372162,-0.00012099443849411054,-1.6652384495024788e-06
-0.00271744924512677,-0.00012233688074873527,-1.7260712793131902e-06
-0.0027782044361307594,-0.00012371079416904966,-1.7875831980426365e-06
-0.002832233891645629,-0.00012511340375099376,-1.8497892475226474e-06
-0.0028772542049034532,-0.00012654077577513103,-1.9127027924041786e-06
-0.0029110648024703372,-0.00012798785552697447,-1.976334950229705e-06
-0.002931562196442618,-0.0001294485122767027,-2.0406940421806243e-06
-0.002936753520422887,-0.00013091559120591908,-2.1057850680512797e-06
-0.0029247691709688764,-0.00013238097187876703,-2.1716092088224512e-06
-0.0028938743956488616,-0.00013383563277042146,-2.2381633599847484e-06
-0.002842479698012726,-0.00013526972129383687,-2.305439698500813e-06
-0.0027691499601900068,-0.00013667262870838755,-2.3734252860013693e-06
-0.0026726122108374677,-0.00013803306925114442,-2.4421017104912524e-06
-0.002551761991038231,-0.00013933916280161335,-2.511444768504442e-06
-0.0024056682939744434,-0.00014057852037286652,-2.581424189298062e-06
-0.002233577071920069,-0.00014173833171434016,-2.652003402319864e-06
-0.002034913315298052,-0.0001428054543111447,-2.723139348826235e-06
-0.0018092817178053367,-0.00014376650306942054,-2.7947823381713764e-06
-0.0015564659504458554,-0.00014460793998648334,-2.8668759489353523e-06
-0.00127642657139719,-0.0001453161631169441,-2.9393569747112093e-06
-0.0009692975966913153,-0.0001458775941589662,-3.012155414030187e-06
-0.0006353817563459775,-0.00014627876399722552,-3.0851945035692347e-06
-0.0002751444718989421,-0.00014650639555428675,-3.158390793457113e-06
0.00011079338374103653,-0.00014654748332632622,-3.231654263177266e-06
0.0005216638498079262,-0.00014638936901793898,-3.3048884762633324e-06
0.0009565612349805756,-0.00014601981274674184,-3.3779907717045025e-06
0.0014144523076446138,-0.00014542705936108555,-3.4508524897314593e-06
0.0018941871355633063,-0.00014459989950028356,-3.5233592294468016e-06
0.002394510375449287,-0.00014352772512253042,-3.595391135602505e-06
0.0029140728008007284,-0.00014220057932846792,-3.6668232117152547e-06
0.0034514428520797747,-0.0001406092004152478,-3.737525656651184e-06
0.004005118002486464,-0.00013874506020160625,-3.8073642218053973e-06
0.0045735357517533905,-0.00013660039676304629,-3.87620058604656e-06
0.005155084082680705,-0.00013416824180443777,-3.943892745688431e-06
0.005748111242046492,-0.00013144244297325596,-4.010295416882855e-06
0.006350934746803999,-0.00012841768147604332,-4.07526044799518e-06
0.006961849569868366,-0.00012508948539687522,-4.13863723971341e-06
0.007579135516427031,-0.00012145423912530137,-4.200273170843954e-06
0.008201063843740659,-0.00011750918928525944,-4.260014027946594e-06
0.008825903195528123,-0.00011325244752544225,-4.317704437149269e-06
0.009451924926742529,-0.00010868299049487458,-4.373188296654349e-06
0.010077407903915677,-0.00010380065728721003,-4.42630920859987e-06
0.010700642886144135,-9.860614458969507e-05,-4.476910909069097e-06
0.011319936610554847,-9.310099971552033e-05,-4.5248376951454e-06
0.011933615706933456,-8.728761163614826e-05,-4.569934847983317e-06
0.01254003054433523,-8.116920007333108e-05,-4.612049050910687e-06
0.013137559081978308,-7.47498026667527e-05,-4.651028801595709e-06
0.01372461077301996,-6.803426020300313e-05,-4.686724817313147e-06
0.014299630551281008,-6.1028199871927886e-05,-4.71899043233188e-06
0.014861102906784959,-5.37380165074114e-05,-4.747681986426715e-06
0.015407556030619943,-4.617085177306017e-05,-4.772659203496833e-06
0.015937566000635697,-3.8334571265246265e-05,-4.793785559256409e-06
0.01644976098852815,-3.0237739517955304e-05,-4.810928636952209e-06
0.01694282547320976,-2.1889592902520828e-05,-4.823960470057328e-06
0.017415504428696413,-1.3300010427044285e-05,-4.83275787088972e-06
0.017866607428337872,-4.479482462785715e-06,-4.8372027441121775e-06
0.018295012592602772,4.560922542449446e-06,-4.837182384092262e-06
0.018699670310209155,1.3809593268152427e-05,-4.832589755139612e-06
0.019079606674396694,2.325441251430389e-05,-4.823323753693998e-06
0.019433926591627033,3.288279583080982e-05,-4.80928945160772e-06
0.01976181653585668,4.268173161268075e-05,-4.790398319746847e-06
0.020062546932148023,5.263782247968193e-05,-4.766568431223756e-06
0.02033547415551058,6.273732775159658e-05,-4.7377246436659366e-06
0.02058004213096738,7.296620682321607e-05,-4.703798760022233e-06
0.02079578353076422,8.331016323864897e-05,-4.664729667506767e-06
0.020982320588359287,9.375468926842985e-05,-4.6204634543799975e-06
0.021139365576284798,0.00010428511080959087,-4.570953504360492e-06
0.021266721011622594,0.00011488663245656772,-4.516160568543952e-06
0.021364279651244485,0.0001255443826222845,-4.456052814774239e-06
0.021432024320203365,0.00013624345861514646,-4.390605854464881e-06
0.02147002758480116,0.0001469689715913976,-4.319802746913245e-06
0.021478451245277995,0.00015770609129891737,-4.243633981190666e-06
0.021457545596156466,0.000168440090509276,-4.1620974357386174e-06
0.021407648396023653,0.00017915638900732102,-4.0751983158594685e-06
0.021329183499994357,0.00018984059698132552,-3.982949069362307e-06
0.02122265912551589,0.00020047855763770308,-3.88536928070755e-06
0.021088665735738477,0.00021105638885301667,-3.78248554408487e-06
0.020927873530386207,0.00022156052366954784,-3.674331315954229e-06
0.020741029533777763,0.00023197774943558883,-3.5609467476779448e-06
0.020528954271150028,0.00024229524538682076,-3.442378498972342e-06
0.020292538033544617,0.0002525006184629944,-3.3186795330098885e-06
0.020032736743544784,0.0002625819371572668,-3.1899088941048233e-06
0.01975056743717846,0.0002725277632024476,-3.0561314690148946e-06
0.019447103365197012,0.00028232718090304143,-2.9174177329885223e-06
0.019123468698605553,0.00029196982391899206,-2.773843481783014e-06
0.018780832815365297,0.00030144589929748474,-2.6254895509788945e-06
0.018420404155029064,0.00031074620854008335,-2.4724415240195026e-06
0.01804342364842733,0.00031986216549094746,-2.314789430511745e-06
0.01765115774921401,0.0003287858108403578,-2.1526274364289188e-06
0.017244891106901035,0.0003375098230543866,-1.9860535279552325e-06
0.016825918924909544,0.0003460275255623392,-1.8151691908010512e-06
0.01639553904307852,0.00035433289005433623,-1.6400790868968822e-06
0.01595504377570195,0.00036242053575903134,-1.4608907304435404e-06
0.015505711531263948,0.0003702857245857728,-1.2777141653573394e-06
0.015048798248092785,0.000377924352030612,-1.0906616462032432e-06
0.014585528706226515,0.0003853329337691918,-8.998473247532922e-07
0.01411708781362069,0.0003925085878991536,-7.053869443362059e-07
0.01364461200081161,0.0003994490128527617,-5.073975441482272e-07
0.013169180883050271,0.00040615246107372717,-3.059971756666049e-07
0.012691809360118161,0.0004126177086345193,-1.0130463323954328e-07
0.012213440319693828,0.00041884402105447227,1.0656079918270462e-07
0.011734938089988508,0.00042483111565689283,3.174795833605459e-07
0.011257082759162006,0.00043057912086918044,5.313321424920642e-07
0.010780565453310437,0.0004360885329222985,7.47999055939934e-07
0.010305984643761824,0.0004413601704465666,9.673612317821503e-07
0.009833843533222933,0.0004463951274908128,1.1893000562664952e-06
0.00936454854571328,0.00045119472551054685,1.413697519516835e-06
0.00889840891908702,0.00045576046487674695,1.6404363171136586e-06
0.008435637377357292,0.000460093976450858,1.8693999274455598e-06
0.0079763518477622,0.0004641969737571379,2.1004726649975587e-06
0.007520578180833971,0.0004680712062642869,2.333539710002915e-06
0.007068253820697798,0.00047171841426466986,2.5684871151351543e-06
0.006619232351882355,0.0004751402858078149,2.8052017901532755e-06
0.006173288823981185,0.00047833841610178077,3.0435714656306746e-06
0.005730125737050725,0.00048131426974203876,3.2834846370916295e-06
0.005289379562765836,0.0004840691460669929,3.5248304910438876e-06
0.004850627676476917,0.0004866041478768036,3.767498814529837e-06
0.00441339558104578,0.0004889201536911842,4.011379889921834e-06
0.003977164312971402,0.0004910177936646885,4.256364376760802e-06
0.0035413779311610073,0.0004928974292257217,4.502343182483405e-06
0.003105450996746445,0.0004945591364576985,4.74920732390426e-06
0.0026687759599010544,0.0004960026931968604,4.9968477813179e-06
0.002230730379417183,0.00049722756978169,5.245155347062537e-06
0.0017906839131655874,0.0004982329233548357,5.494020470346669e-06
0.0013480050296674746,0.0004990175955905439,5.743333100083013e-06
0.0009020673989843303,0.0004995801136977069,5.9929825274050764e-06
0.0004522559247080847,0.0004999186945286299,6.242857229461661e-06
-2.0276165173684512e-06,0.0005000312516056777,6.492844715995238e-06
-0.00046135934917350586,0.0004999154048642549,6.742831380112721e-06
-0.0009262884872052917,0.0004995684929051602,6.992702354555075e-06
-0.001397332913050353,0.0004989875875550963,7.242341374670139e-06
-0.0018749751050989904,0.0004981695105505589,7.491630649196553e-06
-0.002359658360891911,0.0004971108521840612,7.740450739880208e-06
-0.0028517832577748693,0.0004958079917793945,7.988680450871071e-06
-0.0033517042896617976,0.0004942571198925354,8.236196728789054e-06
-0.003859726621387814,0.000492454262164773,8.48287457430338e-06
-0.0043761029125646425,0.0004903953047812849,8.728586966039895e-06
-0.004901030175952856,0.0004880760215091555,8.973204797612505e-06
-0.005434646648823053,0.00048549210230296153,9.216596828565535e-06
-0.005977028672400896,0.00048263918347265556,9.458629650009439e-06
-0.0065281875938819605,0.00047951287940608487,9.699167665729124e-06
-0.007088066722609337,0.0004761088158269621,9.938073089537386e-06
-0.007656538385462921,0.000472422664549944,1.0175205959631613e-05
-0.00823340114225962,0.00046845017966801335,1.0410424170686102e-05
-0.008818377243462495,0.0004641872350715828,1.0643583524371002e-05
-0.009411110433496083,0.0004596298631523432,1.0874537798926983e-05
-0.010011164213009693,0.00045477429449071677,1.1103138838337749e-05
-0.010618020665498837,0.00044961699827108967,1.13292366615282e-05
-0.011231079927818058,0.00044415472312276045,1.1552679591876664e-05
-0.011849660348439914,0.00043838453805369594,1.1773314407170777e-05
-0.012472999345685984,0.00043230387313016445,1.1990986509966743e-05
-0.013100254958503041,0.00042591055955411717,1.2205540118137813e-05
-0.013730508069984429,0.0004192028687969953,1.241681847522559e-05
-0.01436276527152708,0.00041217955046161746,1.2624664080040244e-05
-0.014995962325490496,0.0004048398685623631,1.282891893479624e-05
-0.015628968184487602,0.0003971836359348686,1.3029424810920548e-05
-0.016260589536041273,0.00038921124650473637,1.3226023531530448e-05
-0.01688957585196145,0.00038092370515773567,1.3418557269446066e-05
-0.017514624924581397,0.0003723226549636,1.36068688594764e-05
-0.018134388869184007,0.0003634104015151586,1.3790802123596089e-05
-0.018747480568754984,0.00035418993415567386,1.3970202207513796e-05
-0.01935248053312092,0.0003446649438802049,1.4144915927022766e-05
-0.019947944135700547,0.0003348398377129995,1.4314792122421067e-05
-0.02053240917775771,0.00032471974938463497,1.4479682019195476e-05
-0.02110440371660583,0.00031431054616104406,1.4639439593081896e-05
-0.021662454084694215,0.00030361883171071903,1.4793921937549837e-05
-0.022205093022427926,0.0002926519449339385,1.4942989631711001e-05
-0.022730867847054546,0.00028141795471656785,1.5086507106623628e-05
-0.0232383485763514,0.00026992565061071636,1.5224343007955449e-05
-0.02372613591351158,0.0002581845294882506,1.535637055298019e-05
-0.02419286898442587,0.00024620477826376623,1.5482467879918194e-05
-0.024637232714020494,0.00023399725283915465,1.5602518387693923e-05
-0.025057964738599895,0.00022157345347599954,1.5716411064272712e-05
-0.02545386176622658,0.00020894549684979293,1.582404080185416e-05
-0.025823785309517615,0.00019612608508085688,1.592530869733682e-05
-0.026166666728869456,0.0001831284720712601,1.6020122336624852e-05
-0.026481511544145183,0.00016996642750300646,1.610839606151842e-05
-0.02676740299318334,0.00015665419886867432,1.619005121811134e-05
-0.02702350482462529,0.00014320647191422216,1.6265016385807063e-05
-0.027249063307240716,0.00012963832988125565,1.6333227586255933e-05
-0.027443408427764795,0.00011596521194750427,1.6394628471713123e-05
-0.027605954246441126,0.00010220287127895279,1.6449170492519738e-05
-0.027736198390159113,8.836733311980273e-05,1.6496813043619425e-05
-0.027833720687569063,7.447485335037068e-05,1.6537523590236968e-05
-0.02789818098704942,6.0541877931716056e-05,1.657127777305749e-05
-0.027929316239416933,4.658500362509947e-05,1.6598059493446695e-05
-0.027926936959383728,3.26209403253993e-05,1.661786097943432e-05
-0.02789092319269581,1.8666475287379414e-05,1.6630682833337516e-05
-0.02782122011063707,4.738439461546193e-06,1.663653406202475e-05
-0.027717833341208017,-9.146323901415079e-06,1.663543209091478e-05
-0.027580824139409085,-2.2970988271569356e-05,1.6627402762871535e-05
-0.027410304501190065,-3.6718770431719144e-05,1.6612480323195713e-05
-0.02720643233048618,-5.0372954639638205e-05,1.6590707391927873e-05
-0.02696940677155507,-6.391691441514852e-05,1.6562134924664176e-05
-0.026699463821946236,-7.733413206352384e-05,1.6526822163044507e-05
-0.026396872343554176,-9.060821610489895e-05,1.64848365760024e-05
-0.026061930581263028,-0.00010372291683610325,1.643625379276715e-05
-0.025694963274608087,-0.00011666214030007103,1.6381157528483108e-05
-0.02529631941172055,-0.0001294099609716532,1.6319639503165176e-05
-0.024866370635418585,-0.00014195063348343797,1.6251799354551403e-05
-0.024405510275880917,-0.00015426860371126283,1.617774454525273e-05
-0.02391415295532617,-0.0001663485195190646,1.609759026444515e-05
-0.02339273468713899,-0.0001781752414296809,1.601145932420796e-05
-0.022841713377736945,-0.00018973385344589987,1.5919482050489066e-05
-0.022261569640300054,-0.0002010096742004091,1.5821796168577487e-05
-0.02165280784573143,-0.000211988268571917,1.5718546682884404e-05
-0.0210159573604655,-0.00022265545987346623,1.5609885750773057e-05
-0.020351573943466,-0.0002329973426994491,1.549597255012983e-05
-0.019660241289024306,-0.00024300029650757167,1.5376973140328075e-05
-0.018942572703744845,-0.00025265100000576395,1.525306031619974e-05
-0.01819921289730682,-0.0002619364464060269,1.5124413454596793e-05
-0.017430839855746377,-0.0002708439595942902,1.4991218353096715e-05
-0.016638166758550763,-0.00027936121124786447,1.4853667060386176e-05
-0.015821943895533475,-0.0002874762389113855,1.4711957697846364e-05
-0.014982960535218205,-0.0002951774650190734,1.4566294271863749e-05
-0.014122046696866529,-0.0003024537168270946,1.4416886476402206e-05
-0.01324007478403286,-0.0003092942471973194,1.4263949485396103e-05
-0.012337961041605394,-0.000315688756153729,1.4107703734558341e-05
-0.01141666679317297,-0.00032162741311242356,1.3948374692241804e-05
-0.010477199401778308,-0.0003271008796611614,1.3786192619048407e-05
-0.009520612881657012,-0.0003321003327320202,1.362139231595011e-05
-0.008548008077326405,-0.00033661748797176607,1.3454212860774165e-05
-0.007560532321483197,-0.00034064462307146847,1.3284897333013357e-05
-0.006559378484038144,-0.00034417460077284883,1.3113692527052278e-05
-0.005545783332270234,-0.0003472008912269259,1.2940848654052334e-05
-0.004521025140038582,-0.0003497175933450031,1.2766619032909352e-05
-0.0034864205144778944,-0.00035171945475863224,1.2591259770883444e-05
-0.0024433204480714746,-0.0003532018899992696,1.2415029434693968e-05
-0.0013931056436075164,-0.0003541609965221893,1.2238188713063604e-05
-0.0003371811889753649,-0.000354593568230335,1.2061000071875472e-05
0.0007230293245485943,-0.00035449710619644173,1.1883727403268778e-05
0.0017860901377996037,-0.0003538698263308547,1.1706635670136953e-05
0.0028505600058541998,-0.0003527106637949412,1.1529990547605503e-05
0.003914999121893964,-0.0003510192740130042,1.1354058063153517e-05
0.004977976187068151,-0.0003487960301857636,1.1179104237103824e-05
0.006038075539593511,-0.00034604201725409823,1.1005394725243858e-05
0.00709390425610892,-0.0003427590223051726,1.083319446535404e-05
0.00814409912734088,-0.00033894952145931015,1.066276732941292e-05
0.009187333395699614,-0.00033461666332855,1.0494375783215954e-05
0.010222323134069625,-0.0003297642491961077,1.032828055508479e-05
0.011247833148635939,-0.0003243967101254313,1.0164740315254405e-05
0.01226268230607075,-0.0003185190812617546,1.0004011367407608e-05
0.01326574821201256,-0.0003121369736322338,9.84634735368411e-06
0.014255971192998432,-0.000305256543780981,9.691998974330807e-06
0.015232357549813348,-0.00029788446159527806,9.541213722986742e-06
0.01619398205783049,-0.0002900278766933671,9.394235638414582e-06
0.017139989694754776,-0.0002816943837552208,9.251305073302434e-06
0.018069596581583018,-0.0002728919871861363,9.112658480567094e-06
0.018982090129201615,-0.0002636290655084402,8.97852821739345e-06
0.019876828391063153,-0.000253914335878374,8.849142367046745e-06
0.020753238632373085,-0.00024375681912251494,8.724724578296522e-06
0.021610815141064627,-0.00023316580567915552,8.605493922096104e-06
0.022449116328108688,-0.0002221508228118622,8.49166476497335e-06
0.023267761189983728,-0.0002107216034323391,8.383446658412299e-06
0.024066425228801272,-0.00019888805682764284,8.281044243347303e-06
0.024844835943957498,-0.00018666024153445314,8.18465716875678e-06
