frame_number,force
0,510.3588600000265
1,510.4589331364996
2,510.54916614447586
3,510.6206742821595
4,510.6664023552561
5,510.68183557016476
6,510.6654681310981
7,510.6189688832889
8,510.5470230677509
9,510.4568756703339
10,510.35762885189666
11,510.2593509752149
12,510.1720636407471
13,510.10470121651866
14,510.06416704503886
15,510.0546139604673
16,510.0770441446724
17,510.1292685917886
18,510.2062129614843
19,510.3005168865879
20,510.4033442931596
21,510.50529840801664
22,510.59732214465026
23,510.67147094427594
24,510.721475367392
25,510.74306291534447
26,510.7340662002702
27,510.69437960842623
28,510.62582569851037
29,510.53196814164306
30,510.4178775970387
31,510.2898317209197
32,510.15492272359376
33,510.0205627597151
34,509.89390999673526
35,509.7812721228941
36,509.6875708941576
37,509.61596134157134
38,509.5676812416872
39,509.5421596076999
40,509.5373499086231
41,509.5501966684459
42,509.5771190032134
43,509.614415314086
44,509.65854622944534
45,509.70630616719694
46,509.7549250603324
47,509.80214801012846
48,509.8463240551436
49,509.88650077149344
50,509.92249039464104
51,509.95487016348306
52,509.9849010820345
53,510.01436693835427
54,510.04533252536834
55,510.07981103235426
56,510.11934058707453
57,510.1645042306686
58,510.21447034221916
59,510.26666183215934
60,510.3166651293916
61,510.35845448287773
62,510.38494232895323
63,510.38879600835554
64,510.36340539106135
65,510.30385441838314
66,510.2077432558845
67,510.0757243934475
68,509.91165489449025
69,509.7223256260137
70,509.5167971238715
71,509.3054378975688
72,509.0988117699802
73,508.9065829046398
74,508.73659163997667
75,508.5942069710571
76,508.4820055154161
77,508.39978476012374
78,508.344888330052
79,508.3127845959619
80,508.2977980222273
81,508.2938705604462
82,508.29524545048224
83,508.297008142906
84,508.29546327093794
85,508.2883517015305
86,508.274913691414
87,508.25579692317007
88,508.2328124821432
89,508.20856594863824
90,508.1860210080444
91,508.1680704367986
92,508.1571878675554
93,508.1552135445201
94,508.1632889453941
95,508.1819109413848
96,508.2110488770596
97,508.2502676465936
98,508.2988161071126
99,508.35566352363503
100,508.41949739848764
101,508.48872319655976
102,508.56150547633735
103,508.6358547328135
104,508.7097229897958
105,508.78105874645775
106,508.8477978544646
107,508.90781268720445
108,508.9588791579944
109,508.99872812192206
110,509.0252184668629
111,509.03661730536453
112,509.03192366989765
113,509.0111473235195
114,508.9754612061811
115,508.9271775568393
116,508.8695381249301
117,508.80634782659746
118,508.7415192635525
119,508.6786271874503
120,508.6205765478355
121,508.56945129791546
122,508.5265469000414
123,508.4925291375857
124,508.46763460712646
125,508.4518435267299
126,508.444996022957
127,508.44686028260935
128,508.45717790311784
129,508.47570672712
130,508.5022599653958
131,508.5367143473322
132,508.578948187436
133,508.62868920120167
134,508.6852990173584
135,508.74756960199875
136,508.81362554930956
137,508.88100467866695
138,508.946937120458
139,509.0087780266576
140,509.0644913333005
141,509.11305230254044
142,509.15465132373185
143,509.1906399409704
144,509.22323788573846
145,509.2550843028258
146,509.28874515750806
147,509.32627634597134
148,509.3689013300981
149,509.41681922376216
150,509.46913539216524
151,509.5239068501846
152,509.57830863885
153,509.62893391796155
154,509.6722236685702
155,509.7049867521632
156,509.7249356264535
157,509.73114035436646
158,509.72430329811505
159,509.70678912111924
160,509.6824041023398
161,509.6559747624946
162,509.63279678502846
163,509.61801171436736
164,509.61595225781934
165,509.6295043249637
166,509.6595629285675
167,509.704687734531
168,509.76106980003345
169,509.82288455096995
170,509.8830205654415
171,509.9340666352731
172,509.96936307532343
173,509.9839121385246
174,509.97499490668264
175,509.9424325518859
176,509.8885215169203
177,509.8177281527453
178,509.7362298616163
179,509.6513520722346
180,509.57091822896604
181,509.50253809524946
182,509.4528952454729
183,509.4271175442501
184,509.42830678135965
185,509.4572784061236
186,509.51253484605127
187,509.59046988386217
188,509.68577666791657
189,509.79200896953705
190,509.9022273310462
191,510.00965488283305
192,510.10827355513214
193,510.19330264018487
194,510.261513581208
195,510.3113529642939
196,510.3428723081104
197,510.35749067385876
198,510.3576364090547
199,510.3463236524942
200,510.3267153925811
201,510.3017116337411
202,510.27359173177746
203,510.2437462233453
204,510.21254889153454
205,510.17941829516155
206,510.1430804595445
207,510.1019856918044
208,510.0547896232581
209,510.0008015572249
210,509.94032067566167
211,509.8748022343213
212,509.80681488058815
213,509.7397772630451
214,509.6775081493602
215,509.6236775337623
216,509.5812762681762
217,509.55221089198886
218,509.5370900219511
219,509.5352228201399
220,509.5448109454026
221,509.563282694503
222,509.58769678524214
223,509.6151453759956
224,509.6431080575355
225,509.66972683729983
226,509.69397374427444
227,509.7156861594239
228,509.7354704761216
229,509.7545100665641
230,509.7743307444173
231,509.796567137312
232,509.82275023319875
233,509.8541196635642
234,509.8914660432429
235,509.9350194082992
236,509.9843954838256
237,510.03859030027223
238,510.0960060819791
239,510.15451454241577
240,510.2115896470764
241,510.26453303066387
242,510.3107726195645
243,510.34817122915274
244,510.3752635559176
245,510.39135398650694
246,510.39644868927786
247,510.391049013898
248,510.3758781616746
249,510.35163119925795
250,510.31882296769777
251,510.27776643940473
252,510.228665216472
253,510.17177204978833
254,510.1075622552125
255,510.0368860290322
256,509.96107429795893
257,509.881968058737
258,509.8018365750011
259,509.7231710230621
260,509.6483881337068
261,509.5795231713006
262,509.51800542039723
263,509.46458656187843
264,509.4194404171164
265,509.3823892825571
266,509.3531658416732
267,509.33161161672734
268,509.31774414437706
269,509.3116798738073
270,509.3134489886194
271,509.3227571237599
272,509.338746222475
273,509.359810649897
274,509.3835338231947
275,509.4067932927934
276,509.42602728583034
277,509.4375969487525
278,509.438159599642
279,509.4249958563444
280,509.3962723804609
281,509.35123651519706
282,509.2903318281767
283,509.21522234995194
284,509.1287279183194
285,509.0346866688348
286,508.9377588319782
287,508.8431721348003
288,508.75639674214125
289,508.6827388809922
290,508.62686137444786
291,508.59227380479206
292,508.58087726209664
293,508.5926777386316
294,508.62576466165865
295,508.6765746506846
296,508.7403676890816
297,508.8117988068714
298,508.8854894017971
299,508.95654214155377
300,509.0209558574556
301,509.07588532297433
302,509.1196900856267
303,509.151751489516
304,509.17210335360676
305,509.1809873728631
306,509.17847043119156
307,509.16423318291686
308,509.13757473095575
309,509.0976076761355
310,509.04356903728456
311,508.9751603128445
312,508.8928490683469
313,508.7980955218442
314,508.69349119165224
315,508.5828032142055
316,508.47091104987305
317,508.363615248349
318,508.26730570945455
319,508.18850635885644
320,508.13335237837174
321,508.1070756228292
322,508.11355507093276
323,508.1549516276036
324,508.23142765666705
325,508.3409627814912
326,508.4793007502256
327,508.64007625043126
328,508.8151620332614
329,508.99524335692854
330,509.1705808138078
331,509.3318773523217
332,509.47112687214434
333,509.5823058089015
334,509.66180051840877
335,509.7085386338228
336,509.72386532844524
337,509.7112320725481
338,509.67575221115425
339,509.6236616578195
340,509.56172523558683
341,509.4966457860393
342,509.4345498985808
343,509.3806209278178
344,509.3389151199128
345,509.31234640972104
346,509.3027880850176
347,509.31122638332727
348,509.3379101222052
349,509.3824663601553
350,509.44397914350066
351,509.5210379886126
352,509.61175863205614
353,509.7137851541868
354,509.82430729484145
355,509.9401411222532
356,510.057895768441
357,510.1741956938389
358,510.28589080684515
359,510.3901951756372
360,510.48473705564146
361,510.5675425406766
362,510.63698985502134
363,510.69176769378316
364,510.7308661650347
365,510.75362760193934
366,510.759876550711
367,510.75011954973843
368,510.7257557643387
369,510.68919517473495
370,510.64377835439774
371,510.5934456392051
372,510.5421949983069
373,510.4934568650198
374,510.4495561051974
375,510.4114019116044
376,510.3784632073834
377,510.348999388787
378,510.320466428748
379,510.290012099265
380,510.2549844071156
381,510.21337800396617
382,510.164137243126
383,510.1072488321916
384,510.04361021470646
385,509.9747323510299
386,509.90238055643766
387,509.82825023168436
388,509.75374011211034
389,509.6798584748356
390,509.60727522034307
391,509.5364929865742
392,509.4680628451257
393,509.4027536431065
394,509.3416149681764
395,509.2859254626798
396,509.237055540117
397,509.19628491518534
398,509.1646114916873
399,509.1425824225262
400,509.1301720768262
401,509.1267200349687
402,509.1309270757164
403,509.1408966561006
404,509.1542087947265
405,509.1680221945677
406,509.1792097485033
407,509.18452735724236
408,509.1807964395812
409,509.1650690411708
410,509.13475786841826
411,509.0877407441714
412,509.022466225144
413,508.9380822315382
414,508.83458378763055
415,508.71294087778074
416,508.5751477041653
417,508.42415243727237
418,508.2636718175055
419,508.0979311408522
420,507.93137666564974
421,507.76839733859964
422,507.61308586039013
423,507.46906806041795
424,507.33942366065946
425,507.22670135997345
426,507.1329992296498
427,507.0600535194032
428,507.0092721478965
429,506.9816681558405
430,506.97768532779963
431,506.9969497462032
432,507.03801578756764
433,507.098195178728
434,507.17355324164953
435,507.2591186494454
436,507.3492915214592
437,507.43837911106914
438,507.52116382506637
439,507.5934173339854
440,507.65230463992737
441,507.69665631971503
442,507.72710510624216
443,507.7460736170104
444,507.7575819282078
445,507.7668492747761
446,507.779701532887
447,507.8018431911566
448,507.8380864144789
449,507.89164728463334
450,507.9636257287144
451,508.0527744383235
452,508.15561765234946
453,508.2669037923079
454,508.38029760720104
455,508.4891787831079
456,508.5874254200257
457,508.6700901041672
458,508.7338912288583
459,508.77745067207127
460,508.80123851506426
461,508.80724246855704
462,508.7984449967911
463,508.7782376359927
464,508.74990419338445
465,508.7162532071926
466,508.6794026769173
467,508.64066954159347
468,508.60052423183635
469,508.5586172621288
470,508.5139204260436
471,508.4650146297703
472,508.4105042415572
473,508.3494783434081
474,508.2819090759941
475,508.20889139113507
476,508.13267586319364
477,508.0565044024896
478,507.98430533574185
479,507.9203205205895
480,507.8687220808225
481,507.8332540102962
482,507.81692757164194
483,507.821804786997
484,507.8488987946624
485,507.89819262896555
486,507.96874354009856
487,508.05882286956097
488,508.166052183985
489,508.2875229706977
490,508.419909079248
491,508.5595883421559
492,508.7027870070843
493,508.8457545546977
494,508.9849669990566
495,509.1173410279069
496,509.2404254514585
497,509.35253603509744
498,509.45282009355674
499,509.54125935527645
500,509.6186212469664
501,509.6863543504048
502,509.74641901238965
503,509.8010615253455
504,509.8525658624857
505,509.90302781365216
506,509.9541791369842
507,510.007252178536
508,510.06285219859603
509,510.12082413119606
510,510.1801461977979
511,510.2389105363489
512,510.2944412251513
513,510.34356521976173
514,510.3830056155531
515,510.40981932217494
516,510.4217758188544
517,510.41759461700644
518,510.3970205314286
519,510.36078121091805
520,510.3105030541319
521,510.24864577659554
522,510.17846900517975
523,510.10399984919053
524,510.0299509872043
525,509.96154086327095
526,509.90417783270146
527,509.8629920088016
528,509.842248338999
529,509.844745062615
530,509.8713480095677
531,509.92078923680424
532,509.98977489053834
533,510.07335569313955
534,510.1654630373573
535,510.25951036291156
536,510.3489806293507
537,510.42794798884233
538,510.49150525302804
539,510.53607656305564
540,510.5595854016126
541,510.56144580613636
542,510.54237544508027
543,510.5040811673275
544,510.44889754392665
545,510.37944579476175
546,510.29834863485394
547,510.20801660750845
548,510.11051478172726
549,510.0075124324343
550,509.9003103628335
551,509.78993601693975
552,509.67729576864025
553,509.56337099124465
554,509.4494342913471
555,509.33724923990974
556,509.22921219440263
557,509.12839811630863
558,509.0384777667127
559,508.9634929539435
560,508.9075213822018
561,508.87430739401697
562,508.8669355182632
563,508.88757610524533
564,508.9372802753363
565,509.0157848954753
566,509.12130991327285
567,509.25037290408926
568,509.39768940318316
569,509.5562460121376
570,509.71760594892083
571,509.87244448014684
572,510.0112497331226
573,510.12509111361004
574,510.2063594970678
575,510.24941011292276
576,510.2510693245459
577,510.2109781560377
578,510.1317348048455
579,510.01878655050524
580,509.88003392305967
581,509.72515562104047
582,509.56472906128835
583,509.409278755033
584,509.2684012061468
585,509.1500831552295
586,509.06027291453256
587,509.0027104416779
588,508.978979079622
589,508.9887060400191
590,509.029814745873
591,509.09873697555076
592,509.1905368345984
593,509.29897176402
594,509.41658531891926
595,509.5349502997973
596,509.6451400227152
597,509.73842412788684
598,509.8071056114716
599,509.84536156987014
600,509.84992570927614
601,509.8204600951838
602,509.7595149339183
603,509.6720669825465
604,509.56473438688397
605,509.44484291914375
606,509.3195290998663
607,509.1950119015097
608,509.0760866862308
609,508.9658402914136
610,508.86557623830424
611,508.77495546120076
612,508.69235958831626
613,508.6154433080274
614,508.54177346846956
615,508.4694035486986
616,508.3972450943933
617,508.3251707738547
618,508.2538767709531
619,508.18460311772276
620,508.11883459536733
621,508.0580734888353
622,508.00370552613924
623,507.9569193651478
624,507.9186321083672
625,507.8894150730908
626,507.8694575822251
627,507.85860599631104
628,507.85646958621294
629,507.8625383823028
630,507.8762558921537
631,507.8970339565079
632,507.92424912054076
633,507.9572782352419
634,507.9956050858795
635,508.03897862699944
636,508.0875549993276
637,508.14193870628696
638,508.2030722297496
639,508.2719919896214
640,508.3495224311056
641,508.43598439471174
642,508.53096423735093
643,508.63316555616484
644,508.74036031766553
645,508.84945652890184
646,508.9566941377473
647,509.0579709549665
648,509.14928190438604
649,509.22722101607235
650,509.2894612942106
651,509.3351218617818
652,509.36495937745093
653,509.381356459754
654,509.3881016279308
655,509.3899645008264
656,509.3920834722944
657,509.3992156127449
658,509.4149475881843
659,509.4410087664342
660,509.4768365334188
661,509.5195088988982
662,509.56408823566005
663,509.6043287440871
664,509.6336147455556
665,509.64595150315523
666,509.6368455847011
667,509.6039712973448
668,509.54757989590985
669,509.4706363289896
670,509.3786687685473
671,509.2793214647219
672,509.1816351619675
673,509.09512977623274
674,509.0288015272378
675,508.9901591278587
676,508.98441822532993
677,509.0139542180115
678,509.07807978035623
679,509.1731698968748
680,509.29311109085063
681,509.4300058609495
682,509.57502549189053
683,509.7192881411027
684,509.8546480269585
685,509.97430608313675
686,510.0731886698708
687,510.14808988322164
688,510.19761949798095
689,510.2220191379206
690,510.22290406594266
691,510.20297943274795
692,510.1657766310902
693,510.1154395408814
694,510.0565483872757
695,509.99392399068404
696,509.9323512115552
697,509.8762095752337
698,509.82906355706604
699,509.7932990397761
700,509.76988488464565
701,509.75830734323836
702,509.75669052501877
703,509.7620883354075
704,509.7709126723793
705,509.7794465508889
706,509.78437823594305
707,509.78328382690086
708,509.7749834258681
709,509.7597050094655
710,509.73901543445703
711,509.7155206169905
712,509.69238770133063
713,509.6727828751438
714,509.65933497588424
715,509.653722675467
716,509.6564442244458
717,509.6667758421597
718,509.6828802092517
719,509.70200661814505
720,509.72072904001897
721,509.73519047243116
722,509.74135385566984
723,509.7352848579134
724,509.7134862710028
725,509.6732637085526
726,509.61305830077237
727,509.5326712893566
728,509.43333473710373
729,509.317628308327
730,509.1892756877397
731,509.0528626302455
732,508.9135098187064
733,508.7765247182683
734,508.6470539951778
735,508.52975650265137
736,508.42851494421797
737,508.34620645738613
738,508.28455652608915
739,508.24409933674184
740,508.22425707883934
741,508.2235310023033
742,508.2397721165135
743,508.27047881662696
744,508.313063817649
745,508.36504892203004
746,508.4241767805929
747,508.48845598688473
748,508.55616400518255
749,508.62582522125786
750,508.69617686285085
751,508.76614099542377
752,508.83482212712937
753,508.90153207367285
754,508.96581398423484
755,509.0274206493396
756,509.08621637132825
757,509.1420117794756
758,509.19438206034886
759,509.24253568349593
760,509.2852866675423
761,509.3211499510604
762,509.3485421436165
763,509.36604524834564
764,509.3726875308646
765,509.36820348155874
766,509.3532392194241
767,509.329470484384
768,509.2996026676469
769,509.267227201139
770,509.2365226923451
771,509.21182116302157
772,509.1971016001892
773,509.1955026341005
774,509.20894772795384
775,509.2379472783902
776,509.28159113277945
777,509.3376950963671
778,509.4030441093104
779,509.4736885610577
780,509.5452730465501
781,509.6133825456745
782,509.6738815719425
783,509.7232160769317
784,509.75865291029316
785,509.7784389914012
786,509.781867255034
787,509.7692450097189
788,509.7417749623192
789,509.70137227435936
790,509.65044968081804
791,509.59171214735403
792,509.52800738226983
793,509.4622594235432
794,509.3974642935448
795,509.3366758798485
796,509.2828942792131
797,509.238805787255
798,509.20640052085133
799,509.18657128458716
800,509.1788288494434
801,509.18123316099843
802,509.19056557392577
803,509.2027070527122
804,509.2131636944642
805,509.217672462955
806,509.2128042907651
807,509.1964656163686
808,509.1682039149716
809,509.1292594992156
810,509.0823674784778
811,509.03137269646396
812,508.98074726384783
813,508.9350923393919
814,508.8986859330198
815,508.8751246543344
816,508.8670954704765
817,508.8762904938296
818,508.90344326459245
819,508.94843714379465
820,509.01043518868994
821,509.0880045348037
822,509.17923335570134
823,509.2818484690139
824,509.3933418416594
825,509.5111097807696
826,509.63259349945514
827,509.7553892492317
828,509.87729315784804
829,509.996270090598
830,510.11036719603345
831,510.21760753540235
832,510.31589808595703
833,510.4029858635702
834,510.4764983919699
835,510.5340920735703
836,510.5736947136716
837,510.59378716742606
838,510.5936516753022
839,510.5735265924426
840,510.5346376959471
841,510.4791113966762
842,510.40980016635126
843,510.33005689198484
844,510.24348971040587
845,510.1537222546332
846,510.064176223999
847,509.97788573916256
848,509.89735802742786
849,509.82451220831615
850,509.7607299652322
851,509.70701466112143
852,509.6641946941539
853,509.6330679324216
854,509.6144010567319
855,509.6087669315806
856,509.6162853182196
857,509.6363781814414
858,509.6676365236078
859,509.70783757451466
860,509.75408933324036
861,509.80304697123546
862,509.85114782100476
863,509.8948289552283
864,509.9307040640469
865,509.95568388742913
866,509.9670367224457
867,509.9624065208492
868,509.9398280957718
869,509.8977839611527
870,509.8353237637351
871,509.7522306356149
872,509.64919845877375
873,509.52798719778826
874,509.3915302963667
875,509.24396298994185
876,509.09052955193096
877,508.9373255289032
878,508.7908483690568
879,508.65737249320523
880,508.5422255659618
881,508.44909458317505
882,508.37950554704156
883,508.3325931027936
884,508.3052204184233
885,508.2924410997866
886,508.288227038215
887,508.2863363715043
888,508.28118253639286
889,508.2685865790858
890,508.24632728728625
891,508.2144326099095
892,508.1751851322597
893,508.13284610989945
894,508.0931322771374
895,508.0625065849455
896,508.0473651277118
897,508.0532121977593
898,508.0839188416105
