frame_number,force
0,506.13169000003353
1,505.90994458432704
2,505.69801751410813
3,505.50514151835347
4,505.3394292042548
5,505.20741493663775
6,505.11367229298054
7,505.06050185761467
8,505.0477008228737
9,505.07245130084283
10,505.12938584406146
11,505.21089074651337
12,505.3076760346123
13,505.4095800483836
14,505.50651127205526
15,505.5893875936754
16,505.6509306963534
17,505.68621628608366
18,505.69295100280857
19,505.6715037992992
20,505.6247372328976
21,505.55767359098917
22,505.47701717611545
23,505.3905499255073
24,505.30642700111093
25,505.232427124936
26,505.1752539600571
27,505.1400121028499
28,505.1299600484209
29,505.1465672461269
30,505.1898110517806
31,505.2585942996608
32,505.3511657748266
33,505.4654613213833
34,505.59932096081826
35,505.75056770194425
36,505.91696232412886
37,506.0960779413296
38,506.28516461517825
39,506.481086266689
40,506.6803943845282
41,506.87955250304645
42,507.07526228764715
43,507.2647989240006
44,507.4462590316099
45,507.61865106260785
46,507.78180172113247
47,507.93610496520085
48,508.082187994375
49,508.2205872630576
50,508.35150800544676
51,508.474698769722
52,508.5894310049228
53,508.69454904229366
54,508.78855728646334
55,508.86973411314557
56,508.9362776968408
57,508.98647338925946
58,509.0188437330467
59,509.03224247822715
60,509.02589045591833
61,508.99938991311325
62,508.95276587580304
63,508.8865676474334
64,508.8020293246446
65,508.7012406346643
66,508.5872354238213
67,508.4638976000898
68,508.3356323695711
69,508.2068344997006
70,508.08126385038565
71,507.96148063417246
72,507.84848692377335
73,507.7416710359075
74,507.6390763457959
75,507.5379394562762
76,507.4353822130033
77,507.32910970850213
78,507.2179695986874
79,507.1022670080592
80,506.9837964757579
81,506.86563077162003
82,506.75176641644595
83,506.6467388234354
84,506.5552848119484
85,506.48207510315484
86,506.431495467866
87,506.4074360885868
88,506.41305302470124
89,506.4504876800569
90,506.52056384227257
91,506.62251746820436
92,506.75383439529253
93,506.91025784931503
94,507.0859843427897
95,507.27402245636074
96,507.4666675525908
97,507.6560384772052
98,507.8346117497863
99,507.99568107232795
100,508.13368587432166
101,508.2443912043715
102,508.3249379934332
103,508.3738010406508
104,508.3906964998099
105,508.3764775780308
106,508.3330430694199
107,508.2632545536567
108,508.1708235439535
109,508.06011377231016
110,507.9358270652458
111,507.80259486304664
112,507.6645472551747
113,507.52495073776197
114,507.38598967277585
115,507.24872118880296
116,507.1131758975827
117,506.9785389124595
118,506.84335179701543
119,506.7057145922598
120,506.56350279741207
121,506.41462557651033
122,506.2573366775933
123,506.0905719159797
124,505.91424059690564
125,505.7293748586442
126,505.5380684781679
127,505.34320916356097
128,505.14808374693195
129,504.9559674002882
130,504.76978459861994
131,504.5918818949389
132,504.42391664723795
133,504.2668478484456
134,504.12100249121823
135,503.986182422146
136,503.86178231973963
137,503.7469068493018
138,503.64048960436537
139,503.54142295495404
140,503.44871063855953
141,503.36164829738664
142,503.28001134736587
143,503.2041955981638
144,503.1352435183698
145,503.07471602933487
146,503.0244241199763
147,502.9860824729564
148,502.9609613590608
149,502.94959841213773
150,502.9516138178908
151,502.96565930011064
152,502.9895138982214
153,503.02032059316315
154,503.0549451417575
155,503.0904208102751
156,503.1244110264684
157,503.1555955095855
158,503.1838879359609
159,503.2104267495562
160,503.23733302589386
161,503.26728286523496
162,503.3029798048652
163,503.34662962677555
164,503.3995166660796
165,503.461754461115
166,503.532236859822
167,503.6087647127829
168,503.6882880206764
169,503.76719686619117
170,503.84161548111155
171,503.9076811214746
172,503.96179546171976
173,504.0008189506686
174,504.0221690834969
175,504.02381079239905
176,504.0041809415924
177,503.96212469419504
178,503.8969052489483
179,503.808295141505
180,503.69671347950856
181,503.56336180556724
182,503.41031319223237
183,503.24050476581544
184,503.057583469895
185,502.86558080985196
186,502.6684477288996
187,502.46954304813363
188,502.2712015441901
189,502.0744849323885
190,501.87915345035617
191,501.68383313782334
192,501.4863286156951
193,501.2840362923115
194,501.07441944679107
195,500.8554982098672
196,500.6262910330041
197,500.3871388307234
198,500.13986245342903
199,499.8877439126013
200,499.63536207527756
201,499.3883351815145
202,499.1530171385194
203,498.93616986818057
204,498.7446127844296
205,498.58484967262734
206,498.4626856783836
207,498.3828574740055
208,498.3487070608077
209,498.3619379007196
210,498.4224941370201
211,498.5285938364726
212,498.6769296183438
213,498.863024750222
214,499.08169867518944
215,499.32756822978064
216,499.59550717466277
217,499.8810030971343
218,500.18037441013934
219,500.4908407313371
220,500.8104766423049
221,501.13810266484023
222,501.4731573225233
223,501.8155542859529
224,502.16548883076274
225,502.5231522286494
226,502.88835162137974
227,503.26009295158366
228,503.6362298413524
229,504.013290559432
230,504.3865639625981
231,504.75046021445405
232,505.0990853141456
233,505.42691332544445
234,505.72942846065524
235,506.00363419153786
236,506.2483634029701
237,506.46435626170035
238,506.6541047385983
239,506.8214999187225
240,506.9713497431737
241,507.1088437823893
242,507.23902792013035
243,507.3663355003961
244,507.4942173959089
245,507.6249123756053
246,507.75938428394136
247,507.8974219826598
248,508.03786341957016
249,508.1788827949615
250,508.318281504435
251,508.4537423401604
252,508.5830205234787
253,508.70404826870464
254,508.8149397009126
255,508.9139122822899
256,508.99917737316997
257,509.06887505737143
258,509.12112245785715
259,509.154205092984
260,509.1668770593278
261,509.1586785865324
262,509.13016474417196
263,509.0829761209403
264,509.01974218188286
265,508.943851312277
266,508.8591334563465
267,508.7694942283429
268,508.67853119669917
269,508.58916079773564
270,508.50328479702915
271,508.4215250223034
272,508.3430570491222
273,508.2655803143695
274,508.18546789480973
275,508.09813039075607
276,507.99859360447505
277,507.8822345898228
278,507.74557051573703
279,507.58697246241917
280,507.4071825990187
281,507.2095378948044
282,506.99984374774374
283,506.7858983543374
284,506.57673470408247
285,506.3816999963391
286,506.2095114409233
287,506.06740910094527
288,505.9604851698579
289,505.89122730062746
290,505.85928973034123
291,505.8615044486459
292,505.89215093644873
293,505.9434906727276
294,506.00652880594794
295,506.0719098912931
296,506.1308203077667
297,506.1757704940271
298,506.2011599878974
299,506.20357848366115
300,506.1818530937105
301,506.1368931242291
302,506.0713917517403
303,505.9894282458709
304,505.8960040436999
305,505.7965547612133
306,505.6964917374977
307,505.6008203703637
308,505.51385749281883
309,505.4390431259821
310,505.37883238724146
311,505.3346637427388
312,505.3070094877335
313,505.29550278907004
314,505.29911018512377
315,505.31630631563866
316,505.3452223267714
317,505.3837685727374
318,505.42975839109215
319,505.48107072288286
320,505.5358697889229
321,505.5928485089296
322,505.65141802940616
323,505.71177573509954
324,505.77483990738955
325,505.8420812493039
326,505.91527434148526
327,505.9961639341606
328,506.08603965344787
329,506.1852502894517
330,506.2927400528555
331,506.4057221673066
332,506.5196021008674
333,506.62822192452956
334,506.7244310733324
335,506.8009207042104
336,506.8512076258238
337,506.87061955951833
338,506.8571138383459
339,506.81177089368674
340,506.73885708261247
341,506.64543864184515
342,506.54061836633525
343,506.4345281363845
344,506.3372303923125
345,506.25766894678617
346,506.202783199835
347,506.1768712840152
348,506.18125757279915
349,506.2142845395782
350,506.2716049157444
351,506.34670653682747
352,506.43158222600096
353,506.5174702617676
354,506.59561703739524
355,506.6580248101953
356,506.698134998353
357,506.7113736776492
358,506.69547598014134
359,506.65053135600533
360,506.5787479513641
361,506.48399293680114
362,506.3712030054764
363,506.2457744172398
364,506.1130382996102
365,505.9778965925155
366,505.84463473515774
367,505.71686357518183
368,505.59751506170835
369,505.4888402187087
370,505.3924049525498
371,505.3091070781787
372,505.23923542845716
373,505.1825766927053
374,505.13856128949936
375,505.10642487444903
376,505.085346019349
377,505.07451578838766
378,505.0731161429892
379,505.08022194697975
380,505.09466686639564
381,505.1149137655565
382,505.1389576604551
383,505.16427714758646
384,505.18784139985416
385,505.20617700883804
386,505.21550661119824
387,505.21198196468697
388,505.192027707146
389,505.1527803089814
390,505.0925649380981
391,505.0113184113504
392,504.91084893558286
393,504.7948373342352
394,504.6685397685513
395,504.53823053092214
396,504.41048717446137
397,504.2914419658015
398,504.1861027582119
399,504.09780435497595
400,504.02781830706414
401,503.9751407552989
402,503.93648227621725
403,503.90647851448574
404,503.8781219853068
405,503.84339740506294
406,503.79408912948105
407,503.72270477813294
408,503.62341754245824
409,503.49289479766014
410,503.3308808913179
411,503.14043711792925
412,502.92779422404965
413,502.7018322002002
414,502.47326247944676
415,502.253635352313
416,502.0543139585863
417,501.88553863242396
418,501.7556617532002
419,501.6705866292791
420,501.6334141342831
421,501.64429090700514
422,501.7004532033626
423,501.79645995191083
424,501.9245991183519
425,502.0754333781362
426,502.2384371890746
427,502.4026779682521
428,502.5575025640824
429,502.6931962099318
430,502.8015852767874
431,502.87656094513613
432,502.9145064996346
433,502.9146126937154
434,502.87905955944103
435,502.8130272997617
436,502.7244842456906
437,502.6237078345345
438,502.5225340385476
439,502.43338430821564
440,502.3681629881341
441,502.3371455525953
442,502.34799276344324
443,502.40502317664254
444,502.5088456298342
445,502.65639689139743
446,502.8413659613995
447,503.0549317304901
448,503.28669887604946
449,503.5256915685622
450,503.76126764359554
451,503.9838550973847
452,504.18547432545984
453,504.3600628459432
454,504.50364454245454
455,504.6143894129733
456,504.69260459240223
457,504.7406793067325
458,504.76297254819775
459,504.7656011181391
460,504.7560819484047
461,504.74281213400377
462,504.7344171343451
463,504.73903803325965
464,504.7636462392794
465,504.81346964045787
466,504.89159733448594
467,504.9988010089684
468,505.13356788085446
469,505.29229840796165
470,505.4696062240257
471,505.6586750165097
472,505.85166310602096
473,506.0401778360083
474,506.2158440614917
475,506.3709526558292
476,506.4991161210794
477,506.59582044138483
478,506.658769647666
479,506.6879629044
480,506.6855007495827
481,506.65517007735616
482,506.6018925831321
483,506.53112851119283
484,506.4483113968515
485,506.3583681732011
486,506.26536352310916
487,506.17229248702154
488,506.08102452356485
489,505.99237964769713
490,505.9063009111302
491,505.82208024858994
492,505.7385963639185
493,505.65453378957284
494,505.56857061721234
495,505.479543975185
496,505.3866148805001
497,505.28944442394067
498,505.18836581311683
499,505.08451513800304
500,504.97988491690376
501,504.877283979726
502,504.78021128557936
503,504.6926690150396
504,504.61894558712015
505,504.5633934375441
506,504.53021491474
507,504.5232547938163
508,504.5457848650255
509,504.6002676378639
510,504.6881064396054
511,504.8094116164459
512,504.9628181560873
513,505.14537938840505
514,505.35254898973164
515,505.57825755363973
516,505.8150896611557
517,506.0545732326403
518,506.28760263829685
519,506.505015254
520,506.6983133537374
521,506.8604756039773
522,506.9867544887801
523,507.075324859364
524,507.1276478273403
525,507.14845078727245
526,507.1452943851353
527,507.1277860314503
528,507.10657998463563
529,507.0923407650416
530,507.09482180150883
531,507.1221434387099
532,507.1802839059165
533,507.27275631720676
534,507.40044263325365
535,507.5615753579304
536,507.7518739834614
537,507.96484274875934
538,508.19222575402154
539,508.42460588081957
540,508.65212225621445
541,508.8652568332071
542,509.0556111757574
543,509.21658380460957
544,509.3438742053034
545,509.4357614871825
546,509.4931183400625
547,509.51913671674464
548,509.5187794689674
549,509.4980296720979
550,509.46306012971655
551,509.41945946040295
552,509.3716247826349
553,509.32239108936375
554,509.2729350882667
555,509.22295899815737
556,509.1711135165411
557,509.1155661018803
558,509.05458560998255
559,508.98701776095226
560,508.91256825466155
561,508.8318710366308
562,508.7463726373319
563,508.6580976822839
564,508.56937464041334
565,508.4825890937669
566,508.39999220744505
567,508.3235473530198
568,508.25478113337124
569,508.19462312520386
570,508.1432488826351
571,508.09996009211056
572,508.06313930912034
573,508.0303110106953
574,507.9983269926513
575,507.9636674880329
576,507.92281558506244
577,507.8726388081862
578,507.81070649804593
579,507.735480087743
580,507.64633362286486
581,507.54339816730186
582,507.42727140217556
583,507.29867438320235
584,507.158153334392
585,507.0059095288862
586,506.84179923732273
587,506.6654939190661
588,506.4767536533159
589,506.2757591377838
590,506.06345464661456
591,505.8418505611463
592,505.61421946030106
593,505.38511978552054
594,505.16021095830223
595,504.94586916849823
596,504.74864986479673
597,504.57466278604335
598,504.42893428958075
599,504.31483475598293
600,504.23364442098836
601,504.1843185587989
602,504.1634953377408
603,504.16576432469435
604,504.1841740900876
605,504.21090946901586
606,504.23803356931063
607,504.25818632142295
608,504.265164120101
609,504.2543553217141
610,504.2230417530305
611,504.17057871841075
612,504.09844764639774
613,504.01016130616716
614,503.9110021925254
615,503.80758548543304
616,503.7072541158858
617,503.61733576502576
618,503.5443207116001
619,503.4930521142423
620,503.466047431493
621,503.46307354164935
622,503.48106274319025
623,503.51438801463377
624,503.5554450132187
625,503.5954485969579
626,503.6253464415491
627,503.636754376981
628,503.6228103736768
629,503.5788407650414
630,503.50275037529974
631,503.3950886769096
632,503.258800499796
633,503.0987274943305
634,502.92096394220073
635,502.73217999553674
636,502.5390161140164
637,502.34762665707876
638,502.1634011927804
639,501.9908287195747
640,501.83342624272314
641,501.69365790105843
642,501.57282023464154
643,501.47092984927707
644,501.38668443800765
645,501.31755896510583
646,501.2600546138207
647,501.21006500126765
648,501.16328804830493
649,501.1156060625532
650,501.06337882779485
651,501.00362885815747
652,500.93412506761933
653,500.85338547404405
654,500.7606301591752
655,500.6557242825631
656,500.5391458046406
657,500.4119896911614
658,500.27599337394076
659,500.13355161586065
660,499.98768518458724
661,499.84193596371443
662,499.70018316543803
663,499.5664046087628
664,499.4444249586225
665,499.33768520850964
666,499.24903995232336
667,499.18056546686444
668,499.1333682224054
669,499.10742094257364
670,499.1014888257916
671,499.1132042795583
672,499.1393016841663
673,499.17596932114793
674,499.21924981991936
675,499.26543065987806
676,499.31139359278393
677,499.3549107843557
678,499.39487392283223
679,499.4314307800395
680,499.46600127732074
681,499.5011590114267
682,499.5403845666014
683,499.5877120877298
684,499.64729937462766
685,499.7229591890203
686,499.817696536711
687,499.9333009077976
688,500.07004353762
689,500.2265259370563
690,500.39970981613357
691,500.58512798095364
692,500.77724483571575
693,500.9699206259689
694,501.15693309449193
695,501.332507746622
696,501.4918020417
697,501.6312955385026
698,501.74906084415755
699,501.8449112851321
700,501.9204260186297
701,501.9788430395793
702,502.0247958562798
703,502.0638697022818
704,502.1019854727921
705,502.14467521880084
706,502.1963595389008
707,502.2597535259846
708,502.335516458618
709,502.42222423510475
710,502.51668078982493
711,502.61450903349464
712,502.71090180848154
713,502.80138825828226
714,502.8824814694022
715,502.9521088885184
716,503.00977256397306
717,503.0564290496188
718,503.09411745434375
719,503.12540296151235
720,503.15273923312105
721,503.1778766650029
722,503.2014450651408
723,503.2228092061315
724,503.2402287092007
725,503.2512667675128
726,503.25332519714834
727,503.24416968862744
728,503.2223460444015
729,503.1874389317619
730,503.1401549213779
731,503.08222260622125
732,503.0161212672165
733,502.9446889070079
734,502.87070215051375
735,502.79653252844963
736,502.72394902667673
737,502.65407242153594
738,502.587433296662
739,502.52406876809874
740,502.46360669708605
741,502.4053150281465
742,502.34812853772576
743,502.29069178832003
744,502.2314602781336
745,502.1688835700037
746,502.10166641162743
747,502.0290726028612
748,501.9512119056624
749,501.86924989238145
750,501.78550430208435
751,501.7034161315933
752,501.6273920893905
753,501.56251625728447
754,501.5141421137731
755,501.48740353764407
756,501.4867080839369
757,501.5152820413671
758,501.5748233285889
759,501.66529478923667
760,501.784868757043
761,501.9300222337681
762,502.09577874249766
763,502.27608412992066
764,502.46428150216184
765,502.6536296453772
766,502.83780886379645
767,503.0113749841836
768,503.1701370927932
769,503.3114359583761
770,503.4342927551758
771,503.53939658803387
772,503.6289178121406
773,503.7061697493192
774,503.7751751095899
775,503.8402081023702
776,503.9053766612788
777,503.97428804474066
778,504.04981349590054
779,504.13394229493446
780,504.22769843428216
781,504.3310890337219
782,504.4430697014857
783,504.56154611140954
784,504.68345838299456
785,504.8049861711287
786,504.9218684041371
787,505.02978800270915
788,505.124762758044
789,505.20350432431405
790,505.2637249532057
791,505.3043688349755
792,505.3257369918343
793,505.32948323498255
794,505.31848569347505
795,505.29662667362567
796,505.26852340302776
797,505.2392371105855
798,505.21396181365355
799,505.19768408537226
800,505.19482376683385
801,505.2088932734954
802,505.24222217116113
803,505.29577884279587
804,505.3690933759379
805,505.46026134281595
806,505.56600705687686
807,505.68181497734065
808,505.80217642452004
809,505.92100545563767
810,506.03223310370066
811,506.1305157487434
812,506.21193371622184
813,506.27453837543294
814,506.3186342665854
815,506.3467417827217
816,506.36324897002726
817,506.37381026956575
818,506.38458728753096
819,506.4014537241772
820,506.4292905445654
821,506.4714722071064
822,506.5296073448231
823,506.6035633644192
824,506.6917654338055
825,506.791705257448
826,506.9005402740791
827,507.015642125625
828,507.13498099718214
829,507.25729753803444
830,507.3820845617664
831,507.50944470337964
832,507.6398954646463
833,507.77416863380853
834,507.9130163660733
835,508.05701325624557
836,508.2063477402012
837,508.36062570386696
838,508.5187453017043
839,508.67891487073996
840,508.83885284712693
841,508.9961399983376
842,509.14863136829655
843,509.2948127210045
844,509.4340079160046
845,509.56639535213816
846,509.6928546961268
847,509.8147168881418
848,509.93351094214074
849,510.05078468690647
850,510.16803428834567
851,510.2867290377285
852,510.40838067861284
853,510.53459110307784
854,510.6670249285388
855,510.80728908645125
856,510.9567402098563
857,511.1162656736915
858,511.2860940537865
859,511.4656881838025
860,511.65375806386
861,511.848401411779
862,512.0473398644365
863,512.2481802495581
864,512.4486177717811
865,512.6465310775422
866,512.8399805185567
867,513.0271635092737
868,513.20637816539
869,513.3760152383672
870,513.5345689747053
871,513.6806442246241
872,513.8129398479168
873,513.9302032090598
874,514.0311711640542
875,514.1145290948776
876,514.1789217729173
877,514.2230388749153
878,514.2457800168522
879,514.246478796936
880,514.2251342320709
881,514.1825792412287
882,514.1205286456568
883,514.041487200801
884,513.9485342956857
885,513.8450192978064
886,513.7342085809629
887,513.6189361830368
888,513.5013219085338
889,513.3826202654235
890,513.2632450237884
891,513.1429782848777
892,513.0213221221163
893,512.8978996423524
894,512.7727902364165
895,512.64670826373
896,512.5209906648856
897,512.3974184866038
