frame_number,force
0,616.9060700000276
1,616.9649286575083
2,617.0282896173273
3,617.1003610304103
4,617.1847423388906
5,617.2841006484713
6,617.3998945882286
7,617.5322278845551
8,617.6798917563924
9,617.8405871626628
10,618.0112496086663
11,618.188378631003
12,618.3683044332959
13,618.5473701538367
14,618.7220448913804
15,618.8890063558857
16,619.0452330679366
17,619.1881146943625
18,619.3155461756154
19,619.4259541863231
20,619.5182265879303
21,619.5915592785806
22,619.6452731917091
23,619.6786696992287
24,619.6909844874156
25,619.6814753963561
26,619.6496428235771
27,619.5955383504445
28,619.5200857428474
29,619.4253343411267
30,619.3145830932731
31,619.1923373383735
32,619.0640851115955
33,618.9359099672943
34,618.813990238041
35,618.7040601880078
36,618.6109183573734
37,618.5380579526799
38,618.4874641884235
39,618.4595834267351
40,618.4534342726564
41,618.46681423244
42,618.4965592427419
43,618.5388277223565
44,618.589393725014
45,618.6439424000959
46,618.6983661945275
47,618.7490536680399
48,618.7931397595015
49,618.828666710513
50,618.8546141225555
51,618.8707917417336
52,618.8776234545213
53,618.8758655501426
54,618.8662951264886
55,618.8493918244911
56,618.8250397220722
57,618.7922970530318
58,618.7492924278945
59,618.6932868494357
60,618.6209025662398
61,618.528485636208
62,618.4125493007887
63,618.2702412016504
64,618.0997837345994
65,617.9008414105139
66,617.6747713884503
67,617.4247293121813
68,617.1556353245277
69,616.8740282799158
70,616.5878245907852
71,616.3059651184717
72,616.0379188238824
73,615.7930357660016
74,615.5797908494245
75,615.4050117714934
76,615.273222155308
77,615.1862338717822
78,615.1430811633658
79,615.1403174013586
80,615.1726176872862
81,615.2335672477543
82,615.3164835482756
83,615.4151293802848
84,615.5242184027915
85,615.6396734492754
86,615.7586512159883
87,615.8793830312154
88,616.000897920556
89,616.1226974349311
90,616.2444473734055
91,616.3657369798635
92,616.4859322352718
93,616.6041268525022
94,616.7191779818417
95,616.8298025053573
96,616.9347079106014
97,617.0327406386419
98,617.123043760419
99,617.2052139489074
100,617.2794376596017
101,617.3465762647024
102,617.4081618211345
103,617.4662633970498
104,617.5232029628695
105,617.581148969474
106,617.6416770196113
107,617.7054242725558
108,617.771954893041
109,617.8399022376276
110,617.9073792764935
111,617.9725760261434
112,618.0344105788351
113,618.0930765566314
114,618.1503397087503
115,618.2094881112567
116,618.2749287226015
117,618.3515156883764
118,618.4437544681434
119,618.5550387273577
120,618.6870572144221
121,618.8394673863457
122,619.0098738019359
123,619.1940785137612
124,619.3865070721173
125,619.5806842611821
126,619.7696573631472
127,619.9463360102347
128,620.1037988667309
129,620.2356543158048
130,620.3365056539029
131,620.4024860532436
132,620.4317539919488
133,620.4248208815401
134,620.3846218844932
135,620.3163091192208
136,620.2268116306159
137,620.124250017787
138,620.0173042329285
139,619.9146054063913
140,619.8241714355999
141,619.7528676711722
142,619.7058780363307
143,619.6862150003395
144,619.6943481604411
145,619.728059381425
146,619.7826209190329
147,619.8513376832171
148,619.9264064756788
149,619.9999549907058
150,620.0650712026846
151,620.1166405825076
152,620.1518633324804
153,620.1703981428366
154,620.1741523567038
155,620.1668024295428
156,620.1531726540578
157,620.1386080823088
158,620.1284424141498
159,620.1275992164439
160,620.1403072444597
161,620.1698842902938
162,620.2185534925528
163,620.2872854595646
164,620.3756875762
165,620.481975961311
166,620.6030638809868
167,620.7347854217852
168,620.8722468661882
169,621.0102654198997
170,621.1438282042462
171,621.2684966851779
172,621.3806953759031
173,621.4778530133731
174,621.5584042493824
175,621.6217002682877
176,621.6678935707763
177,621.6978361287814
178,621.7129797809866
179,621.7152396831224
180,621.7067990576876
181,621.6898728837375
182,621.6664737424524
183,621.6382265294402
184,621.6062719032586
185,621.5712839061282
186,621.5336006978389
187,621.4934368549365
188,621.4511288071806
189,621.4073686951665
190,621.363392758955
191,621.3210875856184
192,621.2829628755444
193,621.2519450191065
194,621.2309955136058
195,621.2226302364639
196,621.2284612852704
197,621.2488753419772
198,621.282914153765
199,621.3283654098134
200,621.3820287473917
201,621.4400996956012
202,621.4986132761699
203,621.5538988667969
204,621.6030041228123
205,621.6440434327487
206,621.6764242284361
207,621.7009131298827
208,621.7195266988725
209,621.7352624044311
210,621.7517105133643
211,621.7725953701397
212,621.8012887432315
213,621.8403330209132
214,621.8910134124634
215,621.953022391345
216,622.024267545724
217,622.1008810823859
218,622.177472504549
219,622.2476139367069
220,622.304490188967
221,622.341621058351
222,622.3535677123119
223,622.3365402731675
224,622.2888299817554
225,622.2110205663865
226,622.1059879552928
227,621.9787375518288
228,621.8361264469768
229,621.686488944261
230,621.5391599623101
231,621.4038865900725
232,621.2901314264385
233,621.206300543806
234,621.1589681233074
235,621.1522003412402
236,621.1870840159298
237,621.2615393563989
238,621.3704536326943
239,621.506128409237
240,621.6589981352517
241,621.8185532002382
242,621.974375706693
243,622.1171654684767
244,622.2396104045254
245,622.3369644991069
246,622.407251032836
247,622.4510928710666
248,622.4712469836387
249,622.4719546698652
250,622.4582123119422
251,622.4350504557779
252,622.4069065652117
253,622.3771788785966
254,622.3480269606368
255,622.3204309699744
256,622.2944599941674
257,622.2696586189913
258,622.2454490373096
259,622.2214592716367
260,622.1977225621235
261,622.1747378983283
262,622.1534151186531
263,622.1349346233671
264,622.12054049218
265,622.1112833541059
266,622.1077498319149
267,622.1098384925378
268,622.1166358556601
269,622.126408593547
270,622.1366908795455
271,622.1444343874283
272,622.1461981540488
273,622.1383664455299
274,622.1173845367961
275,622.0800003179404
276,622.0235034094333
277,621.9459642126561
278,621.8464832538353
279,621.7254530350028
280,621.5848070284857
281,621.4281953733973
282,621.2610022627299
283,621.0901217521267
284,620.9234467693317
285,620.7690946757444
286,620.6344664039985
287,620.5252873859156
288,620.4447954286557
289,620.3932231978653
290,620.3676735420908
291,620.3624161743874
292,620.3695673393842
293,620.3800653808331
294,620.3848172173346
295,620.3758537226079
296,620.3473129120714
297,620.296098134321
298,620.22213295859
299,620.1282185537169
300,620.0195592634367
301,619.9030517097771
302,619.7864419692412
303,619.6774494758463
304,619.5829364460601
305,619.5081780185197
306,619.4562789018574
307,619.4277941100461
308,619.4206261179074
309,619.4302572184674
310,619.4503221195621
311,619.4734505567427
312,619.492242273871
313,619.5002032743137
314,619.492488865904
315,619.4663568169518
316,619.4213045939828
317,619.3589269491042
318,619.2825728351879
319,619.1968912495465
320,619.1073322190487
321,619.0196321265402
322,618.9392896581634
323,618.871045451741
324,618.8184097735594
325,618.7833127842763
326,618.7659514421671
327,618.7648651942498
328,618.7772106690143
329,618.7991642451993
330,618.8263811404944
331,618.8544591840013
332,618.8793660176195
333,618.8977932823941
334,618.9074166301729
335,618.9070600615391
336,618.8967706810809
337,618.8778068252415
338,618.8525388925029
339,618.8242587161114
340,618.7968900115542
341,618.7745988959101
342,618.7613266296028
343,618.760296757103
344,618.773565043778
345,618.8016744404396
346,618.8434624472513
347,618.8960569131638
348,618.9550791478572
349,619.0150410868551
350,619.0698897266957
351,619.1136326344722
352,619.1409676187743
353,619.147829692666
354,619.1317701481757
355,619.0921109896694
356,619.0298697823033
357,618.9475037073146
358,618.8485522743679
359,618.7372511778589
360,618.618152004268
361,618.4957429390558
362,618.3740546020846
363,618.2562574260747
364,618.1442943141386
365,618.0386259360902
366,617.9381810034096
367,617.8405823150628
368,617.742653521403
369,617.6411241437654
370,617.5333858725022
371,617.418141169596
372,617.2958188710855
373,617.1686854116446
374,617.0406381621867
375,616.9167219074372
376,616.8024492094157
377,616.7030216992842
378,616.6225504626354
379,616.5633738073734
380,616.5255693236049
381,616.5067421827321
382,616.5021366854871
383,616.5050684352567
384,616.5076236597432
385,616.50153385313
386,616.4791119861811
387,616.4341293613221
388,616.3625241843562
389,616.2628648963587
390,616.1365274238283
391,615.9875723204432
392,615.8223333706792
393,615.6487639245689
394,615.4756230102824
395,615.311606334321
396,615.1645353770808
397,615.0407154558235
398,614.9445559355255
399,614.8784973627008
400,614.8432121086106
401,614.837971251833
402,614.8610372871228
403,614.909956188665
404,614.9816744599508
405,615.0724874246238
406,615.1779073491947
407,615.2925817949525
408,615.4103687960209
409,615.5246002581395
410,615.6284863312036
411,615.7155793375186
412,615.780229301
413,615.8179850658407
414,615.8259013160498
415,615.8027191055179
416,615.7489116536921
417,615.6666142490949
418,615.5594690413201
419,615.4324122861798
420,615.2914197816682
421,615.1432105638731
422,614.994897224038
423,614.8535712565699
424,614.7258264676589
425,614.6172505924895
426,614.5319443213647
427,614.4721413738172
428,614.4379957584599
429,614.4275799448775
430,614.4371098848969
431,614.4613831455482
432,614.494383721273
433,614.5299723730473
434,614.5625548661151
435,614.5876174455218
436,614.6020465051623
437,614.604202031873
438,614.5937760549784
439,614.5715157590078
440,614.5389074091411
441,614.4978979388708
442,614.4506890013182
443,614.3995949746777
444,614.3469308652647
445,614.2948962783794
446,614.245439732493
447,614.2001082034686
448,614.1599024893138
449,614.1251675212769
450,614.0955423315604
451,614.0699784050598
452,614.0468225500033
453,614.0239615201011
454,613.9990297222718
455,613.9696694626597
456,613.9338078864184
457,613.8899029653485
458,613.8371270451454
459,613.7754822304781
460,613.7058540664376
461,613.6300067325012
462,613.5505139642086
463,613.4706130111263
464,613.3939733849337
465,613.3243958622573
466,613.2654917515604
467,613.2204118198123
468,613.1916774774912
469,613.1811197957595
470,613.1898856493593
471,613.2184543354807
472,613.2666242704917
473,613.3334585073063
474,613.4172069856552
475,613.5152487600095
476,613.6241083555302
477,613.7395873492258
478,613.8570239765625
479,613.9716656475015
480,614.079113215833
481,614.175767624228
482,614.2591918107069
483,614.328312925615
484,614.3834276434825
485,614.4260151523464
486,614.4584002906464
487,614.4833414856791
488,614.5036286218581
489,614.5217548192521
490,614.5396920647639
491,614.5587803302358
492,614.5797338419657
493,614.6027524628048
494,614.627692221112
495,614.6542272741018
496,614.6819571060787
497,614.7104607092148
498,614.7393253314518
499,614.7681619755386
500,614.7965953799037
501,614.8242179324926
502,614.8505145411721
503,614.8747684680001
504,614.8959507107163
505,614.9126072116721
506,614.9227904256677
507,614.9240999835987
508,614.9138748517634
509,614.8895274102163
510,614.8489607905548
511,614.7909880796803
512,614.7156775771031
513,614.6245698498542
514,614.5207353851605
515,614.4086576560528
516,614.2939374356723
517,614.182832507321
518,614.0816799130474
519,613.9962802082615
520,613.9313284988147
521,613.8899514323773
522,613.8733799372361
523,613.8807822645038
524,613.9092962658376
525,613.954300036954
526,614.0099216856164
527,614.0697272583301
528,614.1274794854153
529,614.1778484041471
530,614.2169662345018
531,614.2427423728124
532,614.2548992216958
533,614.2547553882221
534,614.2448382882127
535,614.2284233694338
536,614.2090769040401
537,614.1902502331549
538,614.1749548016063
539,614.1655406921171
540,614.1635948195977
541,614.1699583302061
542,614.1848404561239
543,614.2079898375086
544,614.2388797828661
545,614.2768714472165
546,614.3213347900381
547,614.3717199726483
548,614.4275725787382
549,614.4884814263983
550,614.5539520382307
551,614.6232184248123
552,614.6950369998062
553,614.7675383955336
554,614.8382273666778
555,614.9041974739857
556,614.9625615498622
557,615.0110164986529
558,615.0484028617018
559,615.0751105930393
560,615.0932200749666
561,615.1063385417114
562,615.1191778129581
563,615.1369834021734
564,615.1649350975429
565,615.2076040082851
566,615.2685100624489
567,615.3498005852049
568,615.4520607030952
569,615.5742602781213
570,615.7138367135227
571,615.8669078374356
572,616.0286044608528
573,616.193507561774
574,616.3561643877948
575,616.5116337051348
576,616.6559800775891
577,616.7866261964676
578,616.9025007227326
579,617.0039753792755
580,617.0926345315181
581,617.1709379927626
582,617.2418282999845
583,617.3083197091644
584,617.3731012024233
585,617.4381898443983
586,617.5046794512065
587,617.572632375578
588,617.641145155086
589,617.7085814896475
590,617.7729279814032
591,617.8322096128443
592,617.884903691025
593,617.9302959052861
594,617.9687200598352
595,618.0016284585614
596,618.0314721856827
597,618.0614185679673
598,618.0949619508322
599,618.1354804715286
600,618.1857811859376
601,618.2476853578194
602,618.3217285273155
603,618.4070584229255
604,618.5015870209568
605,618.6023876705875
606,618.7062433376541
607,618.810191903061
608,618.911920783951
609,619.0099319312119
610,619.103481812501
611,619.1923573838657
612,619.2765701867918
613,619.3560455918946
614,619.4303624434507
615,619.498574315866
616,619.5591353699137
617,619.609963924703
618,619.6486818529419
619,619.6730415218298
620,619.6814940833063
621,619.6737848517654
622,619.6514106171562
623,619.6177732017179
624,619.5779357375077
625,619.538009839222
626,619.5043114301963
627,619.4824717376835
628,619.476672712603
629,619.4891168295477
630,619.5197683205713
631,619.5663426981698
632,619.6244975370015
633,619.6881947387553
634,619.7502342724111
635,619.8029600881579
636,619.8390980656717
637,619.852630412342
638,619.8395744398331
639,619.798529753155
640,619.7308872591508
641,619.6406542172973
642,619.5339304247807
643,619.4181452371389
644,619.3012042805814
645,619.1906865627637
646,619.0931920217287
647,619.0138916441622
648,618.9562875824643
649,618.9221474631366
650,618.9115451973868
651,618.9229425586797
652,618.9532891988848
653,618.9981781925302
654,619.0521267564008
655,619.1090301602839
656,619.1627680955228
657,619.2078648489169
658,619.2400665401447
659,619.2567269441976
660,619.2569655429864
661,619.2416226447152
662,619.2130518682612
663,619.1747721650819
664,619.1309846077108
665,619.085967369924
666,619.0433987098314
667,619.0057057026465
668,618.9735652171406
669,618.9456694939911
670,618.9188178169084
671,618.8883352890296
672,618.8487670805953
673,618.7947513980506
674,618.7219382478143
675,618.6278090059839
676,618.5122780553921
677,618.3780112545445
678,618.2304426510597
679,618.0774885015868
680,617.9289603774918
681,617.7956979780278
682,617.688489395498
683,617.6169057463092
684,617.5882199817153
685,617.6065802819344
686,617.6725544978269
687,617.783074255167
688,617.931736443941
689,618.1093997775139
690,618.3050245192495
691,618.5066994228326
692,618.7027673780749
693,618.8829258738334
694,619.0391681934469
695,619.1664475185198
696,619.2629761032803
697,619.3301129732037
698,619.3718495843414
699,619.3939681717844
700,619.4030094250595
701,619.4052272603375
702,619.4057091549492
703,619.4077969366385
704,619.4128772580941
705,619.4205472666837
706,619.4291014821491
707,619.4362262481451
708,619.439741801234
709,619.4382235074078
710,619.4313723006036
711,619.4200734165782
712,619.406156521937
713,619.3919319878999
714,619.3796174625297
715,619.370781123817
716,619.3659170287963
717,619.3642395047556
718,619.3637376307734
719,619.3614732247984
720,619.3540530554485
721,619.3381725284748
722,619.3111211990638
723,619.2711641257973
724,619.217757278042
725,619.1515939121323
726,619.0744975959077
727,618.9891865050288
728,618.8989432637543
729,618.8072323077786
730,618.7173097586068
731,618.6318733436595
732,618.5528061206732
733,618.4810701246595
734,618.4167853687637
735,618.3594801034546
736,618.3084437456042
737,618.2630847770948
738,618.223199798594
739,618.1890833716711
740,618.1614416699102
741,618.1411223429237
742,618.1287334298014
743,618.1242592348235
744,618.1267639849857
745,618.1342294099933
746,618.143541165966
747,618.1506282432418
748,618.1507520330041
749,618.1389262620961
750,618.110424399188
751,618.061304024671
752,617.9888629090156
753,617.89195373055
754,617.7711235263264
755,617.6285899628089
756,617.4680925634051
757,617.2946555233091
758,617.1142897337653
759,616.9336663363971
760,616.7598033327691
761,616.599791157905
762,616.4605376522147
763,616.3484730742514
764,616.2691600433541
765,616.2268032228177
766,616.2237212953618
767,616.2598993865405
768,616.3327578057123
769,616.4372357522634
770,616.5662089143594
771,616.71117572675
772,616.8630869316629
773,617.013166956706
774,617.1535926970051
775,617.2779552571436
776,617.3815036357969
777,617.461218122107
778,617.5157748417448
779,617.5454558961907
780,617.5520431127087
781,617.5387096847132
782,617.50989880004
783,617.4711606335652
784,617.4289129085013
785,617.390099430986
786,617.3617500584946
787,617.3504863590641
788,617.3620470451422
789,617.4009068871571
790,617.4700322242894
791,617.5707759433539
792,617.7028913153771
793,617.8646439897593
794,618.0530046806588
795,618.2638937171924
796,618.4924334836955
797,618.7331704531215
798,618.9802595452273
799,619.2276387966631
800,619.4692376503905
801,619.6992469086393
802,619.9124383164442
803,620.1044781006603
804,620.2721590163313
805,620.4134974757686
806,620.5277010688164
807,620.6150713895859
808,620.6769194132886
809,620.7155228095542
810,620.7340886529425
811,620.7366552892892
812,620.7278890342722
813,620.7127794020989
814,620.6962753261017
815,620.6829145481971
816,620.6764838759766
817,620.6797313645928
818,620.6941499333167
819,620.7198608571814
820,620.755626692734
821,620.7990089474843
822,620.8466675495982
823,620.8947858532124
824,620.9395855981435
825,620.9778611417249
826,621.0074304184656
827,621.0274019891231
828,621.0381973587457
829,621.0413228528233
830,621.0389352396388
831,621.0332834321094
832,621.0261320515052
833,621.0182760164954
834,621.0092371488066
835,620.9971999275408
836,620.9792003282586
837,620.9515327000794
838,620.9102948110115
839,620.851969054705
840,620.7739470645346
841,620.6749335291481
842,620.5551959070417
843,620.4166507910783
844,620.2627880149734
845,620.0984301259732
846,619.929324371363
847,619.7615855039435
848,619.6010474451399
849,619.4526177562573
850,619.3197380845882
851,619.2040275730778
852,619.1051387617857
853,619.020816118049
854,618.9471328314909
855,618.8788817557571
856,618.8100932847984
857,618.7346426701461
858,618.6469006233139
859,618.5423787405941
860,618.4183170260853
861,618.2741467504012
862,618.111749558523
863,617.93544387267
864,617.7516642204077
865,617.5683425582495
866,617.3940444835396
867,617.2369561148311
868,617.1038494888171
869,616.999164537688
870,616.9243343197087
871,616.877451748895
872,616.853333647084
873,616.8439863841505
874,616.8394228626985
875,616.8287303357262
876,616.8012527954859
877,616.7477402792437
878,616.6613353890838
879,616.5383112174355
880,616.3785257938473
881,616.1855877765239
882,615.9667246487921
883,615.7323269178806
884,615.4951441347146
885,615.26915509911
886,615.0682183684856
887,614.9046896352813
888,614.7882210456652
889,614.7249147120523
890,614.7169147214258
891,614.7624349840547
892,614.8561598701635
893,614.9899195771638
894,615.1535274715762
895,615.3356741517872
896,615.5248005134458
897,615.7099021989515
898,615.8812310993264
899,616.030858353585
900,616.1530651383299
901,616.2445422904664
902,616.3044049683199
903,616.3340521075712
904,616.3369064844143
905,616.3180589070531
906,616.2838283379833
907,616.2412530955105
908,616.19754114853
909,616.1595190592948
910,616.1331281859855
911,616.12302113634
912,616.1322986831012
913,616.1623960717889
914,616.2131017871642
915,616.2826910088188
916,616.3681691006988
917,616.465623992662
