frame_number,force
0,779.0448624367908
1,779.0496022905663
2,779.0517233769942
3,779.051379173268
4,779.0487278858196
5,779.0439317030647
6,779.0371560392134
7,779.0285687781726
8,779.0183395255489
9,779.0066388761254
10,778.9936377039464
11,778.9795064817571
12,778.964414635407
13,778.9485299367618
14,778.9320179361919
15,778.9150414335953
16,778.897759985586
17,778.8803294457939
18,778.8629015349777
19,778.8456234379673
20,778.8286374255788
21,778.8120805013209
22,778.7960840740145
23,778.7807736575915
24,778.7662685982186
25,778.7526818269474
26,778.7401196340079
27,778.7286814595767
28,778.7184596961343
29,778.7095394994179
30,778.7019986074063
31,778.6959071683744
32,778.6913275793389
33,778.6883143359529
34,778.6869138952454
35,778.6871645540887
36,778.6890963484622
37,778.6927309801887
38,778.6980817777653
39,778.705153696485
40,778.7139433614478
41,778.7244391561092
42,778.7366213587356
43,778.7504623293875
44,778.7659267506052
45,778.7829719251333
46,778.80154813306
47,778.8215990489506
48,778.8430622178652
49,778.8658695878444
50,778.8899480946644
51,778.9152202917132
52,778.9416050142345
53,778.969018064183
54,778.9973729005475
55,779.0265813206054
56,779.0565541197914
57,779.0872017206295
58,779.1184347635723
59,779.150164654301
60,779.1823040633543
61,779.2147673750057
62,779.2474710829578
63,779.28033413069
64,779.3132781947887
65,779.3462279108105
66,779.3791110429357
67,779.4118586001608
68,779.4444049028128
69,779.4766876038295
70,779.5086476696828
71,779.5402293261844
72,779.5713799747634
73,779.6020500848105
74,779.6321930669048
75,779.6617651299952
76,779.6907251233248
77,779.7190343621858
78,779.7466564364512
79,779.7735570022041
80,779.7997035584569
81,779.8250652117657
82,779.8496124313033
83,779.8733167964593
84,779.8961507391741
85,779.9180872839311
86,779.939099788829
87,779.9591616909473
88,779.9782462587516
89,779.996326354493
90,780.0133742109151
91,780.0293612285428
92,780.0442578011774
93,780.058033177201
94,780.0706553631908
95,780.0820910749716
96,780.0923057401569
97,780.1012635555518
98,780.1089276019876
99,780.115260017411
100,780.1202222261056
101,780.1237752187175
102,780.1258798755833
103,780.1264973253823
104,780.1255893320342
105,780.123118704396
106,780.1190497248525
107,780.113348593864
108,780.1059838878539
109,780.096927027782
110,780.0861527554749
111,780.0736396142431
112,780.0593704294822
113,780.0433327840136
114,780.02551948225
115,780.0059289970922
116,779.9845658934722
117,779.9614412224425
118,779.9365728800183
119,779.9099859260659
120,779.8817128601173
121,779.8517938521876
122,779.8202769266713
123,779.7872180964025
124,779.7526814428603
125,779.7167391377653
126,779.679471400774
127,779.640966387517
128,779.6013200021172
129,779.5606356290187
130,779.5190237806017
131,779.476601659334
132,779.4334926356212
133,779.3898256446607
134,779.345734507538
135,779.3013571839266
136,779.2568349663317
137,779.2123116283816
138,779.1679325414358
139,779.1238437743096
140,779.0801911903799
141,779.0371195549832
142,778.9947716638818
143,778.9532875006583
144,778.9128034277991
145,778.873451414031
146,778.8353582997335
147,778.7986451024249
148,778.7634263645542
149,778.7298095459319
150,778.6978944635574
151,778.6677727823744
152,778.6395275611643
153,778.6132328582601
154,778.588953402357
155,778.5667443345935
156,778.5466510288003
157,778.5287089965691
158,778.5129438820602
159,778.4993715485111
160,778.487998255027
161,778.4788209190714
162,778.4718274574436
163,778.4669971965997
164,778.4643013420962
165,778.4637034965505
166,778.4651602153846
167,778.4686215895849
168,778.4740318447663
169,778.4813299458963
170,778.4904501971954
171,778.5013228274701
172,778.5138745526743
173,778.5280291093984
174,778.5437077548179
175,778.5608297305564
176,778.5793126900836
177,778.5990730913107
178,778.6200265573681
179,778.6420882090548
180,778.6651729722082
181,778.6891958623137
182,778.7140722474207
183,778.7397180894135
184,778.7660501631854
185,778.7929862531894
186,778.8204453269232
187,778.8483476850242
188,778.8766150878107
189,778.9051708584504
190,778.9339399634969
191,778.9628490720628
192,778.991826595095
193,779.0208027059819
194,779.049709343319
195,779.0784801963911
196,779.1070506737998
197,779.1353578555154
198,779.1633404285661
199,779.1909386069411
200,779.2180940371703
201,779.2447496921499
202,779.2708497566757
203,779.2963395088931
204,779.3211652028905
205,779.3452739590109
206,779.3686136694743
207,779.3911329267022
208,779.4127809799149
209,779.4335077223834
210,779.453263707827
211,779.4720001909357
212,779.489669185057
213,779.5062235300418
214,779.5216169639315
215,779.5358041922154
216,779.5487409477382
217,779.5603840340748
218,779.5706913462518
219,779.5796218650404
220,779.5871356239243
221,779.5931936504991
222,779.5977578862264
223,779.6007910901551
224,779.602256733338
225,779.6021188909102
226,779.6003421379237
227,779.5968914533091
228,779.5917321344374
229,779.5848297233186
230,779.5761499447783
231,779.565658657005
232,779.5533218156876
233,779.5391054543551
234,779.5229756847949
235,779.5048987218672
236,779.4848409364807
237,779.4627689393752
238,779.4386496972683
239,779.412450682306
240,779.3841400555953
241,779.353686885377
242,779.3210613998752
243,779.286235274202
244,779.2491819502275
245,779.2098769879402
246,779.1682984461528
247,779.1244272893181
248,779.0782478159675
249,779.029748103334
250,778.9789204625046
251,778.9257618991973
252,778.8702745768011
253,778.812466279958
254,778.75235087782
255,778.689948785763
256,778.6252874231269
257,778.5584016632456
258,778.4893342713546
259,778.4181363261886
260,778.3448676218137
261,778.2695970468171
262,778.1924029380765
263,778.1133734060634
264,778.0326066281473
265,777.950211105524
266,777.8663058780603
267,777.7810206897838
268,777.6944960967348
269,777.606883509288
270,777.5183451628926
271,777.4290540135411
272,777.3391935560596
273,777.2489575644271
274,777.1585497544858
275,777.0681833710231
276,776.9780807027914
277,776.8884725297926
278,776.7995975067232
279,776.7117014852627
280,776.6250367769678
281,776.5398613587787
282,776.4564380241452
283,776.3750334832908
284,776.2959174155714
285,776.2193614759578
286,776.1456382573973
287,776.0750202115864
288,776.0077785322807
289,775.9441820070001
290,775.8844958441495
291,775.8289804829215
292,775.7778903934118
293,775.7314728746437
294,775.6899668586576
295,775.6536017291902
296,775.6225961636795
297,775.5971570075221
298,775.5774781898068
299,775.563739690065
300,775.5561065655534
301,775.5547280478494
302,775.5597367162649
303,775.5712477544671
304,775.5893582962441
305,775.6141468663906
306,775.6456729225769
307,775.6839765032064
308,775.7290779843195
309,775.7809779457505
310,775.8396571437055
311,775.9050765843866
312,775.9771776915385
313,776.0558825599219
314,776.1410942868193
315,776.2326973744672
316,776.3305581969984
317,776.4345255255662
318,776.5444311051368
319,776.6600902766959
320,776.7813026395781
321,776.9078527498857
322,777.0395108519131
323,777.1760336399402
324,777.3171650478952
325,777.4626370643838
326,777.6121705705038
327,777.765476197846
328,777.9222552043673
329,778.0822003664525
330,778.2449968862188
331,778.4103233135345
332,778.5778524820485
333,778.7472524578
334,778.9181874979804
335,779.0903190164169
336,779.2633065517343
337,779.4368087343074
338,779.6104842491002
339,779.7839927927297
340,779.9569960238113
341,780.1291585058208
342,780.3001486420077
343,780.4696396025017
344,780.6373102441619
345,780.8028460233438
346,780.9659399005197
347,781.1262932338361
348,781.2836166566052
349,781.4376309317922
350,781.5880677752555
351,781.7346706391608
352,781.8771954478832
353,782.0154112807071
354,782.1491009980898
355,782.2780618102607
356,782.4021057880183
357,782.5210603159638
358,782.6347684884418
359,782.7430894484543
360,782.845898670113
361,782.9430881858478
362,783.0345667599541
363,783.1202600090353
364,783.2001104673461
365,783.274077592395
366,783.3421377050347
367,783.4042838588294
368,783.4605256345799
369,783.5108888565442
370,783.5554152272234
371,783.5941618782791
372,783.6272008366266
373,783.6546184067413
374,783.6765144720154
375,783.6930017192443
376,783.7042047914828
377,783.7102593763341
378,783.7113112391638
379,783.7075152126905
380,783.6990341550584
381,783.686037888059
382,783.6687021265917
383,783.6472074103979
384,783.6217380492155
385,783.5924810917992
386,783.5596253273724
387,783.5233603258462
388,783.4838755215628
389,783.441359344616
390,783.3959984036044
391,783.3479767235528
392,783.2974750423317
393,783.244670168161
394,783.1897344000894
395,783.1328350131404
396,783.0741338099946
397,783.0137867409487
398,782.9519435928852
399,782.8887477460073
400,782.8243359946154
401,782.7588384261027
402,782.6923783514593
403,782.6250722811625
404,782.5570299420277
405,782.4883543324721
406,782.4191418146662
407,782.3494822418057
408,782.279459117689
409,782.2091497846336
410,782.1386256347818
411,782.0679523390928
412,781.9971900881295
413,781.9263938393564
414,781.8556135667501
415,781.7848945097664
416,781.7142774203197
417,781.6437988084427
418,781.5734911889427
419,781.5033833319441
420,781.4335005199503
421,781.3638648136231
422,781.2944953278811
423,781.2254085187707
424,781.1566184800001
425,781.0881372467496
426,781.019975103793
427,780.952140894816
428,780.8846423294527
429,780.8174862835566
430,780.7506790866024
431,780.6842267884354
432,780.6181353966716
433,780.5524110764605
434,780.4870603060601
435,780.4220899844255
436,780.3575074901534
437,780.2933206938206
438,780.2295379275218
439,780.1661679165964
440,780.10321967984
441,780.0407024060951
442,779.9786253165904
443,779.9169975231912
444,779.8558278925454
445,779.7951249248807
446,779.7348966537676
447,779.675150569559
448,779.6158935650066
449,779.5571318978083
450,779.4988711625897
451,779.4411162642949
452,779.3838713855786
453,779.3271399420308
454,779.2709245209726
455,779.2152268022031
456,779.1600474620573
457,779.1053860648542
458,779.0512409476833
459,778.9976091049884
460,778.9444860785683
461,778.8918658569685
462,778.8397407864578
463,778.7881014944198
464,778.7369368256507
465,778.6862337929228
466,778.6359775446037
467,778.5861513532124
468,778.5367366292486
469,778.4877129648206
470,778.4390582118123
471,778.3907485993175
472,778.3427588943753
473,778.2950626087455
474,778.2476322530924
475,778.2004396386337
476,778.1534562245145
477,778.1066535066029
478,778.0600034409127
479,778.0134788934696
480,777.9670541084128
481,777.9207051870127
482,777.8744105714428
483,777.8281515280631
484,777.7819126254873
485,777.7356822029727
486,777.689452824842
487,777.6432217165332
488,777.5969911772418
489,777.5507689632316
490,777.5045686354605
491,777.4584098654682
492,777.4123186940209
493,777.366327737152
494,777.3204763338681
495,777.274810629313
496,777.2293835870548
497,777.1842549246487
498,777.1394909679618
499,777.0951644217666
500,777.0513540563312
501,777.0081443118079
502,776.9656248243141
503,776.923889879867
504,776.8830378046141
505,776.8431703017025
506,776.8043917463425
507,776.7668084509576
508,776.7305279117138
509,776.695658046082
510,776.6623064283108
511,776.6305795261995
512,776.6005819393595
513,776.5724156373194
514,776.5461791957107
515,776.5219670296548
516,776.4998686242538
517,776.4799677623118
518,776.4623417496582
519,776.4470606395181
520,776.4341864595843
521,776.4237724485803
522,776.4158623123263
523,776.4104895115678
524,776.4076765946061
525,776.4074345873036
526,776.4097624516836
527,776.414646622535
528,776.4220606295254
529,776.4319648104008
530,776.4443061187286
531,776.4590180276132
532,776.4760205296755
533,776.4952202336962
534,776.5165105590727
535,776.5397720297686
536,776.5648726695156
537,776.5916684999163
538,776.6200041428135
539,776.6497135273693
540,776.6806207001184
541,776.7125407326723
542,776.7452807176368
543,776.7786408401871
544,776.8124155113329
545,776.8463945486836
546,776.8803643906725
547,776.9141093305661
548,776.9474127573645
549,776.9800583918129
550,777.0118315069847
551,777.0425201243181
552,777.07191617764
553,777.0998166390309
554,777.1260246006527
555,777.15035030605
556,777.1726121241244
557,777.19263745994
558,777.2102635984169
559,777.2253384787274
560,777.2377213979519
561,777.2472836420652
562,777.2539090410219
563,777.2574944436099
564,777.2579501077869
565,777.2552000033853
566,777.2491820255981
567,777.2398481189999
568,777.2271643131529
569,777.2111106722397
570,777.1916811624903
571,777.1688834420885
572,777.1427385786457
573,777.1132806993792
574,777.0805565790707
575,777.0446251708701
576,777.0055570850024
577,776.9634340203204
578,776.9183481533059
579,776.870401488469
580,776.8197051730848
581,776.7663787781436
582,776.710549546864
583,776.6523516126448
584,776.5919251898546
585,776.5294157428713
586,776.4649731404785
587,776.3987508033781
588,776.3309048520455
589,776.2615932609675
590,776.190975024265
591,776.119209337238
592,776.0464547983834
593,775.9728686367047
594,775.8986059697871
595,775.8238190991224
596,775.7486568498896
597,775.6732639621765
598,775.597780539515
599,775.5223415592587
600,775.4470764482259
601,775.3721087261432
602,775.2975557184824
603,775.2235283392246
604,775.1501309431907
605,775.0774612470055
606,775.0056103172786
607,774.934662623903
608,774.8646961557922
609,774.7957825964705
610,774.7279875575534
611,774.6613708682737
612,774.5959869181819
613,774.5318850485304
614,774.4691099865761
615,774.4077023164714
616,774.3476989802605
617,774.2891338023014
618,774.2320380301345
619,774.1764408846909
620,774.1223701128987
621,774.0698525358321
622,774.0189145852847
623,773.9695828213182
624,773.9218844235302
625,773.8758476497416
626,773.8315022574658
627,773.7888798855563
628,773.7480143952436
629,773.7089421710479
630,773.6717023831043
631,773.6363372135426
632,773.6028920504385
633,773.571415652898
634,773.5419602896804
635,773.5145818514611
636,773.4893399337946
637,773.466297884789
638,773.4455228091069
639,773.427085518629
640,773.4110604203017
641,773.3975253335614
642,773.3865612332796
643,773.3782519188018
644,773.3726836140405
645,773.3699445065162
646,773.3701242345337
647,773.3733133320001
648,773.3796026401877
649,773.3890826950475
650,773.4018430974778
651,773.4179718726126
652,773.4375548233367
653,773.4606748833343
654,773.4874114758195
655,773.5178398850057
656,773.5520306477654
657,773.5900489727222
658,773.6319541934125
659,773.6777992612168
660,773.7276302825384
661,773.7814861035325
662,773.8393979449322
663,773.9013890891441
664,773.9674746214541
665,774.0376612266521
666,774.1119470417942
667,774.1903215654282
668,774.2727656235152
669,774.3592513922841
670,774.4497424780959
671,774.5441940538482
672,774.6425530502092
673,774.7447583977586
674,774.8507413133027
675,774.9604256212966
676,775.0737281004875
677,775.1905588468633
678,775.3108216460328
679,775.4344143502963
680,775.5612292572896
681,775.691153488161
682,775.8240693639009
683,775.9598547789165
684,776.098383571299
685,776.2395258893637
686,776.383148553835
687,776.5291154147931
688,776.6772877027108
689,776.8275243738992
690,776.9796824521176
691,777.1336173693096
692,777.2891833090066
693,777.4462335560672
694,777.6046208562649
695,777.764197788595
696,777.9248171517395
697,778.0863323640278
698,778.248597874087
699,778.4114695779926
700,778.574805238518
701,778.7384649027299
702,778.9023113150109
703,779.0662103230841
704,779.2300312745352
705,779.3936474006429
706,779.5569361831264
707,779.7197796980258
708,779.8820649297204
709,780.0436840476497
710,780.2045346391805
711,780.3645198943519
712,780.5235487411612
713,780.6815359324629
714,780.8384020867636
715,780.9940736853378
716,781.1484830276753
717,781.3015681469228
718,781.4532726871477
719,781.6035457449551
720,781.7523416787424
721,781.899619889279
722,782.0453445755224
723,782.1894844702152
724,782.3320125613945
725,782.4729058081583
726,782.6121448609032
727,782.7497137969143
728,782.8855998813525
729,783.0197933616464
730,783.1522873008612
731,783.2830774535149
732,783.4121621854331
733,783.539542436981
734,783.6652217264392
735,783.7892061881231
736,783.9115046384366
737,784.0321286618566
738,784.1510927073027
739,784.2684141837518
740,784.384113543244
741,784.4982143401262
742,784.6107432574426
743,784.721730094493
744,784.8312077133537
745,784.9392119459279
746,785.0457814660084
747,785.1509576321953
748,785.254784307264
749,785.3573076582084
750,785.458575939312
751,785.5586392587275
752,785.6575493275302
753,785.7553591891848
754,785.852122926694
755,785.9478953445026
756,786.0427316228993
757,786.1366869442004
758,786.2298160917036
759,786.3221730236083
760,786.4138104248356
761,786.5047792402268
762,786.5951281931349
763,786.6849032941036
764,786.7741473453366
765,786.862899447873
766,786.9511945193251
767,787.0390628301936
768,787.1265295661766
769,787.2136144231222
770,787.3003312409215
771,787.3866876828788
772,787.4726849676925
773,787.5583176615418
774,787.6435735374057
775,787.7284335077359
776,787.81287163516
777,787.8968552241993
778,787.9803449952915
779,788.0632953411399
780,788.1456546644919
781,788.2273657951914
782,788.3083664822328
783,788.388589953946
784,788.4679655369978
785,788.5464193228178
786,788.6238748683978
787,788.7002539172913
788,788.7754771261042
789,788.8494647820194
790,788.9221374983553
791,788.9934168777527
792,789.0632261353336
793,789.1314906760414
794,789.1981386211897
795,789.263101279766
796,789.3263135610991
797,789.3877143273504
798,789.447246686582
799,789.5048582293864
800,789.5605012138325
801,789.614132704569
802,789.6657146721506
803,789.7152140579616
804,789.762602808641
805,789.8078578821817
806,789.8509612266183
807,789.8918997319228
808,789.9306651563898
809,789.9672540298342
810,790.0016675365442
811,790.0339113808659
812,790.063995638158
813,790.0919345944573
814,790.117746579498
815,790.1414537988236
816,790.1630821708667
817,790.1826611740331
818,790.2002237074594
819,790.2158059676857
820,790.2294473421236
821,790.2411903187395
822,790.2510804098936
823,790.2591660871843
824,790.2654987237743
825,790.2701325409334
826,790.2731245559562
827,790.2745345284916
828,790.2744249013731
829,790.2728607306402
830,790.2699095983572
831,790.2656415015111
832,790.260128710798
833,790.2534455942392
834,790.2456684019329
835,790.2368750094506
836,790.2271446182384
837,790.2165574118943
838,790.20519416763
839,790.1931358229657
840,790.1804629989716
841,790.1672554829494
842,790.1535916748803
843,790.1395480029382
844,790.1251983137503
845,790.1106132428881
846,790.0958595705196
847,790.0809995668859
848,790.0660903328964
849,790.0511831426451
850,790.0363227964722
851,790.0215469946089
852,790.0068857421857
853,789.9923607967642
854,789.977985170264
855,789.9637626984043
856,789.9496876918138
857,789.9357446825868
858,789.921908277722
859,789.9081431269601
860,789.8944040081367
861,789.880636029294
862,789.8667749436494
863,789.8527475705408
864,789.8384723125894
865,789.8238597574286
866,789.8088133523504
867,789.7932301418057
868,789.7770015595378
869,789.7600142682297
870,789.742151039966
871,789.7232916709869
872,789.7033139241003
873,789.6820944913018
874,789.6595099677519
875,789.6354378271297
876,789.6097573882593
877,789.5823507634769
878,789.5531037795446
879,789.5219068615519
880,789.4886558699425
881,789.4532528817988
882,789.4156069101349
883,789.3756345579739
884,789.3332606061069
885,789.288418534381
886,789.2410509765439
887,789.1911101083887
888,789.1385579686553
889,789.0833667125003
890,789.025518798237
891,788.9650071086022
892,788.9018350073155
893,788.8360163302439
894,788.7675753088124
895,788.6965464226914
896,788.622974179998
897,788.5469128256692
898,788.4684259806695
899,788.3875862153359
900,788.3044745599353
901,788.2191799554829
902,788.1317986484511
903,788.0424335341608
904,787.951193455365
905,787.8581924644025
906,787.763549058257
907,787.6673853954026
908,787.5698265021796
909,787.4709994757349
910,787.3710326907601
911,787.2700550181416
912,787.168195064516
913,787.0655804417514
914,786.9623370742115
915,786.8585885499843
916,786.7544555209422
917,786.6500551555885
