frame_number,force
0,779.092633852217
1,779.0812717709625
2,779.0667497893412
3,779.0496935670335
4,779.030744353852
5,779.0105395594068
6,778.989693296036
7,778.9687778017761
8,778.948306499027
9,778.928719357113
10,778.9103712071089
11,778.8935236195155
12,778.8783408031459
13,778.8648896915969
14,778.8531440291791
15,778.8429919715477
16,778.8342465409612
17,778.8266582010464
18,778.8199288065405
19,778.813726258894
20,778.8076993975013
21,778.8014929361907
22,778.7947624737276
23,778.7871896410617
24,778.7784972824963
25,778.7684642698083
26,778.7569392258678
27,778.7438522316274
28,778.7292236321537
29,778.713169345362
30,778.6959024497723
31,778.6777310717647
32,778.6590526341199
33,778.6403444862153
34,778.6221509915972
35,778.6050673877911
36,778.589721085796
37,778.5767513441554
38,778.5667882699353
39,778.560431907496
40,778.5582319649484
41,778.5606686236843
42,778.5681348817548
43,778.5809209745428
44,778.5992015601267
45,778.6230264416203
46,778.6523155128563
47,778.6868583957475
48,778.7263190368227
49,778.7702453864028
50,778.8180840615292
51,778.8691994843691
52,778.9228964710001
53,778.9784448131355
54,779.0351042058664
55,779.0921479866405
56,779.1488845010498
57,779.2046753389405
58,779.2589500407563
59,779.3112171170479
60,779.3610713933188
61,779.4081978128005
62,779.4523718782954
63,779.4934568965981
64,779.5313981984741
65,779.5662146268684
66,779.597987773748
67,779.6268495997449
68,779.6529691502529
69,779.6765391025649
70,779.6977628641024
71,779.7168429189329
72,779.7339710955423
73,779.749321355814
74,779.7630455133353
75,779.7752719515853
76,779.7861069980153
77,779.795638288844
78,779.8039393902188
79,779.8110751113508
80,779.8171071700859
81,779.8220999686282
82,779.8261261780832
83,779.8292717402853
84,779.8316399095781
85,779.8333540702492
86,779.8345591516496
87,779.8354214469101
88,779.8361265929101
89,779.8368755332283
90,779.8378785363749
91,779.8393476925664
92,779.8414885752784
93,779.844491810172
94,779.8485251883026
95,779.8537268176941
96,779.8601997162558
97,779.8680082223074
98,779.8771765579833
99,779.8876896938056
100,779.8994962917152
101,779.9125130914684
102,779.9266298555807
103,779.9417139964424
104,779.9576142335738
105,779.97416295912
106,779.9911773053184
107,780.0084591254366
108,780.0257942129787
109,780.0429511328188
110,780.05968004299
111,780.0757118405072
112,780.0907578651841
113,780.1045102681553
114,780.1166430578317
115,780.1268138068131
116,780.1346659930365
117,780.1398319222625
118,780.1419361934006
119,780.1405997905345
120,780.1354450772999
121,780.1261020873927
122,780.112216428619
123,780.0934588779343
124,780.0695364785357
125,780.0402047333374
126,780.0052802971547
127,779.9646533833313
128,779.9182989663816
129,779.8662858500186
130,779.8087828035856
131,779.7460612044578
132,779.6784938800421
133,779.6065500634007
134,779.5307865690419
135,779.4518355262265
136,779.3703893157772
137,779.2871836756493
138,779.2029801458064
139,779.118549050026
140,779.03465408589
141,778.9520393571488
142,778.8714193373481
143,778.7934718020758
144,778.718833302883
145,778.6480964456834
146,778.5818081666034
147,778.5204682859645
148,778.4645277281941
149,778.4143858960404
150,778.370386847174
151,778.3328141445248
152,778.301884468834
153,778.2777402720099
154,778.2604419645793
155,778.2499603934401
156,778.2461706050069
157,778.2488479747365
158,778.2576676365856
159,778.2722078046012
160,778.2919571638821
161,778.3163261214876
162,778.3446613932415
163,778.3762631865617
164,778.4104041456098
165,778.4463492252364
166,778.483375688265
167,778.5207924486381
168,778.5579580130778
169,778.5942962906784
170,778.6293095584124
171,778.6625879670449
172,778.6938151807731
173,778.722769997843
174,778.7493240339273
175,778.7734357886662
176,778.7951416874031
177,778.8145449340959
178,778.8318031420255
179,778.8471157083269
180,778.8607117807029
181,778.8728394408191
182,778.8837564548598
183,778.8937227076269
184,778.9029942866224
185,778.9118191008052
186,778.9204338702207
187,778.9290622829457
188,778.9379140890866
189,778.9471849114551
190,778.9570566014038
191,778.9676980203585
192,778.9792661348697
193,778.9919072606008
194,779.0057582185962
195,779.0209471238288
196,779.0375935100113
197,779.0558074815917
198,779.075687590254
199,779.0973172098542
200,779.120759347896
201,779.146050031941
202,779.1731905810667
203,779.20213922294
204,779.2328027108304
205,779.2650288407602
206,779.2986009631888
207,779.3332355869535
208,779.3685839226192
209,779.4042377459555
210,779.4397393836889
211,779.4745950982629
212,779.5082908636949
213,779.5403095280609
214,779.5701484699936
215,779.5973368628953
216,779.6214515526731
217,779.6421305020928
218,779.6590829016685
219,779.6720953895336
220,779.6810342430032
221,779.6858437873248
222,779.6865415715129
223,779.6832110901164
224,779.675992968871
225,779.6650755346704
226,779.6506855227146
227,779.6330793755234
228,779.6125352663033
229,779.5893457334164
230,779.5638106853462
231,779.536230531115
232,779.5068993120678
233,779.4760979251208
234,779.4440877298669
235,779.4111049107743
236,779.3773558978301
237,779.3430139980612
238,779.3082172502124
239,779.2730674549681
240,779.2376303462277
241,779.2019368812303
242,779.1659855927563
243,779.1297458976146
244,779.0931622370838
245,779.0561589208936
246,779.0186455005472
247,778.9805223864895
248,778.9416862867305
249,778.9020349544663
250,778.8614707541429
251,778.8199027252646
252,778.7772471145445
253,778.7334266495271
254,778.6883690028568
255,778.6420048816933
256,778.5942660226308
257,778.54508319905
258,778.4943842668919
259,778.4420923265535
260,778.3881242043764
261,778.3323895521983
262,778.2747908760476
263,778.2152247548862
264,778.1535844174358
265,778.0897636908957
266,778.0236620977171
267,777.955190594574
268,777.8842772453063
269,777.8108721280707
270,777.7349510046846
271,777.6565175808461
272,777.5756043934022
273,777.4922724568889
274,777.4066099004912
275,777.3187299930246
276,777.2287691118179
277,777.136885238449
278,777.043257404965
279,776.9480862321045
280,776.8515954645427
281,776.7540343528358
282,776.655680797219
283,776.5568451594128
284,776.4578744768139
285,776.3591565893711
286,776.261123572934
287,776.16425392671
288,776.0690731485356
289,775.9761525503147
290,775.8861063029746
291,775.7995867223048
292,775.7172777929824
293,775.639886958689
294,775.5681352769263
295,775.502746105779
296,775.4444325454464
297,775.3938839210593
298,775.3517516849555
299,775.3186352223614
300,775.2950681064314
301,775.2815053101227
302,775.2783117680641
303,775.2857525990108
304,775.3039853267616
305,775.3330545438396
306,775.3728895500424
307,775.4233054704796
308,775.484008160623
309,775.5546028676446
310,775.6346062458122
311,775.7234610258326
312,775.82055245716
313,775.9252255911612
314,776.0368025650254
315,776.1545992366856
316,776.277940687433
317,776.4061751709899
318,776.5386860986342
319,776.6749017202169
320,776.8143023306545
321,776.956425037903
322,777.1008662795954
323,777.2472823401545
324,777.3953881296933
325,777.5449544688009
326,777.6958040884733
327,777.8478065266074
328,778.000872117894
329,778.1549453420096
330,778.3099978791483
331,778.4660217571226
332,778.623022917433
333,778.7810153890599
334,778.940016078434
335,779.1000400088406
336,779.2610957302289
337,779.4231806316725
338,779.5862760340364
339,779.7503421293098
340,779.9153129454223
341,780.0810915487327
342,780.2475457503238
343,780.4145046897712
344,780.5817567480335
345,780.7490492006914
346,780.9160898487912
347,781.0825505969773
348,781.2480726436207
349,781.4122726679236
350,781.5747492122341
351,781.7350884225648
352,781.8928684610539
353,782.0476622236563
354,782.1990383825148
355,782.3465610830845
356,782.4897887897405
357,782.6282728190578
358,782.761556085779
359,782.8891725606411
360,783.0106479510432
361,783.1255021778434
362,783.2332542301777
363,783.3334297656944
364,783.4255713655647
365,783.5092508737853
366,783.5840830010246
367,783.649739380343
368,783.7059623476886
369,783.7525777353102
370,783.7895059274148
371,783.8167704445399
372,783.8345034620793
373,783.842947888028
374,783.8424558184956
375,783.8334833002764
376,783.8165814326406
377,783.7923840553542
378,783.7615925849334
379,783.7249588147893
380,783.6832665545815
381,783.6373128852935
382,783.58788969871
383,783.5357661749571
384,783.4816728748135
385,783.4262880322938
386,783.3702263714698
387,783.3140304654861
388,783.2581644622333
389,783.2030099535986
390,783.1488638045003
391,783.0959378160793
392,783.0443601192837
393,782.9941781673749
394,782.94536317884
395,782.8978159455553
396,782.8513740421697
397,782.8058205461175
398,782.7608943118794
399,782.7163016227898
400,782.6717287414659
401,782.6268546318048
402,782.5813630578573
403,782.534953421479
404,782.4873500216233
405,782.4383097592996
406,782.3876285133186
407,782.3351464083299
408,782.280752060257
409,782.2243857247092
410,782.1660411333556
411,782.1057656919984
412,782.0436586851472
413,781.9798672215504
414,781.9145798133321
415,781.8480176613897
416,781.7804239539328
417,781.7120517772993
418,781.6431514729968
419,781.5739583410126
420,781.5046815246045
421,781.4354948185626
422,781.3665300246834
423,781.2978732731226
424,781.2295644582043
425,781.1615997117856
426,781.0939367211299
427,781.0265026465238
428,780.9592043103991
429,780.8919401458473
430,780.8246131122936
431,780.7571434975303
432,780.6894803556104
433,780.6216103647066
434,780.5535631324408
435,780.485412376319
436,780.4172728682812
437,780.3492934257068
438,780.2816464811665
439,780.2145149238928
440,780.1480770852775
441,780.0824909692176
442,780.017879037833
443,779.9543149672746
444,779.8918137444405
445,779.83032626761
446,779.7697392203451
447,779.7098804129963
448,779.6505291178929
449,779.591430329286
450,779.5323115152607
451,779.4729003337632
452,779.4129418682551
453,779.3522141179657
454,779.2905407619427
455,779.2278006153985
456,779.1639336492706
457,779.0989438578986
458,779.0328995432251
459,778.9659316594707
460,778.8982307304224
461,778.8300425996892
462,778.7616630037317
463,778.6934307587123
464,778.6257193173199
465,778.5589266096309
466,778.4934633347135
467,778.4297400746917
468,778.3681537150045
469,778.30907373202
470,778.2528289963644
471,778.1996957955669
472,778.1498877350919
473,778.103548041993
474,778.0607446511159
475,778.0214683213857
476,777.985633820984
477,777.9530838937937
478,777.9235954005208
479,777.8968868787302
480,777.8726268243475
481,777.8504421915549
482,777.8299268388284
483,777.8106498350405
484,777.7921636537185
485,777.7740123512399
486,777.7557398675812
487,777.7368985770282
488,777.7170581133989
489,777.6958143429758
490,777.6727982661479
491,777.6476846403441
492,777.6202001576746
493,777.5901309791187
494,777.5573293065945
495,777.5217185305971
496,777.4832963929559
497,777.4421355977373
498,777.3983814214522
499,777.3522460969265
500,777.3039999950396
501,777.2539598556141
502,777.2024745468307
503,777.1499090895337
504,777.0966279424929
505,777.0429787491847
506,776.9892778458175
507,776.935798798235
508,776.8827650627618
509,776.830347535529
510,776.7786672548455
511,776.7278029149344
512,776.6778022952614
513,776.6286963742049
514,776.5805148331262
515,776.5333017593614
516,776.48713044838
517,776.4421162192582
518,776.3984261842344
519,776.3562850748576
520,776.3159765765132
521,776.2778401251104
522,776.2422636447732
523,776.2096730889916
524,776.180519814163
525,776.1552667958016
526,776.1343745540172
527,776.118287447745
528,776.1074207866261
529,776.1021490041805
530,776.1027949090458
531,776.109619826729
532,776.1228143847685
533,776.1424898340478
534,776.1686700427855
535,776.2012845121147
536,776.2401629062269
537,776.2850317040687
538,776.3355136648124
539,776.3911307822309
540,776.4513111849636
541,776.5153999954797
542,776.5826736279142
543,776.6523566152536
544,776.723639923032
545,776.7956997452693
546,776.8677158620734
547,776.9388887425201
548,777.0084547310827
549,777.07569884813
550,777.1399649322742
551,777.2006630652313
552,777.2572744537532
553,777.3093541132982
554,777.3565316923703
555,777.3985106224409
556,777.435065662343
557,777.4660389763758
558,777.4913350953674
559,777.510915290463
560,777.5247919077362
561,777.5330230337438
562,777.5357075554322
563,777.5329804006453
564,777.5250076447888
565,777.5119812449449
566,777.4941132944043
567,777.4716297971722
568,777.4447640619073
569,777.4137499363047
570,777.3788152166246
571,777.3401756225788
572,777.2980297090896
573,777.252555017733
574,777.2039056910272
575,777.1522117060044
576,777.0975798245585
577,777.040096287143
578,776.9798311772842
579,776.9168442419589
580,776.8511917618785
581,776.7829338702655
582,776.7121416147535
583,776.6389031204816
584,776.5633284380871
585,776.4855529666313
586,776.4057396040484
587,776.3240798847866
588,776.2407942920631
589,776.1561317644339
590,776.0703682767709
591,775.9838043326492
592,775.8967612402759
593,775.8095761259381
594,775.7225957857654
595,775.6361696843453
596,775.5506425778403
597,775.4663472651814
598,775.3835978647079
599,775.3026838742761
600,775.223865175243
601,775.1473680804609
602,775.0733824595328
603,775.0020598923908
604,774.9335127460199
605,774.8678140644429
606,774.8049981704729
607,774.7450618547576
608,774.6879660173647
609,774.6336377207097
610,774.5819727843311
611,774.5328391404172
612,774.4860810758638
613,774.4415242954008
614,774.3989815966878
615,774.3582589085815
616,774.3191614606658
617,774.2814998560297
618,774.2450957982253
619,774.2097872225522
620,774.1754326179523
621,774.1419143427484
622,774.1091406906053
623,774.0770464008757
624,774.045591316775
625,774.0147570165079
626,773.9845414678127
627,773.9549520322086
628,773.9259973805958
629,773.8976790291665
630,773.8699833097199
631,773.8428746984688
632,773.8162914968361
633,773.7901447936615
634,773.7643213851428
635,773.738690892372
636,773.7131167643093
637,773.6874702983148
638,773.6616463548854
639,773.6355791607399
640,773.6092565391667
641,773.58273111574
642,773.5561275191382
643,773.5296452380439
644,773.5035574039762
645,773.4782061566768
646,773.4539953874573
647,773.4313816484265
648,773.4108639362164
649,773.3929729098724
650,773.3782598849508
651,773.3672857155354
652,773.3606095321488
653,773.3587773163832
654,773.3623104333249
655,773.3716944028715
656,773.3873682804091
657,773.4097150231655
658,773.4390531702974
659,773.4756300732089
660,773.5196167842649
661,773.5711045957771
662,773.6301031745883
663,773.696540255164
664,773.7702628787986
665,773.8510401627631
666,773.938567568334
667,774.0324726517619
668,774.1323223410038
669,774.2376318512472
670,774.3478753914707
671,774.4624987886399
672,774.5809340148849
673,774.7026153051224
674,774.826996154308
675,774.9535661506114
676,775.0818664978938
677,775.2115032470093
678,775.3421575832205
679,775.473592851192
680,775.6056582499633
681,775.7382892895652
682,775.8715051939681
683,776.0054034934946
684,776.1401520900558
685,776.2759790820003
686,776.4131605864021
687,776.5520067394943
688,776.6928460748823
689,776.8360086188579
690,776.9818082547474
691,777.1305250872838
692,777.282388622363
693,777.4375625929979
694,777.5961322375317
695,777.7580947368573
696,777.9233532967571
697,778.0917150371837
698,778.2628925195129
699,778.4365085295298
700,778.6121037000954
701,778.7891466558681
702,778.967046486143
703,779.1451674181668
704,779.3228455371815
705,779.4994072726241
706,779.674189159948
707,779.8465581399969
708,780.0159314363596
709,780.1817949423693
710,780.3437191429751
711,780.5013719054803
712,780.6545278794008
713,780.8030745693619
714,780.9470152821099
715,781.086469120103
716,781.2216680824358
717,781.3529512341648
718,781.4807558925326
719,781.60560585315
720,781.7280967692942
721,781.8488788432185
722,781.9686370116075
723,782.0880689065347
724,782.2078611283762
725,782.328664730523
726,782.4510711345113
727,782.5755898352259
728,782.7026291722879
729,782.8324811795619
730,782.965311205408
731,783.1011527341377
732,783.239907613935
733,783.3813516153143
734,783.5251449128754
735,783.6708468134858
736,783.8179338978185
737,783.9658206151717
738,784.1138811826634
739,784.2614714362385
740,784.4079492033635
741,784.5526919011094
742,784.6951103972101
743,784.8346586582306
744,784.9708392861106
745,785.103205610911
746,785.2313614290657
747,785.3549596465405
748,785.4737009954454
749,785.5873337193971
750,785.6956547632838
751,785.7985126357011
752,785.8958117967892
753,785.987518178765
754,786.0736652549497
755,786.1543599536258
756,786.229787729259
757,786.3002162574346
758,786.3659974025529
759,786.4275672194743
760,786.4854437956806
761,786.5402227653498
762,786.5925703591757
763,786.643213921879
764,786.6929299595389
765,786.7425299547515
766,786.7928443351868
767,786.844705021659
768,786.898926919286
769,786.9562886411856
770,787.0175127577119
771,787.0832459742802
772,787.1540398180867
773,787.2303325645667
774,787.3124331838451
775,787.4005080412237
776,787.4945709807552
777,787.594477278183
778,787.6999218094584
779,787.8104417041737
780,787.9254237286469
781,788.0441165589151
782,788.1656478788382
783,788.2890459280554
784,788.4132648257896
785,788.5372127412751
786,788.6597817765813
787,788.7798782902164
788,788.8964523268029
789,789.0085248605936
790,789.1152117746421
791,789.2157438711503
792,789.3094825919853
793,789.3959313594365
794,789.4747425037633
795,789.545719742942
796,789.6088162541146
797,789.664128567097
798,789.7118867651594
799,789.7524417198315
800,789.7862502584292
801,789.8138592292293
802,789.8358893669455
803,789.8530196617584
804,789.8659726230453
805,789.8755004862788
806,789.8823721525245
807,789.887360553532
808,789.8912301994709
809,789.8947248024016
810,789.898554953885
811,789.9033858259987
812,789.9098248572063
813,789.918409505019
814,789.929595387515
815,789.9437453535928
816,789.9611200996927
817,789.9818708838684
818,790.0060347446143
819,790.0335324825471
820,790.0641695253531
821,790.097639643319
822,790.1335313234365
823,790.1713365079348
824,790.2104614050778
825,790.2502391731477
826,790.2899443865995
827,790.3288092077013
828,790.366041057863
829,790.4008413738738
830,790.4324248579308
831,790.4600385603378
832,790.4829801810705
833,790.5006151053229
834,790.5123918393134
835,790.5178556285376
836,790.5166600898422
837,790.5085766771379
838,790.4935017699299
839,790.4714611851828
840,790.4426120025653
841,790.4072417311894
842,790.3657649628311
843,790.3187177044142
844,790.2667495463427
845,790.2106137033367
846,790.1511548009233
847,790.08929417379
848,790.0260124871985
849,789.9623296919458
850,789.8992825854523
851,789.8379004696907
852,789.7791795264816
853,789.7240566235594
854,789.6733834258744
855,789.6279019495761
856,789.5882229406656
857,789.5548085019453
858,789.5279601401705
859,789.5078129211357
860,789.4943358697232
861,789.4873382919975
862,789.4864813522471
863,789.4912939242611
864,789.5011914365732
865,789.5154962830546
866,789.5334585116864
867,789.5542758852831
868,789.57711281967
869,789.6011179905217
870,789.6254405674988
871,789.6492451515048
872,789.6717255478598
873,789.6921174407315
874,789.7097098598697
875,789.723855183948
876,789.7339774167691
877,789.7395785590611
878,789.7402429325765
879,789.7356392246481
880,789.7255199269533
881,789.7097179406444
882,789.6881404563635
883,789.660760609502
884,789.6276076522088
885,789.588756436276
886,789.5443169280261
887,789.494424325385
888,789.4392301935271
889,789.3788949782729
890,789.3135822821013
891,789.2434552598255
892,789.1686753033392
893,789.0894028471554
894,789.0057997605248
895,788.9180325913632
896,788.8262760159099
897,788.7307161289308
898,788.6315534322662
899,788.5290053953554
900,788.4233083506225
901,788.3147184132267
902,788.2035111443488
903,788.0899798039947
904,787.9744322630036
905,787.8571868976612
906,787.7385679125736
907,787.6189004488456
908,787.4985056491984
909,787.3776957416493
910,787.2567692434254
911,787.1360065419032
912,787.0156662725428
913,786.8959829521667
914,786.777166188818
915,786.6594015783621
916,786.5428532505208
917,786.4276679489535
