frame_number,force
0,582.6769400000312
1,582.4634972819496
2,582.259355945117
3,582.0729810150326
4,581.9112479964178
5,581.778843016606
6,581.6778697511859
7,581.6076974223988
8,581.5650638996628
9,581.5444374610888
10,581.538637513812
11,581.5396931421615
12,581.5398634536983
13,581.5326802181639
14,581.5138459004124
15,581.4818424324832
16,581.438150560742
17,581.3870246609576
18,581.3348239989078
19,581.2889784912855
20,581.2567460015997
21,581.2439693815172
22,581.2540495729455
23,581.2873148969468
24,581.3408926169687
25,581.4090935526654
26,581.484229659557
27,581.5577187339251
28,581.6212914338722
29,581.6680974237248
30,581.69352091888
31,581.695580635937
32,581.6748924175054
33,581.6342702715443
34,581.5781030167113
35,581.5116663751295
36,581.4405138698412
37,581.3700344729438
38,581.3051900416508
39,581.2503850290261
40,581.2093955849505
41,581.1852887198611
42,581.1802796731673
43,581.1955059498637
44,581.230743628906
45,581.2841415277645
46,581.3520736483564
47,581.4291943367616
48,581.5087325330603
49,581.5830030665146
50,581.6440654892865
51,581.6844392297437
52,581.697788516701
53,581.6795075250981
54,581.6271528154924
55,581.5406866122289
56,581.4225139499035
57,581.2773143719191
58,581.1116814388306
59,580.9335985934025
60,580.7518016173271
61,580.5750927784404
62,580.4116679284855
63,580.2685036497242
64,580.1508438824575
65,580.0618286334119
66,580.002310789727
67,579.9708972758161
68,579.9642239683957
69,579.9774385193231
70,580.0048321367585
71,580.0405353887364
72,580.0791795319628
73,580.1164305186813
74,580.1493260670933
75,580.1763787279668
76,580.1974464951871
77,580.2134146841452
78,580.2257648966028
79,580.2361148122735
80,580.2458021038465
81,580.2555751696189
82,580.2654461259306
83,580.274740458996
84,580.282329726975
85,580.2869736744478
86,580.2876621934959
87,580.2838612470697
88,580.2756225446278
89,580.2635797119439
90,580.2488868969084
91,580.2331437650902
92,580.2183082438077
93,580.2065603935955
94,580.2000803412279
95,580.2007424452015
96,580.2097728195404
97,580.2274341372018
98,580.252791800088
99,580.2836034709034
100,580.3163705128957
101,580.3465833674455
102,580.3691700974748
103,580.3791186291204
104,580.3721972809493
105,580.3456571849454
106,580.2987823403315
107,580.2331743701358
108,580.1527162705269
109,580.063226076536
110,579.9718590185716
111,579.8863398640855
112,579.8141181763292
113,579.7615454848878
114,579.7331724987342
115,579.7312535062812
116,579.7555219168396
117,579.8032659832484
118,579.8696937563318
119,579.9485369584527
120,580.0328041394284
121,580.1155608265811
122,580.1906101028585
123,580.2529852698812
124,580.2992284325428
125,580.3274759341518
126,580.3373846943861
127,580.3299316813577
128,580.3071276940991
129,580.2717042550931
130,580.2268374444942
131,580.1759521421214
132,580.1226103284314
133,580.0704468743423
134,580.023093500441
135,579.9840301323536
136,579.9563217759519
137,579.9422471210731
138,579.9428990079151
139,579.9578937468268
140,579.9853161282558
141,580.021951060598
142,580.06376249633
143,580.1065224063764
144,580.1464750891179
145,580.1809282900806
146,580.2086779603507
147,580.2301952819004
148,580.2475360509277
149,580.2639753842209
150,580.2834210420242
151,580.309704855922
152,580.3458790725078
153,580.3936442211547
154,580.4530078351333
155,580.522225082858
156,580.5980137321097
157,580.675981982379
158,580.7511735640186
159,580.8186290590104
160,580.8738838538151
161,580.9133573370393
162,580.9346178549683
163,580.9365272642972
164,580.9192797809594
165,580.8843509751886
166,580.8343621690751
167,580.7728535513185
168,580.7039671410796
169,580.6320760262964
170,580.5614360005286
171,580.4959436907918
172,580.4390469437236
173,580.3937882796359
174,580.3629082779656
175,580.348921035941
176,580.3540969213532
177,580.3803256076724
178,580.428870201272
179,580.5000605323406
180,580.5929993619519
181,580.705351226624
182,580.8332576136676
183,580.9714036613921
184,581.1132602008728
185,581.2515190653637
186,581.3787076825608
187,581.4879154975482
188,581.5735173361339
189,581.6317660794876
190,581.6611552585886
191,581.6625062819098
192,581.6387993249972
193,581.5948244710194
194,581.5367503688831
195,581.4716746791954
196,581.4071637923629
197,581.3507592492442
198,581.3094407320817
199,581.2890636023955
200,581.2938058958962
201,581.3256684572592
202,581.3840875862804
203,581.4657383270593
204,581.5646072514154
205,581.6723832396987
206,581.7791600359735
207,581.8743824084245
208,581.947914718487
209,581.9910802009099
210,581.9975243962538
211,581.9637997620529
212,581.8896300038949
213,581.7778609790173
214,581.6341294299788
215,581.4662969113538
216,581.2837169239385
217,581.0964182400171
218,580.9142829948677
219,580.7462839451487
220,580.5998416357589
221,580.4803660111567
222,580.3910325904221
223,580.3328006019048
224,580.3046325113678
225,580.3038476471371
226,580.3265388629119
227,580.367990469055
228,580.4230557582644
229,580.486480166227
230,580.553177029011
231,580.6184646016955
232,580.6782621219862
233,580.7292394530538
234,580.768928580078
235,580.7958203713782
236,580.8094631897619
237,580.8105491061017
238,580.8009409932943
239,580.7835840616641
240,580.7622680610668
241,580.7412524299021
242,580.7248124011622
243,580.7167855805357
244,580.7201860140773
245,580.7369162863065
246,580.7675746518055
247,580.8113456819375
248,580.8659742479484
249,580.9278340320228
250,580.9921063222175
251,581.053087451434
252,581.1046383829155
253,581.1407618079872
254,581.1562435334349
255,581.1472591054652
256,581.1118523506179
257,581.0502286004318
258,580.9648392289469
259,580.8602536990561
260,580.7428301597694
261,580.6202114427803
262,580.5006888759963
263,580.392494398551
264,580.30310213512
265,580.2386279271218
266,580.203389273204
267,580.1996362574185
268,580.2274231910246
269,580.2845884801546
270,580.3668417138625
271,580.4679957143157
272,580.5803936174982
273,580.6955445362814
274,580.8049095422357
275,580.9007156389694
276,580.9766538716832
277,581.0283441788218
278,581.0535093802687
279,581.0518705742724
280,581.0248297013372
281,580.9750272842914
282,580.9058633320885
283,580.8210632522485
284,580.7243597832485
285,580.6193395255541
286,580.5094671511914
287,580.3982540337034
288,580.2894873411732
289,580.187398688063
290,580.0966502136931
291,580.0220590620478
292,579.9680609612374
293,579.938009817089
294,579.9334888602702
295,579.9538309643684
296,579.9959940366786
297,580.0548338409121
298,580.1237100323045
299,580.1952956347009
300,580.2624471677864
301,580.3190102201037
302,580.3604602139247
303,580.384309806354
304,580.390256403418
305,580.3800827316946
306,580.3573473669278
307,580.3269164197329
308,580.2944033371979
309,580.2655944729261
310,580.245924203318
311,580.240024827896
312,580.2513452978159
313,580.2818348712556
314,580.3317085653713
315,580.3993225553047
316,580.4811868963626
317,580.5721400952347
318,580.665698505812
319,580.7545635516037
320,580.8312349517377
321,580.8886610022076
322,580.9208600691991
323,580.9234604747123
324,580.8941263748368
325,580.8328612510365
326,580.7421890352417
327,580.6271901717257
328,580.4953322957043
329,580.3560223436509
330,580.2198450610432
331,580.0975339440864
332,579.998810086423
333,579.9312806060857
334,579.8995868910541
335,579.9049402273303
336,579.9451012342724
337,580.0147727593019
338,580.106308001583
339,580.2106063102692
340,580.31807705588
341,580.4195771333176
342,580.5072480048078
343,580.5751836372864
344,580.6198593361158
345,580.6402635661606
346,580.6377142817475
347,580.6154001289029
348,580.5777404866902
349,580.5296862269228
350,580.4760804438654
351,580.4211705907088
352,580.3683207493649
353,580.3199288604728
354,580.277520479699
355,580.2419719200471
356,580.2138050057524
357,580.1934842709359
358,580.181641466139
359,580.1791707642609
360,580.1871847808585
361,580.2068708828739
362,580.2393065776214
363,580.2852752945691
364,580.3450943164631
365,580.4184500646003
366,580.5042358757875
367,580.6004016519651
368,580.7038536081867
369,580.810470596978
370,580.9153023718499
371,581.0129691173709
372,581.0982070104653
373,581.1664466487566
374,581.2143082396474
375,581.2399380405901
376,581.243147066214
377,581.2253226119128
378,581.189090912448
379,581.1377497366738
380,581.0745625349346
381,581.0020721324701
382,580.9216083577086
383,580.8331197224301
384,580.7353793305707
385,580.6265289779628
386,580.5048480281979
387,580.3695785157503
388,580.221624062805
389,580.0639748746233
390,579.9017780428702
391,579.7420453572684
392,579.593049578651
393,579.4634960367318
394,579.3615774671678
395,579.2940406452201
396,579.265406095861
397,579.2774599538213
398,579.3290758895016
399,579.4163600340185
400,579.5330771494665
401,579.6713052654685
402,579.8222491023423
403,579.9771140110466
404,580.1279248649272
405,580.2681851323405
406,580.3933051690967
407,580.5007724669183
408,580.590078665562
409,580.6624504509167
410,580.7204531995894
411,580.7675489306686
412,580.8076856704497
413,580.8449624025858
414,580.8833613514815
415,580.9264991230447
416,580.9773447180216
417,581.0378821347778
418,581.1087405726533
419,581.1888618763269
420,581.2753068632688
421,581.3632983983747
422,581.4465512637186
423,581.5178663950858
424,581.5699039542069
425,581.5960180883342
426,581.591034932366
427,581.5518725099372
428,581.4779309884359
429,581.371223152131
430,581.2362582501866
431,581.0797202486601
432,580.9099859947836
433,580.7365213218451
434,580.5691941046698
435,580.4175593072763
436,580.2901860789448
437,580.1940923470579
438,580.1343283865662
439,580.1137200511562
440,580.1327545161957
441,580.18957640734
442,580.2800725103509
443,580.3980562790647
444,580.5355917289481
445,580.6834918846287
446,580.8319887072059
447,580.9715212160113
448,581.0935491530632
449,581.191283166295
450,581.2602303408247
451,581.2984822503336
452,581.3067178583832
453,581.2879447879018
454,581.2470384700614
455,581.1901468504346
456,581.1240189870718
457,581.0553087244241
458,580.9899115689416
459,580.9324120255137
460,580.885727718893
461,580.8510047946857
462,580.8277511879809
463,580.8141414907735
464,580.8074210701172
465,580.8043487399956
466,580.8016166082033
467,580.7961896518706
468,580.7855319158231
469,580.7677119923079
470,580.7413970855234
471,580.7057685871508
472,580.6604235997136
473,580.6053379260186
474,580.5409372727369
475,580.4682689362421
476,580.3892172982182
477,580.3066855790979
478,580.2246749554049
479,580.1482132352239
480,580.0831002745775
481,580.035447544841
482,580.0110162143844
483,580.0144152063153
484,580.0482902147593
485,580.1126800312203
486,580.2047092936806
487,580.3187203215563
488,580.4468416226947
489,580.5798910250551
490,580.7084576640957
491,580.8240023568579
492,580.9198302285598
493,580.991804223504
494,581.0386976331798
495,581.0621426229702
496,581.066203778996
497,581.0566599578021
498,581.0401036422271
499,581.0229816370272
500,581.0107177972025
501,581.0070622048731
502,581.0137788646709
503,581.0307163533067
504,581.0562233535437
505,581.0877978507095
506,581.1228152489025
507,581.1591730731002
508,581.1957130264709
509,581.232333964948
510,581.2697889177037
511,581.3092410953872
512,581.3517028156197
513,581.3974849224202
514,581.4457616106465
515,581.4943314049552
516,581.5396302052197
517,581.5770090948818
518,581.6012293930975
519,581.6070811741887
520,581.5900232830868
521,581.5467633121007
522,581.475718078497
523,581.377305758389
524,581.254032275836
525,581.1103651158697
526,580.9524353020676
527,580.7876460710884
528,580.6242650850098
529,580.4710340984278
530,580.3367776258243
531,580.2299642264786
532,580.1581823910537
533,580.1275341574373
534,580.1420074744748
535,580.202930306489
536,580.3086102381111
537,580.4542323455094
538,580.6320497704991
539,580.8318631999032
540,581.0417472304863
541,581.2489531011912
542,581.4409049016874
543,581.6062011217775
544,581.7355245002265
545,581.8223542304866
546,581.863382314661
547,581.8585758745533
548,581.8108983535553
549,581.7257773995709
550,581.6104432024525
551,581.473237211886
552,581.3229373288262
553,581.1681151554652
554,581.0165499042452
555,580.8747410569462
556,580.7475582832512
557,580.6380470174579
558,580.5473955436462
559,580.4750760401307
560,580.4191782776023
561,580.3769268550608
562,580.345305999984
563,580.3216526560601
564,580.3040743651057
565,580.2916161952279
566,580.2841950879232
567,580.282379447015
568,580.2870936339732
569,580.2992958064336
570,580.3196519011775
571,580.3482273353138
572,580.3842339509674
573,580.4258834967304
574,580.470393753377
575,580.5141645030509
576,580.5531001279331
577,580.5830267740635
578,580.6001467297026
579,580.601478054743
580,580.5852272599797
581,580.5510436486052
582,580.5001205532959
583,580.4351357043678
584,580.3600418709625
585,580.2797222337277
586,580.1995224257568
587,580.1246806458513
588,580.0597088846513
589,580.0078216632922
590,579.9705364762857
591,579.9475561560943
592,579.9369807072284
593,579.9358048826542
594,579.940576656368
595,579.9480583709212
596,579.9557604327053
597,579.9622826515898
598,579.9674531690209
599,579.9722705702555
600,579.9786465862345
601,579.9889560496849
602,580.0054514701062
603,580.0296649148867
604,580.0619401430042
605,580.1011887652479
606,580.1448868504075
607,580.1892758633405
608,580.2297150028645
609,580.2611324029365
610,580.2785258149427
611,580.2774652086516
612,580.2545513079906
613,580.2077895615066
614,580.1368497792183
615,580.0431934371912
616,579.9300583228453
617,579.8022927513398
618,579.6660371509921
619,579.5282710497057
620,579.3962749655558
621,579.2770790061826
622,579.176965721335
623,579.1010644491269
624,579.0530384947575
625,579.0348514153451
626,579.0466114861799
627,579.0865181546587
628,579.1509517986913
629,579.2347449418928
630,579.331643878459
631,579.4349254320218
632,579.5380939061926
633,579.6355572885462
634,579.7231708650464
635,579.7985491954873
636,579.8610920529699
637,579.9117343330034
638,579.9524867845239
639,579.9858640335086
640,580.0142949530234
641,580.0395880923841
642,580.0625015746813
643,580.0824560628632
644,580.0974272010641
645,580.1040498332046
646,580.0979524885946
647,580.0743104967227
648,580.0285583748647
649,579.9571523180965
650,579.8582527389251
651,579.7322233166051
652,579.5818960078191
653,579.4125905436325
654,579.2318879990293
655,579.0491606480593
656,578.8748755919526
657,578.7197193611936
658,578.59362539383
659,578.504819523355
660,578.4590240449468
661,578.4589574312732
662,578.504207850001
663,578.5914543066898
664,578.7149199497894
665,578.8669264497299
666,579.0384748441303
667,579.2198496639425
668,579.4012694543062
669,579.5735721678235
670,579.7288653432993
671,579.861042755756
672,579.9660940940913
673,580.0421902452988
674,580.0895761491755
675,580.1103235109073
676,580.1079902363799
677,580.08722375694
678,580.0533461469203
679,580.0119590181057
680,579.9685884509024
681,579.9283640979099
682,579.8957197325586
683,579.8741211623275
684,579.8658469452012
685,579.8718485876315
686,579.8917089248129
687,579.9237138584485
688,579.9650509236134
689,580.0121408540359
690,580.0610929095604
691,580.1082493502284
692,580.1507494893614
693,580.1870082648998
694,580.2169884375618
695,580.2421733306953
696,580.2652222072851
697,580.2893812611342
698,580.3177869925984
699,580.3528171884785
700,580.3956239790624
701,580.445930355421
702,580.5020928619582
703,580.561355455832
704,580.6201818434612
705,580.6745709629279
706,580.7203102147022
707,580.7531694608901
708,580.7690662312126
709,580.7642363413423
710,580.7354309417558
711,580.6801457396671
712,580.5968860381914
713,580.4854762497382
714,580.3474079602953
715,580.186176209418
716,580.0075051840956
717,579.8193474587024
718,579.631571506865
719,579.4553235276543
720,579.3021338020502
721,579.1828945977251
722,579.1068437323481
723,579.0806619919648
724,579.1077645095736
725,579.1878471879667
726,579.3167355021001
727,579.4865708818378
728,579.6863524852525
729,579.9028198766496
730,580.1216142274175
731,580.328602717926
732,580.5112059746521
733,580.6595440760414
734,580.7672290585991
735,580.8316932208766
736,580.8540397657323
737,580.8384967453219
738,580.7916130065948
739,580.7213485003356
740,580.6361922722688
741,580.5444046201037
742,580.4534393763431
743,580.3695688510952
744,580.2977079675868
745,580.2414089123946
746,580.2029745162241
747,580.1836274205575
748,580.1836768621006
749,580.2026407738633
750,580.2393036136716
751,580.2917183584684
752,580.3571870174326
753,580.4322620654299
754,580.5127947413263
755,580.5940338512701
756,580.670776515731
757,580.7375896268306
758,580.7891289602701
759,580.8205579972446
760,580.8280175476827
761,580.8090532050894
762,580.7629038626745
763,580.6905966754397
764,580.5948513565888
765,580.479832030381
766,580.3507914497828
767,580.2136484063208
768,580.0745332223426
769,579.9393239107724
770,579.8131840310268
771,579.7001216839592
772,579.602619395316
773,579.5214102771572
774,579.4554693282403
775,579.4022489087497
776,579.358134589234
777,579.319052812699
778,579.2811350451533
779,579.2413340475741
780,579.1978952855764
781,579.1506128530983
782,579.1008424246447
783,579.0512887884204
784,579.0056155670558
785,578.9679381173532
786,578.9422670266292
787,578.9319710157977
788,578.9393192070648
789,578.9651503571507
790,579.0087132209894
791,579.0677168086322
792,579.1385967654943
793,579.216950293099
794,579.2980540804118
795,579.3773738762374
796,579.4509813926509
797,579.5158039579557
798,579.5696645814803
799,579.6111376757991
800,579.6393215537294
801,579.6536636893957
802,579.6539377129046
803,579.6403755963873
804,579.6138607585082
805,579.576051503118
806,579.5293495787121
807,579.4767171719872
808,579.4214152024653
809,579.3667475795943
810,579.3158577363988
811,579.2715758682986
812,579.2362929322375
813,579.2118455100394
814,579.1994167754186
815,579.1994718195484
816,579.2117389516484
817,579.2352284859115
818,579.268266435886
819,579.3085272241179
820,579.3530724950059
821,579.3984252890192
822,579.4407181891453
823,579.4759484533391
824,579.5003548507063
825,579.5109031642261
826,579.5058301410008
827,579.4851495265629
828,579.4509860128162
829,579.4076068037257
830,579.3610834618651
831,579.3186138203947
832,579.2876153067743
833,579.2747390660978
834,579.2849590723295
835,579.3208765456865
836,579.3823403396007
837,579.4664153292114
838,579.5676629141936
839,579.6786669748567
840,579.7907433174128
841,579.8947774608631
842,579.9821232413947
843,580.0454723038524
844,580.0795935082049
845,580.0818547123662
846,580.052476355075
847,579.9945113933911
848,579.9135776797517
849,579.8173791234219
850,579.7150535114886
851,579.6163916324646
852,579.5309867488969
853,579.467389580792
854,579.4323527207192
855,579.4302454786441
856,579.4627098343476
857,579.5286096792938
858,579.6242873534628
859,579.7440847493956
860,579.8810361899464
861,580.0276193443931
862,580.176455822737
863,580.3208687462146
864,580.4552238870509
865,580.575013224594
866,580.6766956718054
867,580.7573806617265
868,580.8144973920223
869,580.8456053119745
870,580.8484552444054
871,580.8213185950947
872,580.763505505078
873,580.6759345956206
874,580.5616099350802
875,580.425885569932
876,580.276432213856
877,580.122863641261
878,579.9760404063738
879,579.8471357079908
880,579.7465964597327
881,579.6831474343979
882,579.6629730473585
883,579.6891781251978
884,579.7615808394753
885,579.8768402335459
886,580.0288828037928
887,580.2095668515968
888,580.4094980823285
889,580.6188872776507
890,580.8283365719572
891,581.0294609549834
892,581.2152874440969
893,581.3804156943936
894,581.5209644031954
895,581.6343646752895
896,581.7190889053984
897,581.774405652303
898,581.8002172414214
899,581.7969873609052
900,581.76573377397
901,581.7080581199798
902,581.6261996468282
903,581.523114789073
904,581.4025816734567
905,581.2692994043252
906,581.1289124494295
907,580.9878760564023
908,580.853113704695
909,580.7314905450409
910,580.6291963691157
911,580.551158088145
912,580.5005761201456
913,580.4786277655004
914,580.4843424331153
915,580.51464854118
916,580.564605801265
917,580.6278360282747
