acceleration,velocity,displacement
0.027029026158158272,0.0,0.0
0.026416567413671953,1.3361398392957556e-05,3.340349598239389e-09
0.025805411601530184,2.641689314675809e-05,1.32849224831683e-08
0.025196850095596912,3.9167458571039864e-05,2.968101041261779e-08
0.024592151376455613,5.1614708939052995e-05,5.237655229014101e-08
0.023992550140253022,6.376088431823016e-05,8.12204506044618e-08
0.023399237065761164,7.56088311197337e-05,1.1606287946395276e-07
0.022813349450231696,8.716197774873191e-05,1.5675558168106917e-07
0.022235962920577015,9.842430584143409e-05,2.0315215257861068e-07
0.021668084413620885,0.00010940031767498357,2.551083084577151e-07
0.021110646587472852,0.000120095000425257,3.1248213798277524e-07
0.020564503775458556,0.00013051378801598985,3.7513433509308696e-07
0.020030429535692208,0.00014066252134377753,4.4292841243302883e-07
0.019509115794066636,0.00015054740767621725,5.157308946880275e-07
0.019001173526166468,0.00016017498000627553,5.934114916086507e-07
0.01850713486956085,0.00016955205710520737,6.758432508865214e-07
0.01802745650316286,0.0001786857049483883,7.629026913999203e-07
0.017562524082838968,0.00018758320009488877,8.544699176607396e-07
0.01711265749172464,0.00019625199548852968,9.504287165565942e-07
0.016678116655898197,0.0002046996890254354,1.0506666376850855e-06
0.01625910769048351,0.0002129339951120308,1.1550750587194521e-06
0.015855789167055944,0.00022096271932641568,1.2635492373290637e-06
0.01546827831550129,0.00022879373619705498,1.3759883512099314e-06
0.015096656985687457,0.00023643497002235218,1.4922955277647832e-06
0.014740977202972606,0.00024389437856951718,1.6123778649127506e-06
0.014401266165953214,0.0002511799394117486,1.7361464444080671e-06
0.014077530555623406,0.0002582996385921428,1.86351633890904e-06
0.01376976004486226,0.0002652614612422642,1.9944066138676418e-06
0.013477929911600321,0.00027207338373137985,2.128740325111053e-06
0.013202002674645445,0.0002787433668779413,2.266444512763383e-06
0.012941928699051109,0.00028527934972136546,2.4074501919132096e-06
0.012697645763183019,0.000291689243336924,2.551692340177782e-06
0.012469077637443924,0.00029798092418708075,2.699109882058783e-06
0.012256131783086101,0.00030416222654221323,2.8496456697411066e-06
0.012058696322318955,0.0003102409335685645,3.003246459768801e-06
0.011876636445461441,0.0003162247667605096,3.1598628848510695e-06
0.011709790410738193,0.0003221213734745595,3.3194494199098368e-06
0.0115579652745805,0.0003279383123958892,3.481964341377449e-06
0.011420932479264831,0.00033368303683435055,3.647369678685009e-06
0.011298423423554577,0.0003393628758100554,3.815631156846111e-06
0.011190125145707832,0.000344985012952371,3.9867181290367175e-06
0.011095676248382662,0.00035055646330089366,4.160603498100034e-06
0.011014663184532961,0.0003560840481591226,4.337263625965038e-06
0.010946617000929084,0.0003615743682054881,4.516678230056191e-06
0.010891010607057267,0.0003670337751074847,4.698830265884434e-06
0.010847256611960412,0.0003724683419122391,4.883705795139365e-06
0.01081470575841173,0.00037788383250483213,5.071293838743633e-06
0.010792645982779186,0.00038328567044012987,5.261586214479874e-06
0.010780302133685332,0.000388678907469246,5.454577358957218e-06
0.01077683638855959,0.0003940681920998072,5.650264133849481e-06
0.010781349415040237,0.00039945773855070717,5.84864561651211e-06
0.010792882333376138,0.00040485129648781126,6.049722875271739e-06
0.010810419540880892,0.0004102521219563755,6.253498729882786e-06
0.01083289245208508,0.000415662949954617,6.459977497860534e-06
0.010859184183802894,0.000421085969113589,6.6691647276275854e-06
0.010888135176769113,0.000426522798953732,6.881066919644416e-06
0.010918549707249176,0.00043197447017473655,7.095691236926533e-06
0.010949203215961007,0.0004374414084055391,7.313045206571602e-06
0.010978850370130149,0.0004429234218020619,7.5331364141235026e-06
0.011006233769976472,0.0004484196928370885,7.75597219278329e-06
0.011030093204838672,0.0004539287745807923,7.981559309637759e-06
0.011049175353151308,0.0004594485917202898,8.209903651213029e-06
0.011062243805133517,0.000464976446509861,8.441009910770566e-06
0.011068089270852285,0.00047050902977885747,8.674881279842745e-06
0.01106553982484305,0.0004760424370527813,8.911519146550655e-06
0.011053471034411694,0.000481572189767595,9.15092280325575e-06
0.011030815818360984,0.0004870932614807882,9.393089166067845e-06
0.010996573882108234,0.0004926001089059055,9.638012508664518e-06
0.010949820575080493,0.0004980867075202027,9.885684212771045e-06
0.010889715021579672,0.0005035465914193677,1.0136092537505937e-05
0.01081550738996659,0.0005089728970222542,1.0389222409616342e-05
0.010726545187995649,0.0005143584101667448,1.0645055236413592e-05
0.010622278501404356,0.0005196956160890948,1.0903568742977551e-05
0.010502264119262115,0.0005249767517442615,1.116473683493589e-05
0.010366168506420206,0.0005301938599006821,1.1428529487847127e-05
0.010213769595659882,0.0005353388444262021,1.1694912663928847e-05
0.010044957389759041,0.0005404035261725569,1.1963848256578536e-05
0.009859733387521467,0.000545379698866877,1.2235294062838394e-05
0.009658208869412927,0.0005502591844311107,1.250920378366289e-05
0.009440602091190391,0.0005550338871712615,1.2785527051563483e-05
0.009207234441648712,0.0005596958463044713,1.3064209484932416e-05
0.008958525635807136,0.0005642372863238353,1.3345192768089492e-05
0.00869498804619452,0.0005686506647443357,1.3628414755856535e-05
0.008417220315762086,0.0005729287168348249,1.3913809601251325e-05
0.008125900428423897,0.0005770644970208714,1.4201307904715249e-05
0.007821778423015893,0.0005810514167337314,1.44908368831539e-05
0.00750566892249923,0.0005848832785701101,1.478232055697986e-05
0.0071784436199435805,0.0005885543067057209,1.5075679953298819e-05
0.006841023824179092,0.0005920591735667515,1.5370833323366936e-05
0.006494373129169095,0.0005953930228050886,1.5667696372459897e-05
0.006139490242053471,0.0005985514886478943,1.596618250032314e-05
0.00577740199372308,0.0006015307117068384,1.6266203050411825e-05
0.00540915656112384,0.0006043273513455501,1.6567667566174922e-05
0.005035816940585217,0.0006069385947209773,1.6870484052691555e-05
0.004658454716392973,0.0006093621626352219,1.7174559242030606e-05
0.004278144168840478,0.0006115963123565302,1.7479798860778543e-05
0.0038959567635062633,0.0006136398375896169,1.778610789826508e-05
0.0035129560538416874,0.000615492065793954,1.8093390874110972e-05
0.0031301930086565723,0.0006171528530595785,1.8401552103824354e-05
0.0027487017508478276,0.0006186225767494546,1.8710495961276614e-05
0.0023694956744738293,0.000619902126105785,1.9020127136990423e-05
0.0019935639008830147,0.0006209928909996241,1.9330350891266777e-05
0.0016218680385963599,0.0006218967489844939,1.9641073301262806e-05
0.001255339216798377,0.0006226160507983426,1.9952201501208515e-05
0.0008948753633617917,0.0006231536044433827,2.0263643915018947e-05
0.000541338703445853,0.0006235126579600846,2.0575310480619813e-05
0.00019555347463527932,0.000623696881004605,2.0887112865360987e-05
-0.000141696114157062,0.0006237103453447245,2.119896467194832e-05
-0.0004696676287039583,0.0006235575044090092,2.1510781634386754e-05
-0.0007876618095147918,0.0006232431720494545,2.182248180350137e-05
-0.0010950236004847419,0.0006227725006969547,2.2133985721687972e-05
-0.0013911428139671237,0.0006221509590933417,2.2445216586635548e-05
-0.0016754544651677227,0.0006213843097735579,2.2756100403852272e-05
-0.001947438824936964,0.0006204785864510318,2.306656612790842e-05
-0.0022066212531104217,0.00061944007143152,2.3376545792379056e-05
-0.002452571882168916,0.0006182752731477001,2.368597462852386e-05
-0.002684905216154339,0.0006169909038731193,2.3994791172779066e-05
-0.002903279694089052,0.0006155938576455585,2.4302937363158734e-05
-0.003107397251879487,0.0006140911884090664,2.461035862467239e-05
-0.003297002911008852,0.0006124900883683444,2.4917003943866743e-05
-0.0034718844242285886,0.000610797866534535,2.5222825932592464e-05
-0.0036318720080515876,0.000609021927426465,2.5527780881082715e-05
-0.0037768381815675364,0.0006071697498790602,2.5831828800409095e-05
-0.003906697712350356,0.0006052488659055807,2.6134933454355256e-05
-0.004021407648122575,0.0006032668395654625,2.6437062380723018e-05
-0.004120967391048208,0.0006012312458056698,2.6738186902065802e-05
-0.004205418753617588,0.0005991496492695034,2.7038282125834594e-05
-0.004274845926013725,0.0005970295830995955,2.7337326933926867e-05
-0.004329375287932808,0.0005948785277961089,2.7635303961650794e-05
-0.004369175014783213,0.0005927038902204299,2.793219956615493e-05
-0.004394454460896548,0.00059051298285151,2.8228003784422914e-05
-0.004405463347774325,0.0005883130033993423,2.8522710280985628e-05
-0.004402490829644235,0.0005861110148549876,2.881631628554921e-05
-0.004385864534233381,0.0005839139260140182,2.9108822520766463e-05
-0.004355949675752799,0.0005817284724615216,2.9400233120385348e-05
-0.004313148314548495,0.0005795611979639463,2.9690555537991713e-05
-0.004257898803332611,0.000577418436184476,2.9979800446528818e-05
-0.004190675421074889,0.0005753062926283742,3.0267981628732032e-05
-0.004111988161686118,0.0005732306267326839,3.0555115858572297e-05
-0.004022382626252537,0.0005711970340356992,3.084122277376439e-05
-0.003922439967554478,0.0005692108283872475,3.112632473937013e-05
-0.0038127768430238924,0.0005672770241846029,3.141044670251309e-05
-0.00369404533346085,0.0005654003186404817,3.169361603821936e-05
-0.00356693277782232,0.0005635850741126609,3.1975862386407644e-05
-0.0034321614683607837,0.0005618353005511151,3.225721748007359e-05
-0.003290488154712514,0.0005601546381453468,3.25377149647477e-05
-0.003142703320452142,0.0005585463402765556,3.281739020935318e-05
-0.0029896302140847964,0.0005570132568929213,3.309628010864555e-05
-0.0028321236327301697,0.0005555578184312176,3.337442287747658e-05
-0.002671068471676059,0.000554182020405116,3.3651857837185665e-05
-0.0025073780688022736,0.0005528874087699964,3.392862519447944e-05
-0.0023419923874244677,0.0005516750661559397,3.420476581321093e-05
-0.002175876089618699,0.0005505455990366789,3.448032097950908e-05
-0.0020100165495043976,0.0005494991258768982,3.4755332160737475e-05
-0.0018454218380617113,0.0005485352662800067,3.50298407587767e-05
-0.001683118680190488,0.0005476531311504436,3.5303887858134314e-05
-0.0015241503535665445,0.0005468513138920044,3.5577513969394925e-05
-0.001369574479211545,0.0005461278826838099,3.5850758768538876e-05
-0.0012204606440612024,0.0005454803739029918,3.6123660832685576e-05
-0.001077887786479075,0.0005449057867953567,3.639625737286016e-05
-0.0009429412646846195,0.0005444005795325657,3.666858396444214e-05
-0.0008167095261690245,0.0005439606668348523,3.6940674276033996e-05
-0.0007002803128074371,0.0005435814193751082,3.721255979758649e-05
-0.0005947363670729013,0.0005432576652051382,3.748426956873155e-05
-0.0005011506349203797,0.0005429836934546399,3.7755829908396494e-05
-0.0004205809794008754,0.0005427532605510596,3.802726414689792e-05
-0.0003540644238075273,0.0005425595992002574,3.829859236183575e-05
-0.00030261093913381567,0.0005423954303595221,3.856983111922569e-05
-0.0002671967875201041,0.0005422529784278586,3.8840993221422534e-05
-0.0002487574409774389,0.0005421239898707342,3.911208746349718e-05
-0.0002481801169546213,0.0005419997554812513,3.9383118399835176e-05
-0.00026629600495463903,0.0005418711364507739,3.9654086122818184e-05
-0.00030387229108840247,0.0005417285943767632,3.9924986055525066e-05
-0.0003616041077408533,0.0005415622252770559,4.019580876043852e-05
-0.00044010653702422945,0.0005413617976158646,4.046653976616175e-05
-0.0005399067852083209,0.0005411167942853065,4.073715941413704e-05
-0.0006614366356763111,0.0005408164584300853,4.100764272731589e-05
-0.0008050252903643,0.0005404498429485751,4.1277959302660554e-05
-0.0009708927223781208,0.0005400058634453895,4.1548073229259044e-05
-0.001159143674539848,0.00053947335434616,4.181794303370693e-05
-0.0013697624397447992,0.0005388411278175888,4.208752165424787e-05
-0.0016026085457712012,0.0005380980350712098,4.235675644497007e-05
-0.0018574134427842086,0.000537233029574071,4.262558921113139e-05
-0.0021337782632380067,0.0005362352316475654,4.28939562764368e-05
-0.002431172699940565,0.0005350939939067707,4.3161788582825385e-05
-0.0027489350325984063,0.000533798966973636,4.3429011823045486e-05
-0.0030862733213555434,0.0005323401648851475,4.3695546606010184e-05
-0.0034422677730585943,0.000530708029611544,4.396130865463436e-05
-0.003815874274581977,0.0005288934940996338,4.4226209035562155e-05
-0.004205929078317291,0.000526888043261409,4.449015441990242e-05
-0.004611154611756704,0.0005246837723388905,4.4753047373802496e-05
-0.005030166361975547,0.0005222734420954574,4.5014786677411086e-05
-0.0054614807628767725,0.0005196505303142443,4.527526767051351e-05
-0.005903523996567908,0.0005168092791243831,4.5534382622873165e-05
-0.006354641612708786,0.000513744737722064,4.579202112708478e-05
-0.006813108868036856,0.0005104528001018775,4.604807051154076e-05
-0.0072771416878974916,0.0005069302374628939,4.6302416270931955e-05
-0.007744908147072229,0.0005031747250041514,4.6554942511548715e-05
-0.008214540358840929,0.0004991848628776731,4.680553240851917e-05
-0.008684146658802763,0.0004949601911232622,4.7054068672019406e-05
-0.009151823982888411,0.0004905011984628394,4.730043401941593e-05
-0.009615670362184345,0.00048580932487657125,4.7544511650250784e-05
-0.010073797477237719,0.00048088695791671576,4.7786185720949104e-05
-0.010524343222960525,0.0004757374227416662,4.80253418161137e-05
-0.010965484230662511,0.0004703649658782605,4.826186741326868e-05
-0.01139544827648039,0.0004647747327514748,4.849565233792611e-05
-0.011812526478723578,0.0004589727390626738,4.872658920587965e-05
-0.012215085158948138,0.00045296583615325584,4.895457384968363e-05
-0.012601577224393833,0.00044676167055742035,4.91795057263613e-05
-0.012970552930280783,0.0004403686380187517,4.940128830350534e-05
-0.01332066989813567,0.0004337958323116476,4.961982942108794e-05
-0.013650702293339608,0.0004270529892637788,4.9835041626481795e-05
-0.013959549091531694,0.000420150426417561,5.004684248040213e-05
-0.01424624138171423,0.0004130989787992495,5.025515483170633e-05
-0.014509948662450567,0.00040590993128820826,5.045990705922819e-05
-0.014749984091500768,0.0003985949480997204,5.066103327907517e-05
-0.014965808653758713,0.00039116599991340556,5.085847351607845e-05
-0.015157034219582791,0.0003836352891950702,5.1052173838355574e-05
-0.015323425474409697,0.00037601517427157205,5.1242086454222235e-05
-0.015464900708436405,0.00036831809272586054,5.1428169770971596e-05
-0.015581531462170178,0.0003605564846832089,5.1610388415323866e-05
-0.015673541031109656,0.0003527427165598889,5.178871321563464e-05
-0.015741301840177163,0.0003448890058420672,5.196312114623513e-05
-0.015785331704720573,0.00033700734745584275,5.213359523455961e-05
-0.015806289002771368,0.00032910944227896975,5.230012443199331e-05
-0.01580496679513865,0.00032120662832949226,5.2462703449645424e-05
-0.01578228594191512,0.00031330981514522883,5.26213325605141e-05
-0.015739287270220496,0.00030542942184219493,5.277601736976096e-05
-0.015677122849750397,0.00029757531931220223,5.292676855504956e-05
-0.015597046437305466,0.00028975677699043825,5.307360157912522e-05
-0.01550040316221468,0.00028198241459055824,5.321653637702046e-05
-0.015388618538068987,0.00027426015916548734,5.335559702045948e-05
-0.015263186898545642,0.0002665972078063337,5.349081136220243e-05
-0.015125659368692656,0.00025899999623952414,5.362221066321389e-05
-0.014977631500254883,0.00025147417352228726,5.3749829205654346e-05
-0.01482073071420414,0.00024402458296867252,5.3873703894777085e-05
-0.014656603693331924,0.0002366552493667885,5.399387385286095e-05
-0.014486903849117322,0.00022936937248117618,5.411038000832294e-05
-0.014313278959824286,0.00022216932677894077,5.422326468313797e-05
-0.014137359055493865,0.00021505666727511123,5.4332571181651484e-05
-0.013960744618581955,0.0002080321413565923,5.4438343383809407e-05
-0.013784995176901538,0.00020109570640772142,5.4540625345750486e-05
-0.01361161838223744,0.00019424655301793667,5.46394609106069e-05
-0.013442059685969258,0.000187483133500885,5.47348933322366e-05
-0.013277692735167611,0.0001808031953956008,5.4826964914460724e-05
-0.013119810613318487,0.00017420381955847927,5.4915716668199244e-05
-0.012969618037254015,0.00016768146239583615,5.5001187988687826e-05
-0.012828224596786042,0.00016123200173732613,5.5083416354721114e-05
-0.012696639089603192,0.00015485078581572884,5.516243705160938e-05
-0.012575764966168154,0.000148532684801786,5.5238282919263756e-05
-0.012466396865271625,0.00014227214434392604,5.531098412655019e-05
-0.012369218197485786,0.00013606324057823668,5.538056797278073e-05
-0.01228479972286521,0.00012989973609814893,5.544705871694983e-05
-0.012213599067042486,0.000123775136400672,5.551047743507453e-05
-0.01215596112317719,0.00011768274635311707,5.557084190576298e-05
-0.01211211929433435,0.00011161572624873919,5.562816652391344e-05
-0.012082197534625173,0.00010556714704149931,5.5682462242236004e-05
-0.012066213136925442,9.953004437361166e-05,5.573373654008978e-05
-0.01206408018795358,9.34974710423919e-05,5.578199341894378e-05
-0.01207561358012503,8.746254760037226e-05,5.5827233423604474e-05
-0.012100533452207378,8.141851084228915e-05,5.586945368821514e-05
-0.012138469937935934,7.535875999475332e-05,5.59086480059244e-05
-0.012188968125831775,6.92769004788114e-05,5.594480692104279e-05
-0.012251493153748037,6.316678515891644e-05,5.5977917842452225e-05
-0.012325435364904493,5.70225530292533e-05,5.6007965176999265e-05
-0.012410115445480303,5.083866532665711e-05,5.603493048158824e-05
-0.012504789463804341,4.4609939099335946e-05,5.605879263269474e-05
-0.012608653745533431,3.83315782970015e-05,5.6079528012043827e-05
-0.012720849544774706,3.199920247442447e-05,5.609711070723668e-05
-0.012840467503351315,2.5608873212392967e-05,5.6111512726158384e-05
-0.012966551924007213,1.9157118355553334e-05,5.612270422405037e-05
-0.013098104907170146,1.2640954147758994e-05,5.61306537421762e-05
-0.013234090401602486,6.0579053205658365e-06,5.613532845704328e-05
-0.01337343819661466,-5.93976828988451e-07,5.613669443916617e-05
-0.01351504785491692,-7.316098341871346e-06,5.613471692037346e-05
-0.013657792570265243,-1.4109308448166887e-05,5.612936056867595e-05
-0.013800522938726594,-2.0973887325414846e-05,5.6120589769732554e-05
-0.01394207065111039,-2.7909535722874092e-05,5.6108368913970484e-05
-0.014081252142649279,-3.491536642131401e-05,5.609266268843444e-05
-0.014216872269512414,-4.198989752435444e-05,5.607343637244802e-05
-0.014347728109312737,-4.913104761906073e-05,5.605065613616217e-05
-0.014472612992499414,-5.6336132894513764e-05,5.6024289341033776e-05
-0.014590320859802167,-6.360186635758916e-05,5.599430484122075e-05
-0.014699651015476206,-7.092435932640876e-05,5.5960673284799745e-05
-0.014799413316772531,-7.829912540947094e-05,5.5923367413615773e-05
-0.01488843381178241,-8.572108719160967e-05,5.5882362360465504e-05
-0.014965560810490127,-9.318458584717781e-05,5.5837635942205804e-05
-0.015029671348041802,-0.0001006833938868108,5.578916894727231e-05
-0.015079677976891928,-0.00010821073121804423,5.5736945415996096e-05
-0.015114535808312244,-0.00011575928466434527,5.56809529120255e-05
-0.015133249715221899,-0.00012332123104522881,5.562118278309811e-05
-0.015134881602618833,-0.00013088826387468898,5.555763040936813e-05
-0.015118557640799642,-0.0001384516236855436,5.549029543747807e-05
-0.015083475336936656,-0.0001460021319299777,5.541918199857419e-05
-0.015028910297718856,-0.00015353022833864156,5.5344298908507033e-05
-0.014954222518271368,-0.00016102601154263912,5.526565984853671e-05
-0.014858862029149314,-0.00016847928267949428,5.518328352498118e-05
-0.014742373749648851,-0.00017587959162419382,5.5097193806405255e-05
-0.014604401431047635,-0.00018321628541936795,5.500741983714436e-05
-0.014444690620702716,-0.00019047855843230555,5.4913996126181447e-05
-0.01426309062863636,-0.00019765550374464032,5.481696261063721e-05
