frame_number,force
0,519.1222900000455
1,519.542324030837
2,519.9414436733674
3,520.3005745112918
4,520.6041039933901
5,520.8411191552636
6,521.0061588548053
7,521.0994316160504
8,521.1264929797928
9,521.0974187417789
10,521.0255608251225
11,520.9260293354425
12,520.8140883601807
13,520.7036649599169
14,520.6061472546947
15,520.5295939116409
16,520.4784046468113
17,520.4534306571561
18,520.4524555759834
19,520.4709533238617
20,520.5030122696628
21,520.5422958030466
22,520.5829074213023
23,520.6200659605507
24,520.6505544171931
25,520.6729433521737
26,520.6876010314032
27,520.6965109769114
28,520.7029308771696
29,520.7109330454178
30,520.7248663734076
31,520.7487865677831
32,520.7859157179878
33,520.8381988301209
34,520.9060161716201
35,520.9880944868443
36,521.0816451978341
37,521.1827338961222
38,521.2868375212834
39,521.3894844516262
40,521.4868361829316
41,521.5760844197624
42,521.6555958240878
43,521.7248051406632
44,521.7839041474169
45,521.8333931439699
46,521.8735745453941
47,521.9040897880772
48,521.9236154235851
49,521.929815090721
50,521.9195868917672
51,521.8895696587572
52,521.8368011097236
53,521.7593823538919
54,521.6570160029536
55,521.5313374280009
56,521.3860131567195
57,521.2266131776153
58,521.060279634051
59,520.8952256395156
60,520.740107484492
61,520.6033174016259
62,520.4922449836391
63,520.4125635344951
64,520.3676141715426
65,520.3579726362684
66,520.3812809328502
67,520.432403912226
68,520.5039250075413
69,520.5869307452061
70,520.6719742227846
71,520.750076171253
72,520.8136235512014
73,520.8570553871705
74,520.8772733186838
75,520.8737607509796
76,520.8484277679412
77,520.805225865121
78,520.7496007675771
79,520.6878628696812
80,520.6265473739599
81,520.5718156426882
82,520.5289271682957
83,520.5018050209179
84,520.4927335314159
85,520.5022429831841
86,520.529221062632
87,520.5712405250715
88,520.6250302905312
89,520.6869738774224
90,520.7535188437047
91,520.821424185044
92,520.8878313743302
93,520.9501898545624
94,521.006093600905
95,521.0530979444909
96,521.0885857587936
97,521.1097391989836
98,521.1136520140793
99,521.0975912853027
100,521.0593884845389
101,520.9979116622192
102,520.9135444355983
103,520.8085760220478
104,520.6874020070275
105,520.5564603472396
106,520.4238784886649
107,520.2988646943123
108,520.19091544206
109,520.1089254868483
110,520.0602941637271
111,520.0501328521988
112,520.0806838140185
113,520.151042306405
114,520.2572288309627
115,520.3925985997014
116,520.5485192931119
117,520.7152138139979
118,520.882657435784
119,521.041425948915
120,521.1834003710908
121,521.3022513988789
122,521.3936667197111
123,521.4553387757641
124,521.4867736856226
125,521.4889992525182
126,521.4642475551881
127,521.4156757476568
128,521.34716838884
129,521.2632303743579
130,521.1689327843523
131,521.0698353096551
132,520.9718079979884
133,520.8807190019079
134,520.8020156926375
135,520.740267989536
136,520.698753136031
137,520.6791517098137
138,520.6814076726727
139,520.7037806643044
140,520.7430823258833
141,520.7950504564781
142,520.8547980832661
143,520.9172862772687
144,520.9777905335443
145,521.0323401857244
146,521.0781060257242
147,521.1137008888777
148,521.1393494548233
149,521.1568828463188
150,521.1695253423088
151,521.181468821377
152,521.1972725335406
153,521.2211661387333
154,521.2563593050994
155,521.3044713245756
156,521.3651861709417
157,521.4362009908808
158,521.5134760199713
159,521.591740688874
160,521.6651800872484
161,521.728206981852
162,521.7762086235746
163,521.8061542584138
164,521.8169695668231
165,521.8096271590181
166,521.786956997801
167,521.7532294435316
168,521.7135895065798
169,521.6734224410453
170,521.6377211459944
171,521.6105178334335
172,521.5944424418623
173,521.5904725549433
174,521.5979225644376
175,521.6146703955745
176,521.6375618378839
177,521.6629044797833
178,521.6869730703393
179,521.7064694539307
180,521.7188917117502
181,521.7227740927308
182,521.7177782076425
183,521.7046467331019
184,521.6850520729034
185,521.6613713713097
186,521.6364118742792
187,521.6131121973614
188,521.5942432483396
189,521.5821167590228
190,521.5783009598168
191,521.5833629966128
192,521.5966891376012
193,521.6164436205704
194,521.6397055118855
195,521.6627854334562
196,521.6816892646713
197,521.6926705718533
198,521.6927921372071
199,521.6803971993866
200,521.6553846021704
201,521.6192069605768
202,521.5745744158099
203,521.5249310695802
204,521.4738362455747
205,521.4243940171141
206,521.3788347263265
207,521.3382919862494
208,521.3027632868097
209,521.2712045403345
210,521.2416996538024
211,521.211666715384
212,521.1780914787043
213,521.1377911046785
214,521.0877050654453
215,521.0252013928109
216,520.9483788045924
217,520.8563297248172
218,520.749311432209
219,520.6287770248932
220,520.4972565516703
221,520.3581281123396
222,520.2153391076416
223,520.0731150160927
224,519.9356562171811
225,519.806812684596
226,519.6897479729731
227,519.5866297912155
228,519.4983922047921
229,519.4246073951136
230,519.3634935692565
231,519.3120713673875
232,519.266461590432
233,519.2222937369222
234,519.1751720330027
235,519.1211321927248
236,519.0570303357847
237,518.9808340591101
238,518.8918104848162
239,518.7906063576186
240,518.6792025293023
241,518.5607286609322
242,518.439151271087
243,518.3188777928347
244,518.204331245585
245,518.0995479301772
246,518.0078482493271
247,517.931630485519
248,517.8723261603825
249,517.8305247895504
250,517.8062356806847
251,517.7992204985567
252,517.8093074081057
253,517.8365889698463
254,517.8814241057081
255,517.9442166744732
256,518.0250136347647
257,518.1230242089164
258,518.2361867110001
259,518.360897967584
260,518.4919795651979
261,518.6229017546183
262,518.7462381616252
263,518.8542903594671
264,518.9397978461499
265,518.9966376242787
266,519.0204246740295
267,519.0089455362308
268,518.9623811813157
269,518.8833011276084
270,518.7764402849377
271,518.6482961696752
272,518.50659856658
273,518.3597075427872
274,518.2159955444805
275,518.0832664623101
276,517.9682545691334
277,517.8762292607619
278,517.8107150301644
279,517.7733272853494
280,517.7637287359247
281,517.7797284164373
282,517.8175596278974
283,517.8723581552526
284,517.9388131190638
285,518.0119052746784
286,518.0876097509203
287,518.1634307391739
288,518.2386513991804
289,518.3142238684555
290,518.3922948083855
291,518.4754515651206
292,518.5658542556523
293,518.6644588804361
294,518.770519861922
295,518.8814898499674
296,518.9933316496598
297,519.101156050913
298,519.2000297820156
299,519.2857736850285
300,519.355592689468
301,519.4084326095991
302,519.4450216901449
303,519.4676142619122
304,519.4795098931023
305,519.4844647046089
306,519.4861195111588
307,519.4875366632086
308,519.4908894402777
309,519.497315065057
310,519.5069336269423
311,519.5190371394829
312,519.5324438492838
313,519.5459787347764
314,519.5589900121854
315,519.5717734038985
316,519.5857804121796
317,519.6035380788237
318,519.6282850637622
319,519.6634045827664
320,519.7117831072704
321,519.7752282808398
322,519.8540466884459
323,519.9468376472756
324,520.0505235453156
325,520.1606116136884
326,520.2716562275773
327,520.3778604428475
328,520.4737313406574
329,520.5546990196957
330,520.6176208251212
331,520.6611105311201
332,520.6856549675374
333,520.6935055574108
334,520.6883530403708
335,520.6748179379834
336,520.6578305841288
337,520.6420176181575
338,520.6312176042252
339,520.6282011599441
340,520.6345963584795
341,520.6509559787931
342,520.6768762254349
343,520.7111002857205
344,520.751603192684
345,520.7957137400829
346,520.8403372373001
347,520.8822888652778
348,520.9186694463788
349,520.9471728108017
350,520.9662396340781
351,520.9750460433484
352,520.973382119604
353,520.9614958013431
354,520.9399543915998
355,520.9095401602561
356,520.8711750392248
357,520.8258673206637
358,520.7746811568157
359,520.718734120309
360,520.6592195536838
361,520.5974345603842
362,520.5347899618249
363,520.4727911720546
364,520.4129914565375
365,520.3569194742456
366,520.3059825716306
367,520.2613576517725
368,520.22389679656
369,520.1940837281894
370,520.1720718155419
371,520.1578100777978
372,520.1512258576942
373,520.1523996340559
374,520.1616597639744
375,520.1795530803334
376,520.2066981998903
377,520.2435686920635
378,520.290258732323
379,520.3462643945456
380,520.4103006553902
381,520.48018507239
382,520.5528369869266
383,520.6244324420537
384,520.6907105747855
385,520.7473756188908
386,520.7905163288104
387,520.8169810942295
388,520.8246790377447
389,520.8127949423708
390,520.7819031359728
391,520.7339606120443
392,520.6721666856773
393,520.6006920144195
394,520.5242974140422
395,520.4478828971434
396,520.3760281718104
397,520.3125973235047
398,520.2604713913607
399,520.2214432770436
400,520.196273606661
401,520.1848775312226
402,520.1865943424652
403,520.2004834309989
404,520.2255929846633
405,520.2611609800404
406,520.3067248837384
407,520.3621291771972
408,520.427425222572
409,520.502662874014
410,520.5875908683553
411,520.6813144159264
412,520.7819845946718
413,520.8865991604356
414,520.9909790957606
415,521.0899522272786
416,521.1777282662742
417,521.2484087150558
418,521.2965628918248
419,521.3178137409705
420,521.3093860361827
421,521.2705577417208
422,521.2029377866671
423,521.110497870446
424,520.9993208348999
425,520.8770803535795
426,520.7523150649074
427,520.6335881002402
428,520.5286292664225
429,520.4435552232942
430,520.3822609736371
431,520.3460656837511
432,520.3336664682834
433,520.3414075394411
434,520.3638203605025
435,520.3943450894824
436,520.42611664237
437,520.4526974035865
438,520.4686611982233
439,520.4699760266686
440,520.454189638213
441,520.4204691405487
442,520.3695553622683
443,520.3036655617818
444,520.2263449068388
445,520.1422514529849
446,520.0568601897892
447,519.9760803855095
448,519.9057964256046
449,519.8513690509579
450,519.8171628644135
451,519.8061737844747
452,519.8198041152796
453,519.8577940127909
454,519.9182977723978
455,519.9980910174706
456,520.0928845124267
457,520.1976973971701
458,520.3072314998815
459,520.4162008900771
460,520.5195933891351
461,520.6128628948796
462,520.692071221996
463,520.7540057113688
464,520.7962875115635
465,520.8174691094777
466,520.8171126049748
467,520.7958353571073
468,520.7552988576286
469,520.6981131586924
470,520.6276462724607
471,520.5477539647401
472,520.462459644432
473,520.3756149656994
474,520.2905756971946
475,520.2099424844724
476,520.1354239663638
477,520.067856211401
478,520.0073630886307
479,519.9535993995543
480,519.9060076312463
481,519.8640365837675
482,519.8272925061306
483,519.7956043377161
484,519.7689903198491
485,519.747530630485
486,519.7311852188342
487,519.7196290031286
488,519.7121768685632
489,519.7078295081508
490,519.7054188985392
491,519.7038062987258
492,519.7020867659585
493,519.6997573081932
494,519.6968055173197
495,519.6936921005893
496,519.6912399934807
497,519.6904764712408
498,519.6924738612622
499,519.698208256395
500,519.7084382015423
501,519.7236094827941
502,519.7438009819219
503,519.7687261589873
504,519.7977952154315
505,519.8302248941634
506,519.8651619760137
507,519.9017817841868
508,519.9393450569404
509,519.9772277286977
510,520.0149510261257
511,520.0522273302183
512,520.0890151520266
513,520.12555870546
514,520.1623803004991
515,520.2002007446663
516,520.2397811504028
517,520.2816976403614
518,520.3260734960737
519,520.3723077960672
520,520.4188568107
521,520.4631330933197
522,520.5015766188976
523,520.5299244101625
524,520.5436704105424
525,520.5386710159861
526,520.511813207302
527,520.461632202159
528,520.3887632664271
529,520.2961402584506
530,520.1888931566466
531,520.0739351589036
532,519.9592720293623
533,519.8531166619181
534,519.7629376477191
535,519.6945920820096
536,519.651680877058
537,519.6352248093748
538,519.6437014444973
539,519.6734143883476
540,519.719099195579
541,519.774630267689
542,519.8337016103526
543,519.8904004846448
544,519.9396427609261
545,519.9774720754419
546,520.001243545894
547,520.0097180319755
548,520.0030786890514
549,519.9828533816296
550,519.9517117275698
551,519.9131303421979
552,519.8709743850914
553,519.829084576791
554,519.7909556201213
555,519.7595547057997
556,519.7372858522212
557,519.726070974411
558,519.7274917912226
559,519.7429224185606
560,519.7735914098087
561,519.8205452270073
562,519.8845257246651
563,519.9658009672148
564,520.0639956886537
565,520.1779619717971
566,520.3057168470699
567,520.4444544832954
568,520.5906240471097
569,520.740055643095
570,520.8881161617157
571,521.029882600883
572,521.1603294623895
573,521.2745382891794
574,521.3679501486314
575,521.4366838201553
576,521.4779190886554
577,521.4903003205723
578,521.4742734222989
579,521.4322537446249
580,521.3685466819927
581,521.2890017527167
582,521.2004535831351
583,521.1100620940675
584,521.0246848254266
585,520.9503842554999
586,520.8921034620034
587,520.8534719508634
588,520.8366747009981
589,520.8423476460656
590,520.8695201621265
591,520.9156612181799
592,520.9768829798104
593,521.0483262755739
594,521.1247088165353
595,521.2009689206643
596,521.2729023773086
597,521.3376827339964
598,521.3941730517623
599,521.4429680384799
600,521.4861459998798
601,521.5267667933164
602,521.5682186291642
603,521.6135585333939
604,521.6649753371198
605,521.7234422285109
606,521.7885661042382
607,521.8586142194381
608,521.9306952380695
609,522.001067031706
610,522.0655276212104
611,522.119826476814
612,522.1600279269128
613,522.1827827023798
614,522.1855120953899
615,522.1665456655062
616,522.1252470540643
617,522.0621268544406
618,521.9789149097392
619,521.8785646036072
620,521.7651782250506
621,521.6438564262145
622,521.5204745724303
623,521.4013787648977
624,521.292990181506
625,521.2013180162625
626,521.1314054397063
627,521.0867605695149
628,521.0688468114832
629,521.0767187469029
630,521.1068899000148
631,521.1535037537475
632,521.2088398510342
633,521.2641228054669
634,521.3105364826151
635,521.3403035652617
636,521.3476728012158
637,521.3296537835714
638,521.286361081309
639,521.2208901854234
640,521.1387399109934
641,521.0468899536862
642,520.9527060917877
643,520.8628667343212
644,520.7824918227232
645,520.7146156557378
646,520.6600770667196
647,520.6178110262916
648,520.5854402971879
649,520.5600106840071
650,520.5386998182615
651,520.5193546402787
652,520.5007692164272
653,520.4826897751526
654,520.4656072454718
655,520.4504426992727
656,520.438228639802
657,520.4298488642039
658,520.4258571078507
659,520.4263717099474
660,520.4310315261671
661,520.4389865429073
662,520.4488924308041
663,520.4588923013059
664,520.4665962119086
665,520.469091549798
666,520.4630239126515
667,520.4447822763408
668,520.4108077884857
669,520.3580175484075
670,520.2842956719605
671,520.1889706759376
672,520.0731844492461
673,519.9400645975734
674,519.7946391813156
675,519.6434835129609
676,519.4941491082803
677,519.3544666450651
678,519.2318247340788
679,519.1325146471956
680,519.0612103925379
681,519.0206306169096
682,519.011408609593
683,519.0321758530969
684,519.0798345312585
685,519.1499586901432
686,519.2372408092775
687,519.335909048525
688,519.4400826392094
689,519.5440826404904
690,519.6427328488179
691,519.7316592407327
692,519.8075557443676
693,519.8683651114972
694,519.913333023688
695,519.9429163945549
696,519.9585548641063
697,519.9623474469563
698,519.956700683156
699,519.944011888991
700,519.9264267024977
701,519.9056866571402
702,519.8830698685954
703,519.8594211260211
704,519.8352606270043
705,519.8109494415734
706,519.78687803182
707,519.7636431358811
708,519.7421891483855
709,519.7238979791742
710,519.7106074126481
711,519.7045314660226
712,519.7080630568336
713,519.7234677619264
714,519.7525184251806
715,519.7961500509309
716,519.8542157496145
717,519.9254002572694
718,520.007308908653
719,520.096706191909
720,520.1898431040354
721,520.2828054157253
722,520.3718386302028
723,520.4536355260993
724,520.5255821152535
725,520.5859475831106
726,520.6339929320698
727,520.6699753275724
728,520.6950404035329
729,520.7110188358745
730,520.7201706751639
731,520.7249377964285
732,520.7277561019638
733,520.7309440791545
734,520.7366444554431
735,520.7467831991761
736,520.7630362245192
737,520.7868278043985
738,520.8193834178165
739,520.8618213029331
740,520.9152264114415
741,520.9806369673013
742,521.0588966901626
743,521.1503777537517
744,521.2546299034491
745,521.3700279118432
746,521.4934808335975
747,521.6202660573101
748,521.744067225743
749,521.857301546028
750,521.9517882294997
751,522.0197255564708
752,522.0548324563918
753,522.0534246306411
754,522.0151865839418
755,521.9434789159784
756,521.8451400563323
757,521.7298392466889
758,521.60908703972
759,521.4950345805623
760,521.3992146999688
761,521.3313817280351
762,521.2985759858344
763,521.304487682765
764,521.3491506933287
765,521.4289698393183
766,521.5370704693662
767,521.6639484740703
768,521.7983837367485
769,521.928549565608
770,522.0432041116378
771,522.1328085087955
772,522.1904110111823
773,522.2121785972873
774,522.1975297408687
775,522.1488938921312
776,522.0711742183734
777,521.9710150813671
778,521.8559791392429
779,521.7337333119566
780,521.6113401488143
781,521.4947468218477
782,521.3885387757509
783,521.2959686834932
784,521.2191973353495
785,521.159621658821
786,521.1181443361947
787,521.095266406341
788,521.0909461768822
789,521.1042528994832
790,521.1329377968042
791,521.1731099530431
792,521.2191964290299
793,521.2642816817405
794,521.3008028314015
795,521.3214744654994
796,521.3202616389904
797,521.2932195175568
798,521.2390567289175
799,521.159336497141
800,521.0582953089803
801,520.9423237324606
802,520.8191994005413
803,520.6971763615973
804,520.5840299718691
805,520.4861563652764
806,520.4078375328182
807,520.3507874365679
808,520.3140685834558
809,520.2944115342863
810,520.2868972893159
811,520.2858884164906
812,520.2860334426447
813,520.2831417229405
814,520.2747516629149
815,520.2602936003494
816,520.2408564542478
817,520.2186680141853
818,520.1964565304169
819,520.1768562598363
820,520.1619641296941
821,520.1530870608939
822,520.1506715202431
823,520.1543823806629
824,520.1632851112755
825,520.1760775675502
826,520.1913204879208
827,520.2076323723403
828,520.2238311970037
829,520.2390040186556
830,520.2524743904306
831,520.2636512671755
832,520.2717961853185
833,520.2758053294721
834,520.2741205478167
835,520.2648377550871
836,520.2459936913557
837,520.2159298169189
838,520.1736019373917
839,520.118742965112
840,520.0518639344367
841,519.974141322285
842,519.8872586014659
843,519.793259765996
844,519.6944560600152
845,519.5934087400447
846,519.4929798005554
847,519.3963985446123
848,519.307259198938
849,519.2293773493318
850,519.1664930853628
851,519.1218724753677
852,519.0978821335433
853,519.0955976100145
854,519.1144907768602
855,519.1522454186298
856,519.2047621107517
857,519.2664041903798
858,519.3304898581277
859,519.3899671833256
860,519.4381551424485
861,519.4694219873174
862,519.4797044399722
863,519.4668252416626
864,519.4306106063451
865,519.3728282240169
866,519.2969724040362
867,519.207930803885
868,519.1115749601669
869,519.0143164210918
870,518.9226622366612
871,518.8427924357817
872,518.780170867685
873,518.7391950542717
874,518.722896468105
875,518.7327166544054
876,518.7683956642956
877,518.8280085797088
878,518.9081718462608
879,519.0044176120919
880,519.1117063048805
881,519.2250178117014
882,519.3399345211022
883,519.4531162221621
884,519.5625769494583
885,519.6677075854543
886,519.7690395953837
887,519.8678032050015
888,519.96537745648
889,520.0627431998192
890,520.1600357476345
891,520.256265945659
892,520.3492478832752
893,520.435745759154
894,520.5118322913714
895,520.5734247725434
896,520.6169243416002
897,520.6398456756665
898,520.6413170382655
899,520.622363813225
900,520.585941152457
901,520.5367256025346
902,520.4807053159795
903,520.4246303920245
904,520.3753938208813
905,520.3394022303113
906,520.3219796640336
907,520.3268490766826
908,520.3557493867692
909,520.4082439833128
910,520.4817492724449
911,520.5717769060577
912,520.6723599829106
913,520.7766222080485
914,520.8774424383556
915,520.9681640483739
916,521.04329725732
917,521.0991527155934
