frame_number,force
0,879.8816912086057
1,879.8830872398422
2,879.8839108423762
3,879.8841436081811
4,879.883768519208
5,879.8827701437979
6,879.8811348259621
7,879.8788508652276
8,879.8759086850479
9,879.8723009883329
10,879.8680228992496
11,879.8630720906476
12,879.8574488956862
13,879.8511564006021
14,879.844200514106
15,879.8365900086491
16,879.8283365298056
17,879.8194545714184
18,879.8099614151485
19,879.7998770336455
20,879.7892239573281
21,879.7780271061905
22,879.7663135899388
23,879.75411248146
24,879.7414545696018
25,879.728372097363
26,879.7148984913225
27,879.7010680880726
28,879.6869158635675
29,879.6724771708347
30,879.6577874897857
31,879.6428821903788
32,879.6277963082186
33,879.6125643303445
34,879.5972199882209
35,879.5817960547629
36,879.5663241427837
37,879.5508345033967
38,879.5353558241271
39,879.5199150274717
40,879.504537071279
41,879.4892447525965
42,879.4740585166838
43,879.4589962731268
44,879.4440732215833
45,879.4293016904321
46,879.4146909922592
47,879.4002473005763
48,879.3859735523371
49,879.3718693806559
50,879.3579310818237
51,879.3441516205122
52,879.3305206768201
53,879.3170247381029
54,879.3036472371284
55,879.2903687363757
56,879.2771671566957
57,879.2640180472738
58,879.2508948928494
59,879.2377694536618
60,879.2246121339049
61,879.2113923753537
62,879.1980790732681
63,879.1846410106866
64,879.1710473048691
65,879.1572678571499
66,879.1432737962364
67,879.1290379055458
68,879.114535026995
69,879.0997424358793
70,879.0846401835188
71,879.0692114059261
72,879.0534425978176
73,879.0373238517348
74,879.020849061752
75,879.0040160904404
76,878.9868268970192
77,878.9692876244189
78,878.9514086433552
79,878.933204552151
80,878.914694131495
81,878.8959002533824
82,878.8768497433523
83,878.8575731950791
84,878.8381047365829
85,878.8184817481796
86,878.7987445338836
87,878.778935949736
88,878.7591009937362
89,878.7392863627105
90,878.7195399823123
91,878.6999105179992
92,878.6804468769717
93,878.661197712618
94,878.6422109431902
95,878.6235332952671
96,878.605209880319
97,878.5872838096573
98,878.5697958499575
99,878.5527841194144
100,878.5362838237835
101,878.5203270314161
102,878.5049424859724
103,878.490155454479
104,878.4759876073706
105,878.4624569268268
106,878.4495776401757
107,878.4373601760409
108,878.4258111419023
109,878.4149333225604
110,878.4047256993705
111,878.3951834899505
112,878.3862982076604
113,878.3780577399493
114,878.3704464446982
115,878.3634452636772
116,878.357031852157
117,878.3511807238111
118,878.3458634102481
119,878.3410486343954
120,878.3367024966282
121,878.3327886725394
122,878.329268621728
123,878.3261018074014
124,878.3232459265572
125,878.3206571500116
126,878.318290370873
127,878.3160994594979
128,878.3140375225939
129,878.3120571638487
130,878.3101107433367
131,878.3081506333402
132,878.3061294691
133,878.3040003939104
134,878.3017172984838
135,878.2992350547103
136,878.2965097442242
137,878.2934988827743
138,878.2901616420032
139,878.2864590703764
140,878.2823543143866
141,878.2778128400138
142,878.2728026531373
143,878.2672945163346
144,878.2612621581467
145,878.2546824694759
146,878.2475356809332
147,878.2398055152762
148,878.231479310333
149,878.2225481090352
150,878.2130067136312
151,878.2028537009844
152,878.1920913958401
153,878.1807257998361
154,878.1687664760962
155,878.1562263918657
156,878.1431217238828
157,878.1294716325451
158,878.115298011394
159,878.1006252180707
160,878.0854797921172
161,878.0698901643418
162,878.0538863621314
163,878.0374997149584
164,878.0207625642965
165,878.0037079821084
166,877.9863695017593
167,877.9687808644871
168,877.950975783644
169,877.9329877284242
170,877.9148497289691
171,877.8965942052222
172,877.8782528220968
173,877.8598563732672
174,877.8414346954213
175,877.8230166140638
176,877.804629920653
177,877.7863013789506
178,877.7680567562685
179,877.7499208731659
180,877.7319176634614
181,877.7140702354557
182,877.6964009250356
183,877.6789313318455
184,877.661682331088
185,877.6446740557859
186,877.6279258470958
187,877.6114561727943
188,877.5952825159893
189,877.5794212373359
190,877.5638874145584
191,877.5486946628562
192,877.5338549391591
193,877.5193783328018
194,877.5052728456338
195,877.491544166069
196,877.4781954436106
197,877.4652270721999
198,877.4526364918748
199,877.4404180185062
200,877.4285627106477
201,877.4170582808348
202,877.4058890566904
203,877.3950359958066
204,877.3844767577244
205,877.3741858356753
206,877.36413474934
207,877.3542922975723
208,877.3446248671495
209,877.3350967906043
210,877.3256707436667
211,877.316308171326
212,877.3069697311576
213,877.2976157430918
214,877.2882066357612
215,877.2787033804743
216,877.2690679047303
217,877.2592634785037
218,877.2492550686909
219,877.2390096595432
220,877.2284965386735
221,877.2176875489616
222,877.2065573069104
223,877.1950833883732
224,877.1832464832082
225,877.1710305211955
226,877.1584227721423
227,877.1454139231693
228,877.131998135613
229,877.1181730831895
230,877.1039399723842
231,877.0893035455302
232,877.0742720664949
233,877.0588572881944
234,877.0430744005561
235,877.0269419575482
236,877.0104817825702
237,876.9937188523317
238,876.9766811599377
239,876.9593995582533
240,876.9419075848091
241,876.9242412694754
242,876.9064389257427
243,876.8885409257553
244,876.8705894586919
245,876.8526282721252
246,876.8347023966535
247,876.8168578551048
248,876.7991413586176
249,876.781599992695
250,876.76428089691
251,876.7472309424215
252,876.7304964118701
253,876.7141226867333
254,876.698153948152
255,876.6826328984175
256,876.6676005108843
257,876.6530958153318
258,876.6391557238508
259,876.6258148999351
260,876.6131056713465
261,876.601057985821
262,876.5896994077624
263,876.5790551536046
264,876.5691481632957
265,876.559999205001
266,876.5516270093747
267,876.5440484287471
268,876.5372786155855
269,876.5313312138353
270,876.5262185563621
271,876.5219518615687
272,876.5185414220899
273,876.5159967782233
274,876.5143268689851
275,876.513540155045
276,876.5136447103076
277,876.5146482817846
278,876.5165583197789
279,876.519381982109
280,876.5231261175378
281,876.5277972349104
282,876.5334014652038
283,876.5399445230213
284,876.5474316721769
285,876.5558676979252
286,876.5652568869496
287,876.5756030153134
288,876.5869093437938
289,876.5991786193136
290,876.6124130807273
291,876.6266144667835
292,876.6417840233935
293,876.6579225065635
294,876.6750301771007
295,876.6931067838519
296,876.7121515336008
297,876.7321630473314
298,876.7531393041393
299,876.7750775755572
300,876.797974354425
301,876.8218252836326
302,876.8466250909535
303,876.8723675361964
304,876.8990453756913
305,876.9266503472163
306,876.955173176944
307,876.9846036092533
308,877.0149304599909
309,877.0461416936377
310,877.0782245247921
311,877.1111655440851
312,877.1449508675572
313,877.1795663067276
314,877.2149975547286
315,877.2512303822645
316,877.2882508356031
317,877.3260454274781
318,877.36460131121
319,877.4039064287713
320,877.4439496246289
321,877.4847207188712
322,877.5262105354193
323,877.5684108837381
324,877.6113144946848
325,877.6549149124986
326,877.6992063454285
327,877.7441834771869
328,877.789841240789
329,877.8361745564779
330,877.8831780370007
331,877.9308456657784
332,877.9791704551308
333,878.0281440920087
334,878.0777565779845
335,878.1279958693137
336,878.1788475224547
337,878.230294350862
338,878.282316099773
339,878.3348891461322
340,878.3879862301151
341,878.441576222915
342,878.4956239331415
343,878.5500899522305
344,878.6049305383218
345,878.6600975381921
346,878.7155383476573
347,878.7711959117513
348,878.827008766548
349,878.882911124585
350,878.9388330053605
351,878.9947004113726
352,879.0504355491076
353,879.1059570938291
354,879.1611804970644
355,879.2160183358675
356,879.2703807027484
357,879.3241756346603
358,879.3773095791806
359,879.429687896139
360,879.4812153928136
361,879.5317968896968
362,879.5813378118762
363,879.6297447990974
364,879.676926325951
365,879.7227933223796
366,879.7672597839496
367,879.8102433612842
368,879.8516659185739
369,879.8914540519559
370,879.9295395599196
371,879.9658598598711
372,880.000358347264
373,880.0329846957006
374,880.0636950976237
375,880.0924524455809
376,880.119226453861
377,880.1439937201541
378,880.1667377272936
379,880.1874487863042
380,880.2061239238262
381,880.2227667191495
382,880.2373870978456
383,880.2500010896492
384,880.2606305579251
385,880.2693029076979
386,880.2760507794987
387,880.2809117368246
388,880.2839279549066
389,880.2851459173105
390,880.2846161248634
391,880.2823928187757
392,880.2785337168075
393,880.2730997584688
394,880.2661548531883
395,880.2577656244883
396,880.2480011434677
397,880.2369326460465
398,880.2246332298542
399,880.2111775275813
400,880.1966413538233
401,880.181101322341
402,880.1646344310985
403,880.1473176141712
404,880.1292272625574
405,880.1104387191766
406,880.09102575596
407,880.0710600428381
408,880.0506106198659
409,880.0297433849225
410,880.0085206106062
411,879.9870005052429
412,879.965236834067
413,879.9432786169566
414,879.9211699180214
415,879.8989497396087
416,879.8766520290793
417,879.8543058012863
418,879.8319353735466
419,879.8095607038761
420,879.7871978182485
421,879.7648593091621
422,879.7425548859665
423,879.7202919570384
424,879.698076224872
425,879.6759122773512
426,879.6538041614174
427,879.6317559280717
428,879.6097721394335
429,879.5878583293386
430,879.5660214090343
431,879.5442700095188
432,879.5226147529289
433,879.5010684476704
434,879.4796462051735
435,879.4583654792455
436,879.437246031314
437,879.4163098263454
438,879.395580865162
439,879.3750849598342
440,879.3548494600934
441,879.3349029398142
442,879.3152748528624
443,879.2959951669899
444,879.2770939836689
445,879.2586011510514
446,879.240545876382
447,879.2229563430656
448,879.2058593365641
449,879.1892798826696
450,879.1732409014469
451,879.1577628799495
452,879.1428635663453
453,879.1285576873562
454,879.1148566901522
455,879.1017685090548
456,879.0892973563311
457,879.0774435351602
458,879.0662032720804
459,879.0555685664976
460,879.0455270561814
461,879.0360618997491
462,879.0271516793002
463,879.0187703280291
464,879.0108870883178
465,879.0034665051064
466,878.9964684575169
467,878.9898482297248
468,878.983556620923
469,878.9775400941834
470,878.9717409646616
471,878.9660976283171
472,878.9605448328113
473,878.9550139924502
474,878.9494335488405
475,878.9437293781677
476,878.9378252446928
477,878.9316432985173
478,878.9251046142323
479,878.9181297658452
480,878.9106394320688
481,878.9025550242499
482,878.8937993271456
483,878.8842971414583
484,878.8739759173421
485,878.8627663696856
486,878.8506030676454
487,878.8374249917405
488,878.823176051752
489,878.8078055586126
490,878.7912686444339
491,878.7735266269761
492,878.754547317385
493,878.734305272032
494,878.7127819904163
495,878.6899660610585
496,878.665853256142
497,878.6404465741018
498,878.6137562285766
499,878.5857995828765
500,878.5566010313522
501,878.5261918318539
502,878.4946098954492
503,878.4618995397043
504,878.4281112104206
505,878.3933011750414
506,878.3575311899867
507,878.3208681438249
508,878.2833836777313
509,878.2451537839628
510,878.206258382662
511,878.1667808773856
512,878.126807689818
513,878.0864277740161
514,878.0457321109078
515,878.0048131849474
516,877.9637644459997
517,877.9226797598432
518,877.8816528507023
519,877.8407767400143
520,877.8001431871562
521,877.7598421389957
522,877.7199611950933
523,877.680585094335
524,877.6417952274365
525,877.6036691785484
526,877.5662802980779
527,877.5296973077252
528,877.4939839379721
529,877.459198598343
530,877.4253940815048
531,877.392617303037
532,877.3609090792697
533,877.3303039463808
534,877.3008300253998
535,877.2725089395078
536,877.245355791077
537,877.2193792054603
538,877.1945814465937
539,877.1709586066972
540,877.1485008695386
541,877.1271928441058
542,877.1070139628415
543,877.0879389357616
544,877.0699382497376
545,877.0529787020625
546,877.0370239590798
547,877.0220351328462
548,877.0079713704247
549,876.9947904509188
550,876.9824493846113
551,876.9709050067316
552,876.9601145563448
553,876.9500362297828
554,876.9406296984838
555,876.9318565828279
556,876.9236808760263
557,876.916069314814
558,876.9089916959423
559,876.9024211387136
560,876.8963342939254
561,876.8907114990446
562,876.8855368788973
563,876.8807983914271
564,876.8764878194722
565,876.8726007113171
566,876.8691362739419
567,876.8660972229508
568,876.8634895923836
569,876.861322506746
570,876.8596079176137
571,876.8583603083935
572,876.8575963724338
573,876.8573346706094
574,876.8575952744189
575,876.858399400055
576,876.8597690384524
577,876.8617265862384
578,876.8642944825214
579,876.8674948562956
580,876.871349188903
581,876.8758779955621
582,876.8811005294284
583,876.8870345110654
584,876.8936958858849
585,876.9010986122903
586,876.9092544838518
587,876.9181729893193
588,876.9278612139511
589,876.9383237842956
590,876.9495628568689
591,876.961578150044
592,876.9743670179412
593,876.9879245645793
594,877.0022437956948
595,877.0173158046932
596,877.0331299879947
597,877.0496742832523
598,877.0669354220461
599,877.0848991877622
600,877.1035506700399
601,877.1228745091853
602,877.1428551265593
603,877.1634769390334
604,877.1847245563422
605,877.2065829598773
606,877.2290376611837
607,877.2520748385494
608,877.2756814502173
609,877.2998453226448
610,877.3245552123493
611,877.3498008407113
612,877.3755729022932
613,877.4018630478514
614,877.4286638429945
615,877.4559687030655
616,877.4837718049803
617,877.5120679776286
618,877.5408525738504
619,877.570121328604
620,877.5998702090498
621,877.6300952622948
622,877.6607924655569
623,877.6919575819753
624,877.7235860236932
625,877.7556727225423
626,877.7882120079474
627,877.821197491386
628,877.8546219563591
629,877.8884772519536
630,877.9227541869117
631,877.9574424203806
632,877.9925303457768
633,878.0280049654402
634,878.0638517555844
635,878.1000545226829
636,878.1365952532115
637,878.1734539586503
638,878.210608517723
639,878.2480345186586
640,878.2857051055892
641,878.323590834276
642,878.3616595426759
643,878.3998762413866
644,878.4382030280822
645,878.4765990290269
646,878.5150203700555
647,878.5534201793756
648,878.5917486251259
649,878.629952991242
650,878.6679777951449
651,878.7057649497993
652,878.7432539712455
653,878.7803822314208
654,878.8170852552245
655,878.8532970600496
656,878.8889505350189
657,878.9239778559066
658,878.9583109304596
659,878.9918818677525
660,879.0246234644785
661,879.0564697008732
662,879.087356239506
663,879.1172209213969
664,879.146004255366
665,879.1736498974301
666,879.2001051170466
667,879.225321246367
668,879.249254107886
669,879.2718644151762
670,879.2931181408578
671,879.3129868459096
672,879.3314479650729
673,879.3484850440544
674,879.3640879247233
675,879.3782528743046
676,879.3909826541487
677,879.4022865234607
678,879.412180173456
679,879.4206855879261
680,879.4278308275519
681,879.4336497375238
682,879.4381815806446
683,879.4414706008923
684,879.4435655253643
685,879.4445190150997
686,879.4443870766216
687,879.443228445964
688,879.4411039561343
689,879.4380758981918
690,879.434207385467
691,879.4295617294831
692,879.4242018347586
693,879.4181896182895
694,879.411585458531
695,879.4044476781019
696,879.396832063955
697,879.388791428117
698,879.3803752112437
699,879.3716291305299
700,879.3625948733728
701,879.3533098387403
702,879.3438069289749
703,879.3341143952617
704,879.324255739974
705,879.3142496785717
706,879.3041101625498
707,879.2938464632705
708,879.2834633146882
709,879.2729611109315
710,879.2623361520479
711,879.2515809281299
712,879.2406844296398
713,879.2296324711656
714,879.2184080174522
715,879.2069915039403
716,879.1953611481806
717,879.1834932519919
718,879.1713624961702
719,879.1589422300068
720,879.1462047575301
721,879.133121621815
722,879.1196638880348
723,879.1058024248719
724,879.0915081827128
725,879.0767524666179
726,879.0615072026397
727,879.0457451967038
728,879.0294403851483
729,879.0125680756178
730,878.9951051772982
731,878.9770304206496
732,878.9583245679212
733,878.9389706156824
734,878.9189539891504
735,878.8982627260729
736,878.8768876465483
737,878.8548225051644
738,878.832064123071
739,878.8086124991994
740,878.7844709007269
741,878.7596459327234
742,878.7341475863523
743,878.7079892649717
744,878.681187788369
745,878.6537633765519
746,878.6257396150584
747,878.5971434034265
748,878.5680048882671
749,878.5383573830289
750,878.5082372773531
751,878.4776839386528
752,878.4467396070252
753,878.4154492825778
754,878.3838606023553
755,878.352023702492
756,878.3199910604635
757,878.2878173130856
758,878.2555590480819
759,878.223274569226
760,878.1910236359361
761,878.1588671778203
762,878.1268669841246
763,878.0950853680192
764,878.0635848060389
765,878.0324275533656
766,878.0016752357208
767,877.9713884182368
768,877.941626151093
769,877.9124454917587
770,877.8839010050297
771,877.8560442444857
772,877.8289232217652
773,877.8025818725073
774,877.777059529662
775,877.7523904159065
776,877.7286031668677
777,877.705720395688
778,877.6837583076042
779,877.6627263714792
780,877.6426270542012
781,877.6234556231443
782,877.6052000204492
783,877.5878408104088
784,877.5713511986412
785,877.5556971200531
786,877.5408373919739
787,877.5267239287283
788,877.5133020140876
789,877.5005106286349
790,877.488282830126
791,877.4765461861932
792,877.4652232598473
793,877.454232148692
794,877.4434870782626
795,877.4328990485585
796,877.4223765307886
797,877.4118262086131
798,877.4011537552439
799,877.3902646357782
800,877.3790649238217
801,877.3674621223262
802,877.3553659796197
803,877.3426892922736
804,877.3293486868804
805,877.3152653734078
806,877.3003658635995
807,877.2845826487205
808,877.2678548318626
809,877.2501287112102
810,877.2313583119994
811,877.2115058658333
812,877.1905422362112
813,877.1684472889659
814,877.1452102066493
815,877.1208297469284
816,877.0953144457022
817,877.0686827647702
818,877.0409631815215
819,877.012194215583
820,876.9824243860817
821,876.95171209355
822,876.9201254218424
823,876.8877418570357
824,876.85464792188
825,876.8209387259558
826,876.786717433192
827,876.7520946499242
828,876.7171877384018
829,876.6821200625286
830,876.6470201742285
831,876.6120209497439
832,876.5772586850803
833,876.5428721590565
834,876.509001671843
835,876.4757880670898
836,876.4433717463767
837,876.4118916850471
838,876.3814844584257
839,876.3522832875026
840,876.3244171136021
841,876.2980097117965
842,876.2731788521522
843,876.2500355162249
844,876.2286831742701
845,876.2092171274775
846,876.1917239194764
847,876.176280821609
848,876.1629553959766
849,876.1518051388368
850,876.1428772051279
851,876.1362082133134
852,876.1318241285526
853,876.1297402216734
854,876.1299611020094
855,876.1324808237163
856,876.1372830665626
857,876.1443413922159
858,876.1536195755832
859,876.1650720084856
860,876.1786441705724
861,876.1942731602778
862,876.2118882770139
863,876.2314116448955
864,876.2527588680869
865,876.2758397082108
866,876.3005587750778
867,876.3268162232059
868,876.3545084479277
869,876.38352877598
870,876.4137681463747
871,876.4451157784109
872,876.4774598251425
873,876.5106880121683
874,876.5446882626926
875,876.5793493099231
876,876.6145612970429
877,876.6502163636973
878,876.6862092168907
879,876.7224376837905
880,876.7588032440124
881,876.7952115390214
882,876.8315728561485
883,876.8678025847037
884,876.9038216420911
885,876.9395568685225
886,876.9749413894808
887,877.0099149452242
888,877.0444241862112
889,877.0784229323332
890,877.1118723926535
891,877.1447413420073
892,877.1770062520869
893,877.2086513768414
894,877.2396687934441
895,877.2700584000006
896,877.2998278703756
897,877.3289925659144
898,877.3575754034576
899,877.3856066785372
900,877.4131238419072
901,877.4401712268556
902,877.4667997246266
903,877.4930664060148
904,877.5190340882635
905,877.5447708472489
906,877.5703494755879
907,877.5958468882309
908,877.6213434784213
909,877.6469224286434
910,877.6726689832323
911,877.6986696914146
912,877.7250116309921
913,877.7517816231652
914,877.7790654482352
915,877.8069470708156
916,877.8355078824765
917,877.8648259697675
