frame_number,force
0,879.881455847844
1,879.886757175045
2,879.8915475922489
3,879.8957602098475
4,879.8993285485013
5,879.9021873823164
6,879.9042735750133
7,879.9055269001267
8,879.9058908377611
9,879.9053133432108
10,879.903747585793
11,879.9011526569833
12,879.8974942422332
13,879.8927452413542
14,879.8868863138031
15,879.879906323347
16,879.8718026616191
17,879.8625814372868
18,879.8522575225057
19,879.8408544509482
20,879.8284041653978
21,879.8149466202398
22,879.8005292540703
23,879.7852063565593
24,879.7690383585459
25,879.7520910745583
26,879.7344349249804
27,879.7161441643295
28,879.697296142539
29,879.677970623276
30,879.6582491735688
31,879.638214625027
32,879.6179505948211
33,879.5975410470895
34,879.5770698713636
35,879.5566204536466
36,879.5362752190041
37,879.5161151310609
38,879.4962191408647
39,879.4766635833382
40,879.4575215235034
41,879.4388620565923
42,879.4207495669949
43,879.4032429528992
44,879.3863948273789
45,879.3702507114741
46,879.3548482391868
47,879.3402163976327
48,879.3263748272819
49,879.3133332071169
50,879.301090748639
51,879.2896358222872
52,879.2789457393322
53,879.2689867091322
54,879.2597139846465
55,879.2510722002316
56,879.2429958976011
57,879.2354102293586
58,879.228231824642
59,879.2213697992421
60,879.2147268947531
61,879.2082007365639
62,879.201685203266
63,879.1950718947643
64,879.1882516734387
65,879.1811162389243
66,879.1735596902132
67,879.1654800317344
68,879.1567805899457
69,879.1473713189839
70,879.137169984798
71,879.1261032254885
72,879.1141074909075
73,879.1011298664165
74,879.0871287833897
75,879.0720746138151
76,879.0559501414447
77,879.0387508999708
78,879.0204853698655
79,879.0011750281766
80,878.9808542471524
81,878.9595700369612
82,878.9373816261327
83,878.9143598720931
84,878.8905864944857
85,878.8661531278318
86,878.8411601981237
87,878.81571563695
88,878.7899334527131
89,878.7639321815219
90,878.7378332445406
91,878.7117592472457
92,878.6858322674923
93,878.660172187597
94,878.6348951264118
95,878.610112020726
96,878.5859273928373
97,878.5624383243112
98,878.5397336389035
99,878.5178932860032
100,878.4969879117103
101,878.477078604217
102,878.4582167981818
103,878.4404443176226
104,878.4237935316871
105,878.4082875963976
106,878.3939407586583
107,878.3807587044778
108,878.3687389395678
109,878.3578711957622
110,878.3481378595033
111,878.3395144184944
112,878.3319699211646
113,878.3254674431898
114,878.3199645562673
115,878.3154137950403
116,878.3117631183304
117,878.3089563620989
118,878.3069336833332
119,878.3056319940779
120,878.3049853835682
121,878.3049255270496
122,878.3053820830066
123,878.306283083374
124,878.3075553215084
125,878.3091247403459
126,878.3109168197585
127,878.312856959288
128,878.31487085058
129,878.3168848323976
130,878.3188262205214
131,878.3206236069849
132,878.3222071279739
133,878.3235087046385
134,878.3244622637793
135,878.3250039463264
136,878.3250723128953
137,878.3246085586667
138,878.323556752954
139,878.3218641191892
140,878.3194813672835
141,878.3163630835583
142,878.3124681758641
143,878.3077603640602
144,878.3022086979793
145,878.2957880766908
146,878.2884797376348
147,878.2802716854203
148,878.2711590365353
149,878.2611442624408
150,878.2502373154748
151,878.23845562054
152,878.225823914875
153,878.2123739226597
154,878.1981438621494
155,878.1831777970773
156,878.1675248559969
157,878.1512383504187
158,878.1343748247275
159,878.1169930684903
160,878.0991531171045
161,878.0809152628115
162,878.0623390959842
163,878.0434825956296
164,878.0244012876703
165,878.0051474891412
166,877.9857696546127
167,877.9663118370305
168,877.9468132700911
169,877.9273080764224
170,877.9078251068494
171,877.8883879187231
172,877.8690149023839
173,877.8497195635317
174,877.8305109667309
175,877.8113943412341
176,877.7923718431805
177,877.7734434578379
178,877.7546080135008
179,877.73586426699
180,877.7172120115287
181,877.6986531525589
182,877.6801926959887
183,877.6618395964111
184,877.6436074206711
185,877.6255147949497
186,877.607585619013
187,877.5898490456116
188,877.5723392338899
189,877.5550948927853
190,877.5381586335204
191,877.521576149388
192,877.5053952379047
193,877.4896646785604
194,877.4744329822195
195,877.4597470368161
196,877.4456506856523
197,877.432183285061
198,877.4193782948932
199,877.4072619573067
200,877.3958521156754
201,877.3851572164766
202,877.375175526478
203,877.3658945902998
204,877.3572909502448
205,877.3493301471019
206,877.3419670132062
207,877.3351462566286
208,877.3288033197256
209,877.3228654789501
210,877.3172531390991
211,877.311881267002
212,877.3066609078558
213,877.3015007305166
214,877.2963085534749
215,877.2909928083847
216,877.285463902775
217,877.2796354508703
218,877.2734253532772
219,877.2667567196544
220,877.2595586380174
221,877.2517667981416
222,877.2433239775081
223,877.2341803998464
224,877.224293979498
225,877.2136304686505
226,877.2021635273006
227,877.1898747356312
228,877.176753564892
229,877.1627973178697
230,877.1480110457279
231,877.1324074445924
232,877.1160067316573
233,877.0988364961222
234,877.080931516348
235,877.0623335340446
236,877.0430909794758
237,877.0232586457768
238,877.0028973132531
239,876.9820733259941
240,876.9608581237738
241,876.9393277316334
242,876.917562207001
243,876.895645040094
244,876.8736625000255
245,876.8517029190353
246,876.8298559108067
247,876.8082115242995
248,876.7868593400615
249,876.7658875203742
250,876.7453818278938
251,876.7254246302227
252,876.7060939102817
253,876.6874623053901
254,876.6695962033822
255,876.652554930905
256,876.6363900725637
257,876.6211449558102
258,876.6068543260584
259,876.593544223621
260,876.5812320627865
261,876.569926905433
262,876.5596299169002
263,876.5503349897024
264,876.5420295198309
265,876.5346953187993
266,876.528309640882
267,876.5228462997932
268,876.5182768439325
269,876.514571755527
270,876.5117016371245
271,876.5096383483915
272,876.5083560554692
273,876.507832154016
274,876.5080480285217
275,876.5089896182294
276,876.5106477740811
277,876.513018407149
278,876.5161024422871
279,876.5199056002706
280,876.5244380396921
281,876.5297138973381
282,876.5357507696424
283,876.5425691741254
284,876.550192019203
285,876.5586440991713
286,876.5679516231231
287,876.5781417815099
288,876.5892423496331
289,876.6012813234478
290,876.6142865804628
291,876.6282855560906
292,876.6433049219082
293,876.6593702480066
294,876.6765056301923
295,876.6947332663918
296,876.714072974136
297,876.7345416498077
298,876.7561526789837
299,876.7789153154463
300,876.8028340539619
301,876.8279080285502
302,876.8541304728078
303,876.8814882789097
304,876.9099616850832
305,876.9395241107129
306,876.9701421496188
307,877.0017757278972
308,877.0343784310978
309,877.0678980046288
310,877.1022770308197
311,877.1374537842129
312,877.1733632603771
313,877.2099383632614
314,877.2471112254767
315,877.2848146265975
316,877.3229834656154
317,877.3615562358682
318,877.4004764472039
319,877.4396939419753
320,877.4791660571739
321,877.5188585938016
322,877.5587465668294
323,877.5988147231075
324,877.639057826439
325,877.679480716184
326,877.7200981480388
327,877.7609344235183
328,877.8020228108355
329,877.8434047603164
330,877.8851289258922
331,877.9272500166356
332,877.9698275110999
333,878.0129242687522
334,878.0566050688791
335,878.1009351022021
336,878.1459784381835
337,878.1917964936222
338,878.2384465333788
339,878.2859802368474
340,878.3344423604175
341,878.3838695166988
342,878.4342890790533
343,878.4857182098328
344,878.5381630061648
345,878.5916177586665
346,878.64606432384
347,878.7014716167257
348,878.7577952343694
349,878.8149772220846
350,878.8729459927232
351,878.9316164045143
352,878.9908899980777
353,879.0506553910409
354,879.110788829821
355,879.1711548999687
356,879.2316073962025
357,879.291990351279
358,879.3521392220425
359,879.411882232274
360,879.4710418717391
361,879.529436545043
362,879.5868823534095
363,879.6431949817182
364,879.698191654329
365,879.7516931162808
366,879.8035255922485
367,879.8535226751967
368,879.9015270992309
369,879.9473923556562
370,879.9909841183286
371,880.0321814547356
372,880.0708778112499
373,880.1069817712715
374,880.1404175909231
375,880.1711255180877
376,880.1990618986196
377,880.2241990717649
378,880.2465250580582
379,880.2660430483701
380,880.2827707119698
381,880.296739352381
382,880.3079929484853
383,880.3165871209501
384,880.3225880612978
385,880.3260714579557
386,880.3271214542159
387,880.3258296751599
388,880.322294359211
389,880.3166196227409
390,880.3089148742114
391,880.2992943791604
392,880.2878769601197
393,880.2747857992538
394,880.2601482998081
395,880.2440959572444
396,880.2267641922758
397,880.2082921044068
398,880.1888221125431
399,880.168499454653
400,880.1474715198875
401,880.1258869863691
402,880.103894740775
403,880.0816425659665
404,880.0592755999411
405,880.0369345880755
406,880.0147539660188
407,879.9928598219873
408,879.9713677960976
409,879.9503809819852
410,879.9299879035452
411,879.9102606478618
412,879.8912532427485
413,879.8730003702132
414,879.855516502143
415,879.8387955304
416,879.8228109411507
417,879.8075165540979
418,879.7928478141151
419,879.778723590222
420,879.765048409745
421,879.751715036866
422,879.7386072951225
423,879.7256030318193
424,879.7125771279974
425,879.6994044700267
426,879.6859628152555
427,879.6721354991897
428,879.65781394136
429,879.6428999109813
430,879.6273075134532
431,879.6109648581705
432,879.5938153722498
433,879.5758187367046
434,879.5569514385159
435,879.5372069482415
436,879.5165955447764
437,879.495143816121
438,879.4728938692205
439,879.4499022861642
440,879.426238870004
441,879.4019852285619
442,879.3772332448852
443,879.3520834786683
444,879.3266435375848
445,879.3010264527052
446,879.2753490865623
447,879.2497305954655
448,879.2242909612843
449,879.1991496038968
450,879.1744240836366
451,879.1502289016462
452,879.1266744032147
453,879.1038657849903
454,879.081902202719
455,879.0608759718696
456,879.0408718478204
457,879.0219663658897
458,879.0042272177359
459,878.9877126426151
460,878.9724708201495
461,878.9585392634755
462,878.945944224452
463,878.934700132761
464,878.924809095415
465,878.916260480347
466,878.9090305987114
467,878.9030824906616
468,878.8983658141541
469,878.8948168372544
470,878.8923585391381
471,878.8909008301626
472,878.8903409052472
473,878.8905637470157
474,878.8914427951382
475,878.8928407950559
476,878.8946108329596
477,878.8965975561691
478,878.8986385708713
479,878.9005660030925
480,878.9022082020705
481,878.9033915556566
482,878.9039423762612
483,878.9036888088614
484,878.9024627144264
485,878.900101490883
486,878.8964498029025
487,878.8913611961297
488,878.8846995707808
489,878.8763404886563
490,878.8661722923694
491,878.8540970268398
492,878.840031166233
493,878.8239061597852
494,878.8056688151727
495,878.7852815368492
496,878.7627224291408
497,878.7379852640454
498,878.7110793081046
499,878.6820290055705
500,878.6508735261106
501,878.617666199589
502,878.5824738701401
503,878.545376201204
504,878.5064649541168
505,878.4658432523273
506,878.4236248368373
507,878.3799333154099
508,878.3349014045053
509,878.2886701579487
510,878.2413881731296
511,878.19321076522
512,878.1442990995643
513,878.0948192711754
514,878.0449413218848
515,877.9948381919276
516,877.9446846089405
517,877.8946559190322
518,877.8449268647059
519,877.7956703189416
520,877.7470559934349
521,877.6992491456962
522,877.6524093099589
523,877.6066890716821
524,877.5622328986742
525,877.5191760359875
526,877.4776434664449
527,877.4377489334397
528,877.3995940195148
529,877.363267275783
530,877.3288434025786
531,877.2963824872245
532,877.2659293091422
533,877.2375127282528
534,877.2111451819529
535,877.1868223268967
536,877.1645228689376
537,877.1442086233915
538,877.1258248381853
539,877.1093007982166
540,877.0945507146519
541,877.0814748893964
542,877.0699611309376
543,877.0598863829081
544,877.0511185160725
545,877.0435182342093
546,877.0369410540067
547,877.0312393316684
548,877.0262643181317
549,877.0218682278324
550,877.0179063017765
551,877.0142388353736
552,877.0107331299761
553,877.0072653207645
554,877.0037220356259
555,877.0000018486346
556,876.9960165047786
557,876.9916919067236
558,876.9869688660634
559,876.9818036274552
560,876.976168173825
561,876.9700503167641
562,876.9634535722325
563,876.9563968221368
564,876.9489137690007
565,876.9410521999506
566,876.9328730816367
567,876.9244495070434
568,876.9158655098677
569,876.9072147564262
570,876.8985991243059
571,876.8901271829865
572,876.8819125999461
573,876.8740725002466
574,876.86672580665
575,876.859991583662
576,876.8539874060732
577,876.8488277718527
578,876.8446225792391
579,876.8414756869477
580,876.8394835746199
581,876.8387341184294
582,876.8393054939803
583,876.8412652157388
584,876.8446693208774
585,876.8495617068927
586,876.8559736361832
587,876.8639234240364
588,876.8734163253065
589,876.8844446283026
590,876.8969879557487
591,876.9110137670904
592,876.9264780542945
593,876.943326221003
594,876.9614941309143
595,876.9809093066892
596,877.0014922546399
597,877.0231578811973
598,877.0458169572642
599,877.0693775820889
600,877.0937466024691
601,877.1188309546117
602,877.1445389107238
603,877.170781224179
604,877.19747217132
605,877.2245304864367
606,877.2518801848586
607,877.2794512697244
608,877.3071803186016
609,877.3350109452999
610,877.3628941325568
611,877.3907884355315
612,877.4186600622033
613,877.4464828397315
614,877.474238074102
615,877.5019143077201
616,877.52950697995
617,877.5570179998153
618,877.5844552472823
619,877.6118320278313
620,877.639166510542
621,877.666481179459
622,877.6938023219315
623,877.7211595686073
624,877.7485854903249
625,877.7761152495093
626,877.8037862992844
627,877.8316381215469
628,877.8597119928172
629,877.888050761568
630,877.9166986140563
631,877.945700801452
632,877.9751033023896
633,878.0049524020202
634,878.0352941788163
635,878.0661738996504
636,878.0976353281831
637,878.1297199518441
638,878.1624661334622
639,878.1959081985474
640,878.2300754770923
641,878.2649913253522
642,878.3006721554389
643,878.3371264986752
644,878.3743541242222
645,878.4123452296136
646,878.4510797167668
647,878.4905265676796
648,878.5306433380757
649,878.5713757915761
650,878.6126576975622
651,878.6544108114199
652,878.6965450486261
653,878.7389588577961
654,878.781539793759
655,878.824165288348
656,878.8667036117552
657,878.9090150108971
658,878.950953004657
659,878.9923658102812
660,879.0330978714289
661,879.0729914574653
662,879.1118883066246
663,879.1496312924692
664,879.1860661009779
665,879.2210429104285
666,879.2544180658155
667,879.2860557355554
668,879.3158295334375
669,879.3436240842495
670,879.3693365078161
671,879.3928777951054
672,879.4141740527864
673,879.4331675969346
674,879.449817878301
675,879.4641022193998
676,879.4760163402519
677,879.4855746473997
678,879.4928102601208
679,879.4977747495021
680,879.5005375724298
681,879.50118519372
682,879.4998199030779
683,879.4965583480791
684,879.4915298197386
685,879.4848743405868
686,879.476740611817
687,879.4672838749213
688,879.4566637380785
689,879.4450420127374
690,879.4325806017843
691,879.4194394750139
692,879.4057747597464
693,879.3917369667025
694,879.3774693658229
695,879.3631065235506
696,879.348773010696
697,879.3345822867639
698,879.3206357623768
699,879.3070220380022
700,879.2938163170968
701,879.2810799955315
702,879.2688604343087
703,879.2571909261643
704,879.2460908675218
705,879.2355661452024
706,879.2256097417796
707,879.2162025552683
708,879.2073144197608
709,879.198905303336
710,879.1909266458608
711,879.1833227832278
712,879.1760323922697
713,879.1689898883508
714,879.1621267175127
715,879.1553725047544
716,879.1486560438173
717,879.1419061340611
718,879.1350522815221
719,879.1280252844527
720,879.1207577223257
721,879.1131843647285
722,879.1052425132979
723,879.0968722844235
724,879.0880168341807
725,879.0786225248004
726,879.0686390354198
727,879.0580194235259
728,879.0467201429057
729,879.0347010216542
730,879.0219252053322
731,879.0083590766831
732,878.9939721693273
733,878.9787370922968
734,878.9626294738355
735,878.945627921284
736,878.927713985753
737,878.9088721197255
738,878.8890896220319
739,878.8683565728337
740,878.8466657654858
741,878.8240126405443
742,878.8003952232788
743,878.7758140651115
744,878.7502721934692
745,878.7237750803181
746,878.6963306417069
747,878.6679492779803
748,878.6386439622896
749,878.6084303876928
750,878.5773271866575
751,878.5453562343902
752,878.5125430379866
753,878.4789172012397
754,878.4445129435095
755,878.4093696415049
756,878.373532357765
757,878.3370523230801
758,878.2999873513389
759,878.262402176656
760,878.2243687067171
761,878.1859661835427
762,878.1472812392518
763,878.1084078337942
764,878.0694470632733
765,878.0305068292154
766,877.9917013592863
767,877.9531505675817
768,877.9149792393149
769,877.8773160250593
770,877.8402922372992
771,877.8040404558191
772,877.7686929641727
773,877.734380053561
774,877.7012282412893
775,877.6693584574111
776,877.6388842537783
777,877.6099100841658
778,877.5825296948127
779,877.5568246562328
780,877.5328630626518
781,877.5106984227266
782,877.4903687585931
783,877.4718959179745
784,877.4552850911093
785,877.4405245164828
786,877.4275853573881
787,877.4164217322863
788,877.4069708844265
789,877.3991534810206
790,877.3928740395852
791,877.3880214875477
792,877.3844698687656
793,877.3820792145015
794,877.3806965948988
795,877.3801573607121
796,877.3802865747722
797,877.3809006184548
798,877.3818089430423
799,877.3828159255726
800,877.3837227875356
801,877.3843295400301
802,877.3844369250799
803,877.3838483265849
804,877.3823716267226
805,877.3798209866583
806,877.3760185344894
807,877.370795947412
808,877.3639959194456
809,877.355473511788
810,877.3450973892218
811,877.3327509500335
812,877.3183333566757
813,877.3017604721001
814,877.2829657071044
815,877.2619007880651
816,877.2385364563356
817,877.2128631039217
818,877.1848913351218
819,877.1546524279012
820,877.1221986597617
821,877.087603462985
822,877.0509613796842
823,877.0123877940399
824,876.9720184261296
825,876.9300085787115
826,876.8865321349199
827,876.8417803116129
828,876.7959601811505
829,876.7492929832866
830,876.7020122565112
831,876.6543618219902
832,876.606593651732
833,876.5589656475006
834,876.5117393530844
835,876.4651776231567
836,876.4195422751001
837,876.3750917517631
838,876.3320788227303
839,876.290748352299
840,876.2513351650836
841,876.2140620419939
842,876.1791378762852
843,876.1467560108862
844,876.1170927684237
845,876.0903061800243
846,876.0665349199022
847,876.0458974554874
848,876.0284914216401
849,876.0143932211255
850,876.0036578452372
851,875.9963189013965
852,875.9923888297748
853,875.9918592898721
854,875.9947017030956
855,876.0008679478577
856,876.0102912132116
857,876.0228870190589
858,876.0385544046205
859,876.0571772760034
860,876.0786258922276
861,876.102758459027
862,876.1294227923632
863,876.1584580100408
864,876.1896962100265
865,876.2229640972279
866,876.2580845261126
867,876.2948779342639
868,876.3331636501584
869,876.3727610652631
870,876.4134906661035
871,876.4551749282926
872,876.4976390828424
873,876.5407117738531
874,876.5842256326466
875,876.6280177939648
876,876.6719303749653
877,876.7158109301837
878,876.7595128892863
879,876.8028959815877
880,876.8458266509708
881,876.8881784643112
882,876.9298325147752
883,876.9706778202042
884,877.0106117179477
885,877.0495402601355
886,877.0873786151408
887,877.124051480366
888,877.1594935078036
889,877.1936497368276
890,877.2264760205943
891,877.257939428994
892,877.2880186166112
893,877.316704154818
894,877.3439988335161
895,877.3699179360594
896,877.3944894850155
897,877.4177544516521
898,877.4397669185262
899,877.4605941804159
900,877.4803167634744
901,877.4990283373978
902,877.5168354936609
903,877.5338573658928
904,877.5502250735717
905,877.5660809740806
906,877.5815777111816
907,877.5968770525001
908,877.6121485155745
909,877.6275677913173
910,877.6433149850417
911,877.6595727067473
912,877.676524050512
913,877.6943505046729
914,877.7132298306597
915,877.7333339427321
916,877.7548268175838
917,877.7778624636719
