frame_number,force
0,592.0490100000499
1,591.9934289169017
2,591.9367645034466
3,591.8780635119674
4,591.8166289127304
5,591.7521439523545
6,591.684793410575
7,591.6153638189464
8,591.5452854698708
9,591.476579931077
10,591.411705647863
11,591.3533368426988
12,591.3041380639385
13,591.2665860441252
14,591.2428501615842
15,591.2347066849541
16,591.2434557216327
17,591.2698293013686
18,591.3139016892609
19,591.3750199202119
20,591.4517614014377
21,591.5419092522026
22,591.6424310613853
23,591.7494603369445
24,591.8583069316691
25,591.9635483775679
26,592.05926074631
27,592.1394246324768
28,592.1984933036226
29,592.2320549369713
30,592.2374814311778
31,592.2144439836186
32,592.1651880107661
33,592.0944892605603
34,592.0092565490063
35,591.9178059718093
36,591.8288977267846
37,591.7506790741346
38,591.6897011698628
39,591.6501702705643
40,591.6335533025368
41,591.6385876692493
42,591.661662798003
43,591.697472103726
44,591.739800482898
45,591.7823183434631
46,591.8192821832122
47,591.8460728721001
48,591.8595289072398
49,591.8580628790605
50,591.8415954591532
51,591.8113875564572
52,591.7698611153842
53,591.7204557956559
54,591.6675007293244
55,591.6160320169716
56,591.5714816984996
57,591.5392021799993
58,591.5238552809323
59,591.528760578534
60,591.5553348547975
61,591.6027442592683
62,591.6678367915597
63,591.7453548182616
64,591.8283817132996
65,591.9089626344712
66,591.9788346783014
67,592.0301875447096
68,592.0563641554895
69,592.0524247304388
70,592.0155390757373
71,591.9452159753442
72,591.8433987471939
73,591.7144445172597
74,591.5649745830763
75,591.403555555148
76,591.2401667645513
77,591.085442570914
78,590.9497408893488
79,590.842151478512
80,590.7695926614128
81,590.7361469645406
82,590.7427551009102
83,590.7873200757612
84,590.8651804284438
85,590.9698324761972
86,591.093750418466
87,591.2291672764717
88,591.3687151942217
89,591.5058712470377
90,591.6352126368938
91,591.7525310394959
92,591.8548639153074
93,591.9404786929289
94,592.008823798652
95,592.060450470338
96,592.096904729307
97,592.12058715434
98,592.1345801030747
99,592.1424440127098
100,592.1479834210209
101,592.1549819786211
102,592.1669072505777
103,592.1865945142383
104,592.2159404651106
105,592.2556664971028
106,592.3052197867981
107,592.362849808993
108,592.4258465416901
109,592.4908908938193
110,592.5544617705566
111,592.613253722488
112,592.6645683217909
113,592.7066455395386
114,592.738897740063
115,592.7620053441306
116,592.7778433035274
117,592.7892347481878
118,592.799562263047
119,592.8122991157106
120,592.830544304006
121,592.8566418959215
122,592.8919320074152
123,592.9366374272477
124,592.989861469226
125,593.0496687534197
126,593.1132342454241
127,593.1770572523586
128,593.2372289633732
129,593.2897225688841
130,593.3306700205621
131,593.3566108757892
132,593.3647305700031
133,593.3531184796052
134,593.3210516378784
135,593.2692597913965
136,593.2000891306911
137,593.1174867452225
138,593.0267737691205
139,592.9342334791811
140,592.8465823143439
141,592.770404082883
142,592.7116143995124
143,592.6750022358814
144,592.6638887762614
145,592.679946441716
146,592.72320540664
147,592.7922299634538
148,592.8843960632563
149,592.99617371612
150,593.12332476492
151,593.2609656521063
152,593.4035071881427
153,593.5445482212785
154,593.6768390866511
155,593.7924278321517
156,593.8830628764928
157,593.9408635847813
158,593.9591978847291
159,593.9336386985918
160,593.8628257555457
161,593.7490492625271
162,593.598403551646
163,593.420430037664
164,593.2272649606336
165,593.0324048446042
166,592.8492774344257
167,592.6898398244407
168,592.5634116610572
169,592.4758977087844
170,592.4294776045723
171,592.4227580370218
172,592.4513090894953
173,592.5084570100961
174,592.5861913974344
175,592.6760650490943
176,592.7700017809434
177,592.860958590887
178,592.9434069087582
179,593.0136127535303
180,593.0697141589183
181,593.1116139599492
182,593.1407235994567
183,593.1596058616904
184,593.1715658669086
185,593.1802314837395
186,593.1891603482895
187,593.2015177435031
188,593.2198695243223
189,593.2461063486227
190,593.2814702549546
191,593.326625171101
192,593.3817176878374
193,593.4464023755816
194,593.5198324803686
195,593.6006277573094
196,593.6868335475032
197,593.7758944283211
198,593.8646811827932
199,593.9496091548367
200,594.026853642071
201,594.0926246797328
202,594.1434491677401
203,594.1764317582023
204,594.1894933089925
205,594.1815838691366
206,594.152843410709
207,594.1046697326811
208,594.0396625416726
209,593.9614344433394
210,593.8743048324989
211,593.7829209131711
212,593.691870959672
213,593.6053511320991
214,593.5269178254484
215,593.4593226538103
216,593.4044065043694
217,593.363025921724
218,593.334992565227
219,593.3190226401756
220,593.3127199959356
221,593.3126443090915
222,593.3145209077527
223,593.313615976782
224,593.305243143962
225,593.2853172160828
226,593.2508522579782
227,593.2003174233165
228,593.1338046989649
229,593.0530121380053
230,592.9610853949441
231,592.8623725987508
232,592.7621277628537
233,592.6661624189696
234,592.580426034713
235,592.5105138324604
236,592.461142941515
237,592.4356700374613
238,592.435726943497
239,592.4610369518114
240,592.5094579314377
241,592.5772679870433
242,592.659653724928
243,592.7513028428135
244,592.8469802098078
245,592.9419888622772
246,593.0324636251281
247,593.1154942744197
248,593.189113433351
249,593.2522013272475
250,593.3043553381117
251,593.3457562790844
252,593.3770420479892
253,593.3991794521739
254,593.4133188574822
255,593.4206312679536
256,593.4221552531203
257,593.4187015980574
258,593.4108586367144
259,593.3991098157412
260,593.3840321820456
261,593.3665081125546
262,593.3478670974212
263,593.3298895743194
264,593.3146488372205
265,593.3042212139939
266,593.3003338606463
267,593.3040300378485
268,593.3154152792957
269,593.3335133173074
270,593.3562255620608
271,593.3803779478777
272,593.401860898279
273,593.4158893091352
274,593.417391351765
275,593.4014865248396
276,593.3639834855156
277,593.3018427523424
278,593.2135809592778
279,593.0995993931654
280,592.9623941661895
281,592.8065816340434
282,592.6386807373625
283,592.466633359837
284,592.2990977454923
285,592.1446032526444
286,592.0106910655968
287,591.9031714756985
288,591.8256048580901
289,591.7790713020127
290,591.7622432062329
291,591.7717240919281
292,591.8025722238522
293,591.8488999316608
294,591.9044458905413
295,591.9630616539516
296,592.0191064641214
297,592.0677693683282
298,592.1053298373624
299,592.1293486678879
300,592.1387678162808
301,592.1338981119698
302,592.1162916398234
303,592.0885275012189
304,592.0539667393662
305,592.016532608666
306,591.9805440406654
307,591.9505914579961
308,591.9314137503247
309,591.9277223161737
310,591.9439271885457
311,591.9837517053636
312,592.0497650588505
313,592.1428984778737
314,592.262030671148
315,592.4037322534841
316,592.5622471306184
317,592.7297575525478
318,592.896934647044
319,593.053735286652
320,593.1903773910586
321,593.2983978429346
322,593.3716600931083
323,593.4071448215949
324,593.4053569338213
325,593.3702414784119
326,593.3086152360564
327,593.2292441768598
328,593.1417706636889
329,593.0556917431496
330,592.9795305488219
331,592.9202658538991
332,592.8830197030111
333,592.8709602268615
334,592.8853572531117
335,592.9257339765122
336,592.9900831726098
337,593.0751407287156
338,593.1767126767332
339,593.2900347358946
340,593.4101240386065
341,593.5320772542943
342,593.6512785025872
343,593.7635008137272
344,593.8649185271672
345,593.952086303618
346,594.0219548536448
347,594.0719659427253
348,594.1002211970165
349,594.1056882092811
350,594.0884012779368
351,594.0496120595437
352,593.9918388773085
353,593.918767738854
354,593.8349846361137
355,593.7455608319808
356,593.6555577354555
357,593.569550244347
358,593.4912687161575
359,593.4234249654567
360,593.3677343813983
361,593.3250950786215
362,593.2958440290673
363,593.2799869963828
364,593.2773101285493
365,593.287334816841
366,593.3091565899465
367,593.3412746475519
368,593.3815354198172
369,593.4272718849585
370,593.4756394860914
371,593.5240639972412
372,593.5706622591917
373,593.614495110857
374,593.6555617320543
375,593.6945264571783
376,593.7322553683522
377,593.769301409737
378,593.8054912771632
379,593.8397323294915
380,593.870090416802
381,593.8941113384233
382,593.909287830616
383,593.9135322463375
384,593.9055225218673
385,593.8848433997869
386,593.8519163463138
387,593.8077648748219
388,593.7536832972962
389,593.6908782710749
390,593.6201504558783
391,593.541678972536
392,593.4549541659476
393,593.3588754210547
394,593.2520076914353
395,593.1329812017982
396,593.0010044472551
397,592.8564200243903
398,592.7011785668799
399,592.5390791177216
400,592.3756575235466
401,592.2176951574942
402,592.0724306695314
403,591.9466396767243
404,591.8457714849941
405,591.7732980080518
406,591.7303621806997
407,591.715741953618
408,591.7260918912789
409,591.7563951015828
410,591.8005502443779
411,591.8520184271159
412,591.9044518925482
413,591.9522262884221
414,591.9908175440353
415,592.0170061680586
416,592.02893433895
417,592.0260599679158
418,592.0090475265024
419,591.9796244415519
420,591.9404208116977
421,591.894796839465
422,591.8466511805758
423,591.8002026499304
424,591.7597456169533
425,591.7293837432945
426,591.7127422087847
427,591.7126574245322
428,591.7308584781296
429,591.7676816676892
430,591.8218818285096
431,591.8906051321449
432,591.9695581276218
433,592.053356000875
434,592.1359894767158
435,592.2113410905229
436,592.2737026951962
437,592.3182663386108
438,592.3415573509301
439,592.3417586792676
440,592.3188654362649
441,592.2746264397229
442,592.2122697946098
443,592.1360531582189
444,592.0507122446076
445,591.9608971071403
446,591.8706802039198
447,591.7831976041399
448,591.7004613788163
449,591.6233652550136
450,591.5518857751481
451,591.4854477696726
452,591.4233846031218
453,591.3653973312338
454,591.3119134895844
455,591.2642678121563
456,591.2246666432906
457,591.1959414051502
458,591.181134579317
459,591.1829916303653
460,591.2034481266398
461,591.2431948975277
462,591.3013801136347
463,591.3754801793983
464,591.4613481300092
465,591.5534305760865
466,591.6451396902211
467,591.7293743641607
468,591.7991809373601
469,591.8485082900798
470,591.8729604203041
471,591.8704208279061
472,591.8414376823126
473,591.7893059916042
474,591.71984013422
475,591.6408779818473
476,591.5615846776683
477,591.4916304237197
478,591.4403116128445
479,591.4156764559608
480,591.4237134909256
481,591.4676712576692
482,591.5475907996323
483,591.66012691425
484,591.7986997687046
485,591.9539716154944
486,592.1146071548562
487,592.2682553235255
488,592.402669863752
489,592.5068594559934
490,592.5721447749874
491,592.5930168890133
492,592.5677223670124
493,592.4985181754189
494,592.3915516922591
495,592.2563563070668
496,592.1050075531798
497,591.9510248664538
498,591.8081162442825
499,591.6888684281353
500,591.6035050680417
501,591.5588610067647
502,591.5577241424545
503,591.598663105678
504,591.6763959108656
505,591.7826678911811
506,591.9075042156595
507,592.0406139909536
508,592.1726923285331
509,592.296411409296
510,592.4069874747959
511,592.5023126859905
512,592.5827159846765
513,592.6504546332695
514,592.709040172123
515,592.7624865113338
516,592.8145610275452
517,592.8681291815152
518,592.9246874869959
519,592.9841563984575
520,593.0449553537203
521,593.1043273282471
522,593.1588383191818
523,593.2049533812223
524,593.2395858986141
525,593.2605316706487
526,593.2667273335929
527,593.2583035715512
528,593.2364372153836
529,593.2030458858937
530,593.1604046636153
531,593.1107767999955
532,593.05613176839
533,592.9979902892916
534,592.9374093052351
535,592.8750991023496
536,592.8116342792166
537,592.7476856865794
538,592.6841913362217
539,592.622416705291
540,592.5639080311901
541,592.5103791821792
542,592.4635775041831
543,592.4251600260541
544,592.3965957261814
545,592.379093078699
546,592.3735330709618
547,592.3803814575399
548,592.3995765807803
549,592.4304271305307
550,592.4715687461387
551,592.520998701019
552,592.5761638904672
553,592.6340709628103
554,592.6914250231418
555,592.7448296567301
556,592.7910526605968
557,592.8273083771063
558,592.8514875277564
559,592.8622918000274
560,592.8592710274816
561,592.842786179362
562,592.8139268453583
563,592.7744086742434
564,592.7264718979101
565,592.6727904989763
566,592.6163792207677
567,592.5604671821856
568,592.508308017364
569,592.4629165780341
570,592.4267545862918
571,592.4014227930725
572,592.3874353823095
573,592.3841384303655
574,592.3897964643443
575,592.4018310093624
576,592.4171671675393
577,592.4326303748054
578,592.4453294848495
579,592.4529609460442
580,592.453979062859
581,592.4476106746931
582,592.433745099957
583,592.4127738739412
584,592.3854623508178
585,592.352907085715
586,592.3165899670756
587,592.2784999802689
588,592.2412613925682
589,592.2081855451685
590,592.1831656750672
591,592.1703761167998
592,592.173808414716
593,592.1967359651658
594,592.2412125771466
595,592.3076864940033
596,592.394780380011
597,592.499262431656
598,592.6162028265518
599,592.7392701316754
600,592.8610987506162
601,592.9736755043093
602,593.0687422541613
603,593.1382577523403
604,593.1749719760379
605,593.1731248728895
606,593.1292050955861
607,593.0426364950907
608,592.9162376341407
609,592.7563237066611
610,592.5723720671014
611,592.376245478865
612,592.1810620249488
613,591.9998951435231
614,591.8445363811968
615,591.7245229858778
616,591.6465291369169
617,591.6140967139931
618,591.627608176593
619,591.6844140763791
620,591.7790944306823
621,591.9038921863003
622,592.0493569573682
623,592.2051789740345
624,592.361119076118
625,592.5078941849233
626,592.6378806512581
627,592.7455459853197
628,592.8275869507154
629,592.8828092839884
630,592.9118169823239
631,592.9165901349719
632,592.9000296207126
633,592.8655409740923
634,592.8167182065147
635,592.7571703066312
636,592.6905085785205
637,592.6204772394643
638,592.5511579787371
639,592.4871269413092
640,592.4334274183175
641,592.395268925107
642,592.3774610344311
643,592.3836997997553
644,592.4159001230219
645,592.4737712077969
646,592.5547587819211
647,592.6543632119849
648,592.7667394327301
649,592.8854297961839
650,593.004083816559
651,593.1170643532917
652,593.219897642305
653,593.309562062852
654,593.3846131163587
655,593.4451273111952
656,593.4924490902561
657,593.528759117293
658,593.556534102427
659,593.5780069713333
660,593.5947433682423
661,593.6074290022523
662,593.6159161935293
663,593.6195082873855
664,593.617387136296
665,593.6090460420136
666,593.5945963556851
667,593.5748634467927
668,593.5512588266962
669,593.5254838151335
670,593.4991583247947
671,593.4734702383269
672,593.4489263878296
673,593.4252678760323
674,593.4015799608628
675,593.3765744162982
676,593.3489696089248
677,593.3178665079394
678,593.2830267669311
679,593.2449928879056
680,593.2050345280934
681,593.1649462135747
682,593.1267508864896
683,593.0923763366239
684,593.063371862023
685,593.0407257709136
686,593.02482561231
687,593.0155669958435
688,593.0125742900124
689,593.0154663352711
690,593.0240894551469
691,593.0386434178585
692,593.0596447195753
693,593.0877143194631
694,593.1232372193222
695,593.1659881895297
696,593.2148216386965
697,593.2674861436293
698,593.3205811128804
699,593.3696604426074
700,593.409502458497
701,593.4345656920025
702,593.4396075641696
703,593.420379580289
704,593.3742745884821
705,593.3008090372169
706,593.2018602476714
707,593.0816238448705
708,592.9462996028706
709,592.8035495231488
710,592.6617933034819
711,592.5294120117181
712,592.4139318144468
713,592.3212701104788
714,592.2551396512209
715,592.216694708673
716,592.2044573046007
717,592.2145107890749
718,592.2409263275642
719,592.2763902617751
720,592.3129961154201
721,592.3431392670326
722,592.3604175905562
723,592.3604168807183
724,592.3412560013822
725,592.3037919122581
726,592.2514479758815
727,592.1897150986069
728,592.1254381324762
729,592.0660101063288
730,592.0185743050106
731,591.9893103179666
732,591.9828593378346
733,592.0019190490959
734,592.0470131431819
735,592.1164253351826
736,592.2062865167255
737,592.3108094093276
738,592.4226695912243
739,592.5335333200255
740,592.6347285649696
741,592.7180365564259
742,592.7765416747905
743,592.8054299635418
744,592.8025962725145
745,592.768929201451
746,592.7081995064001
747,592.626567354948
748,592.5318090771409
749,592.4324077969139
750,592.3366526123216
751,592.2518742256826
752,592.1839211307474
753,592.136930580528
754,592.1133669750966
755,592.1142232392878
756,592.1392526176014
757,592.1871283299614
758,592.2554935523999
759,592.3409341501575
760,592.4389556007656
761,592.5440550322779
762,592.649946886211
763,592.7499459149656
764,592.8374637290889
765,592.9065526656894
766,592.9524306993534
767,592.9719299810032
768,592.9638176745366
769,592.928941156391
770,592.8701636110336
771,592.7920901117094
772,592.7006254450687
773,592.6024283335969
774,592.504325908164
775,592.4127431730042
776,592.3331966159562
777,592.2698963327015
778,592.2254927081806
779,592.200990286784
780,592.1958307080463
781,592.2081184785674
782,592.2349333507706
783,592.2726550373122
784,592.3172397234748
785,592.3644358639788
786,592.4099770085311
787,592.449802419493
788,592.4803240613019
789,592.4987048221384
790,592.5030705089789
791,592.4925759067854
792,592.4672929023924
793,592.4279607172597
794,592.3756873788726
795,592.3116929290246
796,592.2371534801939
797,592.1531667058534
798,592.060827861405
799,591.9613872098394
800,591.8564524353653
801,591.7481942253053
802,591.6395075870537
803,591.5340808601031
804,591.4363306262923
805,591.3511732918397
806,591.2836253471166
807,591.2382565028612
808,591.2185595925062
809,591.2263365760008
810,591.2612171929258
811,591.3204210395111
812,591.398848060295
813,591.4895346176064
814,591.584439876622
815,591.6754446186774
816,591.7553797295974
817,591.818879837197
818,591.8628954806028
819,591.8867893609903
820,591.8920487115167
821,591.8817208893212
822,591.8597120333943
823,591.8300952330546
824,591.7965642766312
825,591.7621355385781
826,591.7291372004138
827,591.6994400833307
828,591.6748071221722
829,591.6572058935764
830,591.6489584521432
831,591.6526780754914
832,591.6710243498204
833,591.7063630302733
834,591.7604320211158
835,591.8340925711336
836,591.9271999052037
837,592.0385845763387
838,592.1661167564499
839,592.3068293952961
840,592.4570816955439
841,592.6127401578427
842,592.769350988579
843,592.9222894422581
844,593.0668979405257
845,593.1986463786367
846,593.3133439733186
847,593.4074028882242
848,593.4781199372161
849,593.5239226186538
850,593.5445285579809
851,593.5409918647413
852,593.5156406034974
853,593.471927598822
854,593.41421775717
855,593.347527324407
856,593.2772228944625
857,593.2086875426442
858,593.1469692867495
859,593.0964331511349
860,593.0604355816087
861,593.041040728254
862,593.0388146524624
863,593.0527510310059
864,593.0803707727122
865,593.1179939105812
866,593.1611356278227
867,593.2049606149246
868,593.2447441626107
869,593.2763125097903
870,593.2964431858725
871,593.3031921563479
872,593.2960989108685
873,593.2762266953595
874,593.2460222940863
875,593.2090086916505
876,593.1693430145331
877,593.1312882461208
878,593.0986678026575
879,593.0743864496148
880,593.0600891482882
881,593.0559884536386
882,593.060846542586
883,593.0720805677288
884,593.0859727520301
885,593.0979855628829
886,593.1031874395101
887,593.0967839511472
888,593.0747260666726
889,593.0343310428566
890,592.9748095767355
891,592.8975713192383
892,592.8062084465474
893,592.7061342559077
894,592.6039486218011
895,592.5066735576062
896,592.4210194428312
897,592.3528002579014
898,592.306543554648
899,592.285280853928
900,592.2904772414001
901,592.3220556705627
902,592.3784760326754
903,592.4568402097041
904,592.5530198863128
905,592.6618373401507
906,592.7773445897147
907,592.89322265554
908,593.0032685944531
909,593.101886140169
910,593.1844797621116
911,593.2476811317495
912,593.2893922459259
913,593.3086836681917
914,593.3056200145447
915,593.2810853001454
916,593.2366483434
917,593.174466780224
918,593.0972089245315
