frame_number,force
0,490.65994000205524
1,490.6444683132173
2,490.6290663476777
3,490.6138032572347
4,490.5987470546921
5,490.5839640552937
6,490.5695183331138
7,490.555471198462
8,490.5418807010877
9,490.52880116245086
10,490.516282739841
11,490.5043710258949
12,490.49310668817134
13,490.48252515389186
14,490.47265634455715
15,490.4635244643363
16,490.4551478452161
17,490.4475388507886
18,490.4407038391989
19,490.43464318458183
20,490.42935135568996
21,490.4248170502343
22,490.42102338331887
23,490.417948128212
24,490.4155640077111
25,490.4138390342871
26,490.41273689658516
27,490.41221738877096
28,490.41223687806416
29,490.4127488045851
30,490.4137042059247
31,490.4150522567644
32,490.41674081247226
33,490.41871694604004
34,490.4209274699806
35,490.42331943755823
36,490.42584061953823
37,490.4284399533861
38,490.4310679624901
39,490.433677144005
40,490.4362223248811
41,490.43866098616473
42,490.4409535558546
43,490.443063670523
44,490.4449584056084
45,490.4466084741907
46,490.4479883944594
47,490.44907662644584
48,490.4498556781666
49,490.4503121801022
50,490.45043692566264
51,490.4502248746992
52,490.4496751174502
53,490.44879079738513
54,490.44757899300976
55,490.44605056057446
56,490.4442199411829
57,490.4421049363456
58,490.43972645549286
59,490.43710823815115
60,490.43427655318305
61,490.4312598777609
62,490.42808855917394
63,490.4247944628592
64,490.4214106101334
65,490.41797080899335
66,490.4145092811919
67,490.41106028884263
68,490.4076577640507
69,490.40433494523916
70,490.40112402397943
71,490.39805580661556
72,490.3951593956074
73,490.39246189547595
74,490.38998814709663
75,490.3877604925899
76,490.38579857237323
77,490.3841191565297
78,490.3827360139609
79,490.38165982384226
80,490.38089813406293
81,490.380455370802
82,490.3803329028074
83,490.3805291636716
84,490.3810398354302
85,490.3818580968286
86,490.38297493884596
87,490.38437954775577
88,490.3860597522623
89,490.38800252721154
90,490.39019454299984
91,490.39262274699894
92,490.39527496037414
93,490.3981404705297
94,490.40121059719985
95,490.40447921030284
96,490.4079431804225
97,490.4116027471058
98,490.41546179426274
99,490.41952802447054
100,490.4238130251914
101,490.4283322214732
102,490.4331047129789
103,490.4381529981101
104,490.4435025933597
105,490.4491815604961
106,490.4552199570869
107,490.4616492275465
108,490.4685015529497
109,490.47580917808887
110,490.4836037329516
111,490.49191556311064
112,490.500773080649
113,490.51020214525306
114,490.52022548423497
115,490.53086216022484
116,490.5421270955262
117,490.55403066186966
118,490.5665783430129
119,490.57977047559444
120,490.59360207140475
121,490.60806272194816
122,490.62313658358863
123,490.6388024388035
124,490.6550338268001
125,490.67179923551356
126,490.6890623465193
127,490.7067823240881
128,490.7249141395786
129,490.74340892301683
130,490.7622143348543
131,490.7812749515861
132,490.80053265871516
133,490.8199270442065
134,490.8393957861146
135,490.85887502976516
136,490.8782997523078
137,490.8976041147196
138,490.916721802437
139,490.93558635550767
140,490.95413148845466
141,490.9722914001968
142,490.99000107575677
143,491.0071965832533
144,491.0238153706711
145,491.0397965667724
146,491.0550812898226
147,491.069612967079
148,491.0833376669978
149,491.0962044442043
150,491.10816569415823
151,491.1191775107914
152,491.12920003763605
153,491.13819780234127
154,491.1461400260847
155,491.1530009021598
156,491.15875984058044
157,491.16340167686457
158,491.16691684328396
159,491.16930150088115
160,491.1705576312828
161,491.170693088472
162,491.1697216115447
163,491.16766279975775
164,491.16454205078026
165,491.1603904621111
166,491.1552446947069
167,491.1491467977947
168,491.1421439948678
169,491.13428843221385
170,491.1256368919498
171,491.1162504713459
172,491.10619422997297
173,491.09553680648696
174,491.08435000757714
175,491.0727083723229
176,491.06068871561695
177,491.0483696545986
178,491.0358311224746
179,491.02315387445753
180,491.0104189904014
181,490.9977073782389
182,490.9850992822233
183,490.9726738005301
184,490.9605084175907
185,490.9486785569147
186,490.9372571597312
187,490.9263142936619
188,490.915916794289
189,490.90612794130107
190,490.8970071697559
191,490.88860981540483
192,490.88098689096375
193,490.8741848885174
194,490.86824560270634
195,490.86320596989896
196,490.8590979196158
197,490.85594823580897
198,490.85377842717145
199,490.85260460706667
200,490.85243738444626
201,490.8532817674058
202,490.855137081282
203,490.8579969034028
204,490.86184901645294
205,490.86667538212083
206,490.8724521368124
207,490.87914961179104
208,490.8867323805226
209,490.8951593358919
210,490.9043837996415
211,490.9143536664997
212,490.925011586295
213,490.93629518849286
214,490.94813735412544
215,490.9604665393881
216,490.9732071536439
217,490.98627999316636
218,490.9996027312885
219,491.0130904656345
220,491.02665632312033
221,491.0402121225774
222,491.05366909273584
223,491.06693864007264
224,491.0799331572377
225,491.09256685911276
226,491.10475663069786
227,491.11642286953196
228,491.1274903054403
229,491.1378887817521
230,491.1475539841766
231,491.1564281058931
232,491.16446043993193
233,491.17160789223436
234,491.1778354102473
235,491.1831163222407
236,491.18743258228
237,491.19077491598097
238,491.19314286346827
239,491.1945447183825
240,491.1949973650032
241,491.1945260187939
242,491.1931638779531
243,491.1909516945381
244,491.18793727391295
245,491.1841749110749
246,491.1797247718596
247,491.1746522264183
248,491.1690271424882
249,491.16292314724086
250,491.1564168681113
251,491.14958716350577
252,491.1425143528297
253,491.1352794522495
254,491.12796341931954
255,491.1206464076889
256,491.1134070335706
257,491.10632165797557
258,491.0994636911022
259,491.09290292630294
260,491.0867049108805
261,491.0809303607194
262,491.075634626
263,491.0708672153636
264,491.06667138522295
265,491.06308379960984
266,491.0601342645828
267,491.05784553998325
268,491.05623323000907
269,491.0553057522491
270,491.05506438211523
271,491.05550336629096
272,491.05661009596383
273,491.0583653291639
274,491.0607434515249
275,491.0637127657044
276,491.0672358012136
277,491.07126963843353
278,491.0757662431192
279,491.08067281054167
280,491.08593212096247
281,491.0914829093538
282,491.09726025159654
283,491.1031959672072
284,491.10921903605447
285,491.1152560248454
286,491.12123151939556
287,491.1270685607742
288,491.1326890860204
289,491.1380143758452
290,491.14296551231115
291,491.1474638495074
292,491.1514314998807
293,491.15479183771504
294,491.1574700192553
295,491.15939351673364
296,491.1604926615206
297,491.16070118966127
298,491.15995678093486
299,491.1582015805561
300,491.1553826914135
301,491.1514526247584
302,491.1463696983587
303,491.140098373
304,491.1326095206144
305,491.1238806196561
306,491.1138958749322
307,491.1026462599098
308,491.0901294802054
309,491.07634985813826
310,491.0613181401242
311,491.0450512310859
312,491.0275718623577
313,491.0089082010704
314,490.98909340956584
315,490.96816516363907
316,490.9461651391473
317,490.92313847789
318,490.8991332449259
319,490.87419988988887
320,490.84839072432993
321,490.82175942594455
322,490.7943605788357
323,490.76624925680466
324,490.73748065444505
325,490.7081097690051
326,490.678191134614
327,490.64777860930326
328,490.6169252143087
329,490.585683024595
330,490.5541031091251
331,490.52223551832276
332,490.49012931408066
333,490.4578326351291
334,490.42539278858385
335,490.39285635750457
336,490.3602693141121
337,490.32767712859686
338,490.29512486416263
339,490.2626572502467
340,490.23031872777597
341,490.19815346275675
342,490.1662053270846
343,490.1345178475937
344,490.1031341257552
345,490.07209673140414
346,490.04144757459426
347,490.0112277597714
348,489.9814774257394
349,489.95223557390284
350,489.9235398866301
351,489.89542653743104
352,489.8679299947286
353,489.84108282103847
354,489.8149154691913
355,489.7894560769785
356,489.76473026157527
357,489.7407609155497
358,489.71756800728446
359,489.69516839001204
360,489.67357562473495
361,489.65279982235165
362,489.6328475093081
363,489.61372151974746
364,489.59542091616663
365,489.5779409401608
366,489.56127299476594
367,489.5454046599206
368,489.5303197424546
369,489.5159983616701
370,489.50241707113065
371,489.48954901698863
372,489.47736413310156
373,489.4658293728092
374,489.45490897601957
375,489.44456476845943
376,489.4347564887048
377,489.4254421387143
378,489.4165783544357
379,489.4081207932926
380,489.400024534602
381,489.39224448812405
382,489.38473580569115
383,489.37745429091234
384,489.37035680180134
385,489.36340164082475
386,489.35654892639184
387,489.34976093918146
388,489.34300243621317
389,489.33624092574235
390,489.32944689710445
391,489.3225940015014
392,489.3156591823408
393,489.3086227567271
394,489.3014684522398
395,489.29418340457426
396,489.2867581219517
397,489.2791864218276
398,489.2714653446827
399,489.26359504883686
400,489.255578689617
401,489.2474222861805
402,489.2391345798457
403,489.2307268884371
404,489.2222129612199
405,489.21360883805613
406,489.2049327146954
407,489.1962048143196
408,489.1874472641352
409,489.1786839748845
410,489.1699405203753
411,489.16124401368296
412,489.15262297707477
413,489.14410720414145
414,489.135727614728
415,489.1275161055354
416,489.11950540113537
417,489.1117289109143
418,489.1042205969487
419,489.09701485652164
420,489.0901464213562
421,489.083650273832
422,489.07756157882426
423,489.07191562883884
424,489.06674779988754
425,489.0620935158296
426,489.05798821929085
427,489.05446734733704
428,489.0515663096155
429,489.0493204659285
430,489.04776509973385
431,489.04693538441717
432,489.0468663403237
433,489.04759278194007
434,489.04914925574224
435,489.05156997004485
436,489.0548887190712
437,489.0591388043617
438,489.06435295669445
439,489.07056326005716
440,489.0778010762964
441,489.08609696645385
442,489.0954806038637
443,489.1059806749507
444,489.1176247652401
445,489.13043922912226
446,489.14444904205544
447,489.15967763371907
448,489.1761467008984
449,489.19387599975755
450,489.21288311816636
451,489.2331832294378
452,489.2547888293912
453,489.27770945954296
454,489.30195142047586
455,489.32751748075503
456,489.35440658804055
457,489.38261359025864
458,489.41212897537406
459,489.4429386375773
460,489.4750236752402
461,489.50836022278685
462,489.5429193162684
463,489.5786667916177
464,489.61556321491605
465,489.65356384496084
466,489.69261862957285
467,489.73267223818806
468,489.77366413416377
469,489.8155286906159
470,489.85819535322366
471,489.90158885243426
472,489.9456294665984
473,489.9902333374523
474,490.0353128399556
475,490.0807770088807
476,490.1265320236468
477,490.1724817504137
478,490.21852833717907
479,490.264572854816
480,490.3105159753789
481,490.3562586784637
482,490.4017029762736
483,490.4467526477954
484,490.49131397199653
485,490.5352964493024
486,490.5786134997262
487,490.6211831249001
488,490.6629285204602
489,490.7037786256602
490,490.74366859913516
491,490.7825402129466
492,490.8203421603939
493,490.8570302757469
494,490.89256766593485
495,490.92692475581305
496,490.9600792503032
497,490.99201601827923
498,491.0227269042405
499,491.0522104745232
500,491.08047170523594
501,491.10752161958027
502,491.1333768829476
503,491.15805936490034
504,491.18159567718016
505,491.2040166958185
506,491.22535707356076
507,491.2456547469915
508,491.26495044173777
509,491.28328717901184
510,491.3007097870029
511,491.3172644206807
512,491.33299809329503
513,491.34795822249185
514,491.3621921936255
515,491.3757469422726
516,491.3886685569171
517,491.4010019015409
518,491.412790257019
519,491.42407498015035
520,491.4348951798629
521,491.44528741144177
522,491.45528539135114
523,491.46491973700046
524,491.47421773704974
525,491.4832031579246
526,491.49189609084164
527,491.5003128411276
528,491.5084658588687
529,491.5163637082205
530,491.52401107270543
531,491.5314087949327
532,491.53855395034225
533,491.54543995535477
534,491.5520567106628
535,491.55839078008063
536,491.56442560423255
537,491.57014174673776
538,491.57551716899377
539,491.58052752862704
540,491.58514649655365
541,491.5893460883541
542,491.59309700680774
543,491.59636899329155
544,491.5991311859623
545,491.60135248229597
546,491.60300190321794
547,491.6040489563
548,491.60446399628404
549,491.60421858181866
550,491.60328582708064
551,491.6016407456783
552,491.59926058233845
553,491.5961251263045
554,491.5922169997752
555,491.58752191502936
556,491.58202889483596
557,491.57573045231464
558,491.56862272856165
559,491.56070558846125
560,491.551982676145
561,491.54246143104046
562,491.5321530640652
563,491.5210724925444
564,491.5092382326851
565,491.496672249839
566,491.48339976865947
567,491.469449047089
568,491.4548511198259
569,491.4396395185126
570,491.4238499771442
571,491.4075201318667
572,491.3906892243246
573,491.3733978170037
574,491.3556875276317
575,491.3376007878428
576,491.3191806293223
577,491.30047049889606
578,491.28151410272
579,491.2623552786278
580,491.24303789452654
581,491.22360576973307
582,491.20410261590797
583,491.1845719949116
584,491.1650572919681
585,491.14560170331464
586,491.1262482377048
587,491.107039730768
588,491.088018870532
589,491.0692282315458
590,491.05071031410523
591,491.03250758424826
592,491.0146625097584
593,490.9972175875103
594,490.980215358024
595,490.9636984036234
596,490.9477093266361
597,490.93229070372377
598,490.91748501246
599,490.9033345271677
600,490.8898811825114
601,490.8771664048698
602,490.8652309128221
603,490.854114489096
604,490.8438557270349
605,490.8344917550637
606,490.82605794264646
607,490.81858759063084
608,490.8121116079619
609,490.8066581763366
610,490.8022524050457
611,490.79891597987586
612,490.7966668120112
613,490.79551869472414
614,490.7954809766024
615,490.7965582597866
616,490.7987501304796
617,490.8020509274991
618,490.8064495535151
619,490.8119293329525
620,490.81846791992035
621,490.8260372587391
622,490.83460359893957
623,490.84412756613045
624,490.8545642896881
625,490.86586358762537
626,490.8779702083058
627,490.8908241282082
628,490.90436090496166
629,490.9185120847879
630,490.93320566211906
631,490.9483665861585
632,490.9639173055507
633,490.9797783393892
634,490.99586886108784
635,491.0121072813208
636,491.0284118172339
637,491.0447010372332
638,491.06089437366376
639,491.0769125992075
640,491.0926782659174
641,491.10811610769156
642,491.1231534079039
643,491.1377203345829
644,491.15175024608845
645,491.1651799701394
646,491.1779500579745
647,491.1900050138571
648,491.2012934989024
649,491.2117685077068
650,491.2213875161092
651,491.2301125981747
652,491.23791051047624
653,491.2447527426139
654,491.2506155345427
655,491.25547986280054
656,491.25933139862633
657,491.2621604413945
658,491.2639618309104
659,491.26473484178035
660,491.2644830623897
661,491.26321426043603
662,491.2609402367291
663,491.257676668646
664,491.2534429436124
665,491.2482619816803
666,491.24216004609434
667,491.2351665422677
668,491.22731380772416
669,491.21863689676724
670,491.2091733635965
671,491.19896304703434
672,491.1880478594762
673,491.17647158200384
674,491.16427966669835
675,491.15151904626407
676,491.13823795022176
677,491.1244857261828
678,491.1103126644837
679,491.09576982512556
680,491.08090886698284
681,491.06578187954244
682,491.0504412165779
683,491.03493932969036
684,491.0193285983203
685,491.0036611521103
686,490.98798868138914
687,490.9723622316705
688,490.9568319781391
689,490.94144697636335
690,490.92625488634854
691,490.91130166871693
692,490.89663125420543
693,490.88228519055474
694,490.86830227358996
695,490.8547181711759
696,490.84156504951153
697,490.8288712111059
698,490.8166607532043
699,490.8049532550061
700,490.7937635020683
701,490.7831012563624
702,490.7729710796858
703,490.7633722162995
704,490.7542985385465
705,490.7457385578436
706,490.73767550300613
707,490.7300874672583
708,490.72294762322156
709,490.7162245017111
710,490.7098823267319
711,490.7038813971229
712,490.698178505161
713,490.6927273833336
714,490.6874791714555
715,490.6823828970113
716,490.6773859624967
717,490.6724346349612
718,490.667474534454
719,490.66245111877333
720,490.65731016161357
721,490.6519982206231
722,490.64646309172434
723,490.64065424621464
724,490.63452324703286
725,490.6280241399083
726,490.6211138144432
727,490.61375233018276
728,490.60590320363673
729,490.5975336539235
730,490.58861480689063
731,490.57912185970696
732,490.56903420942615
733,490.55833554960896
734,490.5470139389061
735,490.53506184475106
736,490.52247616396636
737,490.5092582203538
738,490.49541373811405
739,490.480952790115
740,490.46588972146577
741,490.4502430505221
742,490.43403535033656
743,490.41729311343715
744,490.4000466021724
745,490.382329686301
746,490.3641796690535
747,490.3456371020875
748,490.32674558836317
749,490.3075515704648
750,490.2881041010417
751,490.268454591936
752,490.24865653878976
753,490.2287652184493
754,490.20883735765716
755,490.1889307732807
756,490.16910398640835
757,490.1494158149305
758,490.1299249514456
759,490.11068953498926
760,490.0917667259936
761,490.07321229434433
762,490.0550802305869
763,490.03742238994676
764,490.0202881774072
765,490.0037242795034
766,489.9877744453041
767,489.9724793163538
768,489.957876303872
769,489.94399951099666
770,489.93087969742436
771,489.91854428300724
772,489.907017386054
773,489.89631989193424
774,489.88646954832507
775,489.87748108453303
776,489.8693663529274
777,489.8621344902953
778,489.8557920962305
779,489.8503434250666
780,489.8457905876498
781,489.842133759271
782,489.8393713901482
783,489.8375004151291
784,489.8365164600224
785,489.83641404294224
786,489.8371867698186
787,489.8388275234071
788,489.84132864449913
789,489.84468210264134
790,489.8488796522643
791,489.8539129696004
792,489.85977376636976
793,489.8664538774405
794,489.87394532108186
795,489.88224033205876
796,489.8913313697076
797,489.9012111049525
798,489.91187239147973
799,489.92330822689314
800,489.9355117099014
801,489.94847599958695
802,489.9621942822795
803,489.9766597500509
804,489.9918655922793
805,490.0078049986082
806,490.0244711687988
807,490.04185732319655
808,490.05995670716317
809,490.078762583502
810,490.09826820770655
811,490.11846678129234
812,490.13935137891417
813,490.16091484583376
814,490.1831496634451
815,490.2060477817887
816,490.22960041960533
817,490.25379783486267
818,490.2786290715053
819,490.30408169050577
820,490.33014149465583
821,490.3567922571987
822,490.384015464689
823,490.41179008415133
824,490.4400923633322
825,490.46889567078665
826,490.49817038038026
827,490.52788380291554
828,490.55800016574005
829,490.58848063909164
830,490.61928340602014
831,490.65036377174005
832,490.68167430826406
833,490.7131650304337
834,490.7447835993999
835,490.77647554930934
836,490.80818453292864
837,490.83985258265113
838,490.87142038498087
839,490.90282756894806
840,490.934013011044
841,490.964915160012
842,490.9954723839394
843,491.0256233404512
844,491.0553073693671
845,491.08446490615063
846,491.1130379137075
847,491.14097032951804
848,491.1682085245922
849,491.1947017699762
850,491.2204027052728
851,491.2452678019343
852,491.269257812426
853,491.29233819533874
854,491.31447950633503
855,491.3356577453827
856,491.35585465220265
857,491.3750579441105
858,491.39326149247216
859,491.4104654350417
860,491.4266762220372
861,491.44190659482996
862,491.45617549740496
863,491.4695079215948
864,491.4819346874929
865,491.493492160985
866,491.50422191117065
867,491.51417031122287
868,491.5233880864815
869,491.5319298131008
870,491.53985336975063
871,491.5472193445901
872,491.5540904005771
873,491.5605306039537
874,491.56660472285523
875,491.57237750493624
876,491.57791294441046
877,491.5832735497316
878,491.5885196231056
879,491.5937085620512
880,491.5988941915194
881,491.60412613317794
882,491.6094492169842
883,491.6149029392671
884,491.62052097091873
885,491.6263307186705
886,491.6323529418578
887,491.63860142680056
888,491.6450827210262
889,491.6517959298543
890,491.65873257816054
891,491.66587654026347
892,491.6732040405116
893,491.6806837261801
894,491.6882768131735
895,491.69593730422696
896,491.7036122786486
897,491.71124225195376
