frame_number,force
0,611.8587700002238
1,611.7527806884852
2,611.6483359165629
3,611.5469478727358
4,611.4500651346209
5,611.3590434305165
6,611.2751190847931
7,611.199385535587
8,611.1327731121127
9,611.0760321999388
10,611.0297200177166
11,610.9941913939385
12,610.9695940201216
13,610.9558685665689
14,610.9527538025542
15,610.9597965737149
16,610.9763662519426
17,611.0016731284135
18,611.0347901746114
19,611.0746776268226
20,611.1202098883755
21,611.1702042094643
22,611.2234504789714
23,611.2787412890975
24,611.3349012571241
25,611.3908144830223
26,611.4454490970404
27,611.4978781175461
28,611.5472961499494
29,611.5930316893387
30,611.6345549613061
31,611.6714813961304
32,611.7035709802636
33,611.7307238676245
34,611.7529727561125
35,611.7704725854757
36,611.7834880613939
37,611.7923794342038
38,611.7975869487801
39,611.7996144121016
40,611.7990123172052
41,611.7963609045489
42,611.7922534828214
43,611.7872803070986
44,611.7820133413271
45,611.7769923196961
46,611.7727126167911
47,611.7696154512577
48,611.7680808561854
49,611.768423685131
50,611.7708926778259
51,611.7756722730479
52,611.7828865364212
53,611.7926044232103
54,611.8048456423658
55,611.8195865352637
56,611.8367655700794
57,611.8562882711182
58,611.8780316180674
59,611.9018480916019
60,611.9275695559872
61,611.9550110825189
62,611.9839747243107
63,612.0142532125902
64,612.0456335242974
65,612.0779002300281
66,612.1108384957229
67,612.1442366090075
68,612.177887916577
69,612.2115921010987
70,612.2451558361995
71,612.2783930148272
72,612.3111248676306
73,612.3431803348993
74,612.3743970265864
75,612.4046229688121
76,612.4337190844019
77,612.4615620786134
78,612.4880472386617
79,612.5130906999653
80,612.5366309495976
81,612.5586295643076
82,612.5790712729556
83,612.5979634238363
84,612.6153349626792
85,612.6312351249512
86,612.6457321111907
87,612.6589119487664
88,612.6708775832024
89,612.6817481038698
90,612.6916579623947
91,612.7007560840226
92,612.7092048743821
93,612.7171792385909
94,612.7248657784801
95,612.7324622612572
96,612.7401772908356
97,612.7482299505969
98,612.7568490713751
99,612.7662717053838
100,612.7767403857429
101,612.7884988901591
102,612.8017864973857
103,612.8168310176857
104,612.8338410978849
105,612.8529984234443
106,612.8744504701575
107,612.8983044120212
108,612.9246226982278
109,612.9534206807386
110,612.9846664705519
111,613.0182828985123
112,613.0541511270025
113,613.0921152668761
114,613.13198739343
115,613.1735525365674
116,613.2165734018365
117,613.2607947353921
118,613.3059474088033
119,613.3517524174974
120,613.3979249639508
121,613.4441786442829
122,613.4902296163607
123,613.5358006165931
124,613.5806247654954
125,613.6244491244796
126,613.6670379086781
127,613.7081752341401
128,613.7476673769506
129,613.7853447039552
130,613.821063569419
131,613.8547084574205
132,613.8861944669713
133,613.9154699475687
134,613.9425188189489
135,613.967361974529
136,613.9900572295081
137,614.0106975003458
138,614.0294072133822
139,614.0463372594706
140,614.0616590700411
141,614.0755585155308
142,614.0882302695169
143,614.0998730611373
144,614.1106859532102
145,614.1208655552427
146,614.1306039751868
147,614.1400873213547
148,614.1494946296884
149,614.1589971391345
150,614.1687578311927
151,614.1789311231386
152,614.1896626248961
153,614.2010889556299
154,614.2133376988
155,614.2265275635382
156,614.2407687210791
157,614.2561631861435
158,614.2728050740617
159,614.2907805987497
160,614.3101677797445
161,614.3310359308673
162,614.3534450000403
163,614.3774447103126
164,614.4030733307046
165,614.430355860801
166,614.4593014206959
167,614.4898996930585
168,614.52211643513
169,614.5558883735615
170,614.5911180756835
171,614.627669495545
172,614.6653647958382
173,614.703982846884
174,614.7432596089448
175,614.7828904619765
176,614.8225344517002
177,614.8618203445706
178,614.9003543045576
179,614.9377289223578
180,614.9735332651256
181,615.0073635943509
182,615.0388344187088
183,615.0675895836993
184,615.0933131349134
185,615.1157397250399
186,615.1346643490093
187,615.1499511584105
188,615.1615410408864
189,615.1694576275898
190,615.1738114703724
191,615.1748022668813
192,615.1727190829613
193,615.1679384493729
194,615.1609200531854
195,615.1521996507132
196,615.1423788995226
197,615.1321120315513
198,615.122089595008
199,615.1130198063211
200,615.1056083159384
201,615.1005373571788
202,615.098445281022
203,615.0999073686125
204,615.1054186125801
205,615.1153790007968
206,615.1300818208792
207,615.1497055753207
208,615.174310091866
209,615.2038372325894
210,615.2381163012932
211,615.2768739437852
212,615.3197480914545
213,615.3663052789016
214,615.4160604043498
215,615.4684977010105
216,615.5230914531317
217,615.5793249675078
218,615.636706582259
219,615.6947819888393
220,615.7531426589508
221,615.8114305277543
222,615.869339267426
223,615.9266126093053
224,615.9830403632337
225,616.0384530328737
226,616.0927160853241
227,616.1457248479882
228,616.1974006661225
229,616.247688501915
230,616.296555761308
231,616.3439918881206
232,616.3900081750152
233,616.43463729343
234,616.4779322065442
235,616.5199643263813
236,616.5608209384659
237,616.6006020293701
238,616.6394167121698
239,616.6773794248757
240,616.7146059821135
241,616.751209466991
242,616.7872959359852
243,616.8229599820387
244,616.8582803022704
245,616.8933154777627
246,616.9281001702665
247,616.9626419028508
248,616.9969185508796
249,617.0308766317761
250,617.064430446835
251,617.0974621214269
252,617.1298226421923
253,617.1613340765858
254,617.191793196435
255,617.2209766507692
256,617.248647683461
257,617.2745642808039
258,617.2984886130221
259,617.3201976071081
260,617.3394943355742
261,617.3562196568867
262,617.3702633492842
263,617.381573926909
264,617.3901663943772
265,617.39612736689
266,617.3996172592073
267,617.4008695594392
268,617.4001874498637
269,617.3979381950318
270,617.3945458236778
271,617.3904826731766
272,617.3862602923122
273,617.3824200135987
274,617.3795232807278
275,617.3781416156082
276,617.3788459598802
277,617.3821950604511
278,617.3887226577583
279,617.3989235123355
280,617.4132386748317
281,617.4320407067975
282,617.4556197315728
283,617.4841712964505
284,617.5177870807322
285,617.5564493806954
286,617.600029957279
287,617.6482933574389
288,617.7009044289279
289,617.7574395373905
290,617.8174009056836
291,617.8802334403146
292,617.945343359552
293,618.012117902325
294,618.0799453785515
295,618.1482348162145
296,618.2164344900214
297,618.2840487125326
298,618.3506524035218
299,618.4159030285452
300,618.4795494624857
301,618.5414372708332
302,618.6015099162829
303,618.6598054883865
304,618.7164486813423
305,618.7716379580728
306,618.8256282020543
307,618.8787096200749
308,618.9311840990705
309,618.9833405703471
310,619.0354311570417
311,619.0876499026233
312,619.1401156460272
313,619.192860162107
314,619.2458221331324
315,619.2988469834913
316,619.3516921969152
317,619.4040374715925
318,619.4554989097048
319,619.5056463314834
320,619.5540227155398
321,619.6001646749966
322,619.6436228148121
323,619.6839808707768
324,619.7208727279971
325,619.7539966542504
326,619.7831262915802
327,619.8081181787179
328,619.8289158534928
329,619.8455508196394
330,619.8581407627106
331,619.8668853701665
332,619.8720600390066
333,619.8740077334837
334,619.8731293077554
335,619.869872679897
336,619.8647212777263
337,619.8581821693153
338,619.8507742653132
339,619.8430169428818
340,619.8354193867054
341,619.8284708791838
342,619.8226322208641
343,619.8183284324878
344,619.8159428631628
345,619.8158127828596
346,619.8182264638633
347,619.8234216484959
348,619.8315851750608
349,619.842853451905
350,619.8573134715151
351,619.8750041060429
352,619.8959174707794
353,619.9200001798177
354,619.9471543631681
355,619.9772383633674
356,620.0100670816968
357,620.0454120245838
358,620.0830012317992
359,620.1225194197716
360,620.1636087642538
361,620.2058707100045
362,620.2488690460794
363,620.2921343167924
364,620.3351695443264
365,620.3774572371021
366,620.4184676859716
367,620.4576685277156
368,620.494535450023
369,620.5285637590758
370,620.559280390924
371,620.5862558499157
372,620.6091154930821
373,620.6275495514361
374,620.6413213190048
375,620.6502730495172
376,620.654329218929
377,620.6534969008092
378,620.647863110524
379,620.6375891583477
380,620.622902282559
381,620.6040850439763
382,620.5814631154102
383,620.5553921800396
384,620.5262446607223
385,620.4943969577811
386,620.4602178079396
387,620.4240583072643
388,620.3862440510625
389,620.3470697076971
390,620.3067961549964
391,620.2656500903287
392,620.2238258171674
393,620.1814887485999
394,620.1387800779612
395,620.0958220599341
396,620.0527234140338
397,620.0095844821648
398,619.9665019033758
399,619.9235726717594
400,619.8808975142413
401,619.8385835849485
402,619.7967465110172
403,619.7555118123373
404,619.7150156650733
405,619.6754049181931
406,619.6368362131153
407,619.5994740166594
408,619.5634874302347
409,619.5290458488587
410,619.4963138457869
411,619.4654458726163
412,619.436581376387
413,619.4098407867543
414,619.3853226119548
415,619.3631016576253
416,619.3432282030766
417,619.3257279088199
418,619.3106022974939
419,619.2978297415848
420,619.287366882872
421,619.2791503196889
422,619.2730983585338
423,619.2691126851823
424,619.2670799005405
425,619.2668729552848
426,619.2683526416583
427,619.2713694414018
428,619.2757660791066
429,619.281381019552
430,619.2880529114266
431,619.2956257072814
432,619.3039539797783
433,619.3129079016808
434,619.3223774852455
435,619.3322758841016
436,619.3425416893174
437,619.3531401275133
438,619.3640629617203
439,619.3753268357316
440,619.386969863749
441,619.3990464467273
442,619.4116205806012
443,619.424758274551
444,619.4385199831738
445,619.4529539963927
446,619.4680914795708
447,619.4839434307744
448,619.5004993974023
449,619.517727520722
450,619.5355754088507
451,619.5539714187802
452,619.5728260836563
453,619.5920336142286
454,619.611473567678
455,619.6310128409226
456,619.6505081242713
457,619.6698089068591
458,619.6887610680876
459,619.7072110240804
460,619.7250103692443
461,619.7420209377567
462,619.7581201058023
463,619.773205959317
464,619.787201804386
465,619.8000595173946
466,619.811761426135
467,619.8223206979034
468,619.8317804343691
469,619.8402117184112
470,619.8477107701473
471,619.8543952768131
472,619.8603999202012
473,619.8658711384071
474,619.8709612290619
475,619.8758219952175
476,619.8805981991889
477,619.8854211119151
478,619.8904024252788
479,619.895628713917
480,619.9011565103764
481,619.907007975465
482,619.9131671886512
483,619.9195772623897
484,619.9261387071164
485,619.9327095920719
486,619.9391079653639
487,619.945116739047
488,619.9504909193621
489,619.9549667660928
490,619.9582722299543
491,619.9601378650677
492,619.9603074182814
493,619.9585474932753
494,619.9546559768075
495,619.9484691575719
496,619.9398676088847
497,619.9287809559975
498,619.9151916218381
499,619.8991375526664
500,619.8807137910214
501,619.8600726281353
502,619.8374219924743
503,619.813021777189
504,619.787177983945
505,619.7602347812023
506,619.732564735801
507,619.704557572038
508,619.6766079424324
509,619.6491029099791
510,619.6224100487075
511,619.5968671311574
512,619.5727742307018
513,619.5503887392724
514,619.5299233516631
515,619.5115466319482
516,619.4953855143656
517,619.4815290485332
518,619.4700327716744
519,619.4609231552573
520,619.4542016363763
521,619.4498479053753
522,619.4478224083588
523,619.4480683079996
524,619.4505132570257
525,619.4550712551917
526,619.4616447296557
527,619.4701269096612
528,619.4804045087718
529,619.4923606163787
530,619.5058775991768
531,619.5208398251414
532,619.537136141318
533,619.5546621605373
534,619.5733224365299
535,619.5930324889115
536,619.6137204453478
537,619.635327956579
538,619.6578101188508
539,619.6811343341847
540,619.70527816525
541,619.7302262121962
542,619.7559659710035
543,619.7824826922464
544,619.8097534514005
545,619.8377408452376
546,619.866386869969
547,619.8956076211105
548,619.9252894644819
549,619.9552871913387
550,619.9854243675328
551,620.0154957387332
552,620.0452713421089
553,620.0745019560753
554,620.102925579823
555,620.1302746197414
556,620.1562833281616
557,620.1806948975259
558,620.2032676023462
559,620.2237795416631
560,620.2420318025354
561,620.2578501593847
562,620.2710856699033
563,620.2816146350198
564,620.2893382899717
565,620.2941823228085
566,620.2960960319684
567,620.2950508253
568,620.2910379244082
569,620.2840654806911
570,620.274155599956
571,620.2613418176765
572,620.245667358565
573,620.2271841942567
574,620.2059526333888
575,620.1820410073744
576,620.1555249473749
577,620.1264857744649
578,620.0950076688947
579,620.0611735556222
580,620.0250599924238
581,619.9867316895242
582,619.9462365361571
583,619.9036020609175
584,619.8588340364996
585,619.8119174967363
586,619.7628199583934
587,619.7114963701667
588,619.6578953156067
589,619.6019660911522
590,619.5436662472946
591,619.4829690385579
592,619.4198701642437
593,619.3543932658424
594,619.286593765015
595,619.2165606871642
596,619.1444161763258
597,619.0703125723663
598,618.9944272189159
599,618.9169555366577
600,618.8381032098072
601,618.7580784570564
602,618.6770852293986
603,618.5953178785877
604,618.5129575433314
605,618.4301703114181
606,618.3471070875349
607,618.2639049406556
608,618.1806895729093
609,618.0975785766761
610,618.0146852919556
611,617.9321231303564
612,617.8500100998317
613,617.7684730752344
614,617.6876512634772
615,617.6076983257083
616,617.5287826836677
617,617.4510856174489
618,617.3747968783224
619,617.3001077457167
620,617.2272017805891
621,617.1562439142889
622,617.0873688061833
623,617.0206694437491
624,616.9561867555425
625,616.893900772109
626,616.8337238078111
627,616.7754962201805
628,616.7189853004643
629,616.6638875986823
630,616.6098346027754
631,616.5564014353037
632,616.5031182174422
633,616.449483842368
634,616.3949818646578
635,616.3390979444565
636,616.2813379162609
637,616.22124532756
638,616.158417328961
639,616.09251800707
640,616.0232885032723
641,615.9505535280792
642,615.8742241983805
643,615.7942974771568
644,615.7108527882739
645,615.6240465291448
646,615.5341052122461
647,615.4413178878533
648,615.3460283628307
649,615.2486275296312
650,615.1495459085331
651,615.0492464101917
652,614.9482173907476
653,614.8469661642206
654,614.7460130880283
655,614.6458861393743
656,614.5471157129004
657,614.4502293606014
658,614.3557463587541
659,614.2641721433117
660,614.1759926639991
661,614.0916686047528
662,614.0116293057196
663,613.9362661611987
664,613.8659253236239
665,613.8008997677446
666,613.7414210958341
667,613.6876517422519
668,613.639678361677
669,613.59750713042
670,613.5610614614858
671,613.5301823039306
672,613.5046308879255
673,613.4840935645502
674,613.4681882856253
675,613.456472287396
676,613.44845069848
677,613.4435860376842
678,613.441308766367
679,613.4410290807722
680,613.442149960985
681,613.4440812421628
682,613.4462542387005
683,613.4481362515086
684,613.4492441268128
685,613.4491559727513
686,613.4475202595715
687,613.444061829173
688,613.4385846984068
689,613.4309718208548
690,613.4211821282901
691,613.4092452248448
692,613.3952540903472
693,613.3793561293525
694,613.3617429364853
695,613.3426392142181
696,613.3222913098148
697,613.300955829197
698,613.2788887899954
699,613.2563358040874
700,613.2335237799589
701,613.2106545726884
702,613.1879008910196
703,613.1654045985126
704,613.1432773162871
705,613.1216029840114
706,613.1004418277167
707,613.079835063833
708,613.0598096475271
709,613.040382423061
710,613.0215631181019
711,613.0033557543778
712,612.9857582715141
713,612.9687604596376
714,612.9523405665385
715,612.9364611103372
716,612.9210644837267
717,612.9060689056911
718,612.8913651995908
719,612.8768147820513
720,612.8622491314203
721,612.847470876007
722,612.8322565268195
723,612.8163607584671
724,612.7995220015874
725,612.7814690355392
726,612.7619283525255
727,612.7406322443197
728,612.7173276732389
729,612.6917859356793
730,612.663812958305
731,612.6332598782608
732,612.6000333890632
733,612.5641052044688
734,612.5255199774299
735,612.4844011621609
736,612.440954540722
737,612.3954693069063
738,612.3483166663666
739,612.2999459341102
740,612.250878151791
741,612.2016973351334
742,612.15303958533
743,612.105580400547
744,612.0600205636804
745,612.0170710054982
746,611.9774371195149
747,611.9418031257264
748,611.9108171654378
749,611.8850777981434
750,611.8651224502531
751,611.8514181443716
752,611.8443545362827
753,611.8442389422476
754,611.8512927312863
755,611.8656483056457
756,611.88734598138
757,611.9163303766122
758,611.9524462964445
759,611.9954344539422
760,612.0449276127396
761,612.1004478533949
762,612.1614056855444
763,612.2271017055863
764,612.2967314411179
765,612.3693938800257
766,612.4441039167838
767,612.5198085920944
768,612.5954066434564
769,612.6697706036434
770,612.7417705092764
771,612.8102982252782
772,612.8742914766163
773,612.9327568668906
774,612.9847913207182
775,613.029601436056
776,613.0665202607638
777,613.0950211155933
778,613.1147282190695
779,613.1254239160694
780,613.1270522785237
781,613.1197188372279
782,613.1036862886389
783,613.0793662090182
784,613.0473070800845
785,613.0081792200805
786,612.9627574196437
787,612.9119021472366
788,612.8565401471411
789,612.7976451664365
790,612.7362194375464
791,612.6732763960339
792,612.6098249369052
793,612.5468553472567
794,612.4853269253176
795,612.4261572152959
796,612.3702127755544
797,612.3183014448206
798,612.2711660921539
799,612.2294797544105
800,612.1938419206663
801,612.164775642239
802,612.1427252034983
803,612.1280542258636
804,612.1210441774485
805,612.1218932634798
806,612.1307155918138
807,612.147540398821
808,612.1723110749842
809,612.2048838097907
810,612.2450258421744
811,612.2924134779171
812,612.3466301933358
813,612.4071652913564
814,612.4734137057169
815,612.5446776265288
816,612.6201705764171
817,612.6990243621754
818,612.7802990264574
819,612.8629956383764
820,612.9460715564614
821,613.0284576977618
822,613.1090773654074
823,613.186866296782
824,613.260793701052
825,613.3298840374664
826,613.3932391091865
827,613.4500598165944
828,613.4996667755343
829,613.5415190005315
830,613.5752299086932
831,613.6005799557516
832,613.6175252784049
833,613.6262018014513
834,613.6269243737481
835,613.6201806478513
836,613.6066196485228
837,613.5870352752312
838,613.5623452981878
839,613.5335666666078
840,613.5017880893722
841,613.4681408577404
842,613.4337688151699
843,613.3997983210144
844,613.3673090411085
845,613.3373064147668
846,613.3106966538819
847,613.2882650842743
848,613.2706585178686
849,613.2583721652949
850,613.2517414315405
851,613.2509388261548
852,613.2559760920934
853,613.2667114030461
854,613.282861140642
855,613.3040155271353
856,613.3296573432681
857,613.3591829942078
858,613.3919251807828
859,613.4271764138077
860,613.4642126390082
861,613.502316282506
862,613.5407980241068
863,613.5790166113209
864,613.6163961221093
865,613.6524402300955
866,613.6867431408448
867,613.7189969615343
868,613.7489953723349
869,613.7766335491011
870,613.8019043204574
871,613.824890605816
872,613.8457543637905
873,613.8647225630338
874,613.8820709657571
875,613.8981067060814
876,613.9131507249606
877,613.9275210784562
878,613.9415179623765
879,613.9554110527833
880,613.9694295566417
881,613.9837552323125
882,613.99851850106
883,614.0137975946176
884,614.0296205355638
885,614.0459696447853
886,614.0627881432277
887,614.0799882699006
888,614.0974602952334
889,614.115081925138
890,614.1327277750911
891,614.150278718635
892,614.1676309246272
893,614.1847042987799
894,614.2014498910455
895,614.2178557447753
896,614.2339507673875
897,614.2498064561772
898,614.2655365306206
899,614.281294590217
900,614.2972699136778
901,614.3136815772563
902,614.3307712016442
903,614.34879471864
904,614.3680135042586
905,614.3886850990518
906,614.411053613167
907,614.4353398547228
908,614.4617312809767
909,614.4903720551313
910,614.5213536863639
911,614.5547068032004
912,614.5903945269298
913,614.6283077179806
914,614.6682621331545
915,614.7099973521505
916,614.7531773056672
917,614.7973923842485
