frame_number,force
0,610.8960600003379
1,611.2417580655572
2,611.5840719170357
3,611.9197071625775
4,612.245544578148
5,612.5587170938334
6,612.8566754511016
7,613.1372405126945
8,613.3986410466513
9,613.6395365446199
10,613.85902530406
11,614.0566385893237
12,614.2323221588432
13,614.3864068076127
14,614.5195698475958
15,614.6327896456414
16,614.7272954547846
17,614.804514790645
18,614.8660205050049
19,614.9134795140444
20,614.9486048829173
21,614.9731126550798
22,614.9886844437464
23,614.9969364110026
24,614.9993948952911
25,614.9974786366305
26,614.9924872947123
27,614.9855957259182
28,614.9778532406538
29,614.9701868349098
30,614.9634072738281
31,614.9582169377298
32,614.9552184680637
33,614.9549234102412
34,614.9577602305656
35,614.964081291004
36,614.9741685769743
37,614.9882381642439
38,615.0064435953362
39,615.0288785299379
40,615.0555791918974
41,615.0865271806587
42,615.1216531168725
43,615.1608413693303
44,615.2039358018127
45,615.2507461594146
46,615.3010545017162
47,615.354621072857
48,615.4111891593151
49,615.4704887257932
50,615.5322388549037
51,615.5961492249763
52,615.6619210232544
53,615.7292477547966
54,615.7978163466527
55,615.8673088247967
56,615.9374047438718
57,616.0077844948222
58,616.0781335612902
59,616.1481477127883
60,616.2175390194375
61,616.2860424692287
62,616.353422874334
63,616.4194816709356
64,616.484063150762
65,616.5470596159664
66,616.608414932939
67,616.668126003202
68,616.7262418055188
69,616.782859903426
70,616.8381206108954
71,616.8921992585732
72,616.9452970936012
73,616.9976312614893
74,617.0494241699826
75,617.1008924698484
76,617.1522359672937
77,617.2036269530776
78,617.2552005809263
79,617.3070469419102
80,617.3592053083952
81,617.4116607206291
82,617.464342821242
83,617.5171267410035
84,617.5698358913461
85,617.6222465997075
86,617.6740945167289
87,617.725082603677
88,617.7748903288496
89,617.823183545846
90,617.8696244640466
91,617.913881177688
92,617.9556363637995
93,617.9945949424035
94,618.0304906739757
95,618.0630917928314
96,618.092205793429
97,618.1176834349903
98,618.1394220075829
99,618.1573679571565
100,618.1715190448502
101,618.1819262279131
102,618.1886953329229
103,618.1919883433276
104,618.1920238421122
105,618.1890760035357
106,618.1834715977029
107,618.1755846788711
108,618.165828842551
109,618.1546471121017
110,618.1424996907078
111,618.1298500089912
112,618.1171496528802
113,618.1048228021846
114,618.0932507726354
115,618.0827572340013
116,618.0735947336431
117,618.0659332349763
118,618.0598513801339
119,618.05533107368
120,618.0522558076837
121,618.0504129423496
122,618.049499930892
123,618.0491342797128
124,618.0488669082998
125,618.0481984587207
126,618.0465979029219
127,618.0435225391482
128,618.038438307267
129,618.030839357014
130,618.0202658992927
131,618.0063194795724
132,617.9886749471076
133,617.9670886181103
134,617.941402483652
135,617.911544752543
136,617.8775274064675
137,617.8394416069559
138,617.7974516665631
139,617.7517880132604
140,617.702739370451
141,617.6506443542926
142,617.5958827576845
143,617.5388667947466
144,617.4800324870828
145,617.4198312723258
146,617.3587218976828
147,617.29716272293
148,617.2356046168843
149,617.1744846204198
150,617.1142204709165
151,617.0552059828509
152,616.9978071786578
153,616.9423589631347
154,616.8891620659944
155,616.8384799921597
156,616.790535824932
157,616.7455088849623
158,616.7035314121397
159,616.6646855661951
160,616.6290011191932
161,616.5964542575167
162,616.5669679206344
163,616.5404140466137
164,616.5166179690677
165,616.4953650370397
166,616.4764093059381
167,616.4594839065035
168,616.4443125288502
169,616.4306213851497
170,616.4181509543706
171,616.4066667177755
172,616.3959680537785
173,616.3858945933104
174,616.3763296269989
175,616.3672004747178
176,616.3584759918273
177,616.350161594653
178,616.3422923341882
179,616.3349246080467
180,616.328127087431
181,616.3219713777654
182,616.3165228513349
183,616.3118320103879
184,616.3079266691356
185,616.304805180551
186,616.3024308990962
187,616.3007281087364
188,616.2995797836355
189,616.2988277331049
190,616.298275750765
191,616.2976961787583
192,616.2968398309575
193,616.2954486861279
194,616.2932703285264
195,616.290072840545
196,616.2856587715262
197,616.2798769288969
198,616.2726310119563
199,616.2638844669722
200,616.2536613437862
201,616.242043332737
202,616.2291634880995
203,616.2151973690844
204,616.2003524842953
205,616.1848570337685
206,616.1689489731596
207,616.1528663429409
208,616.1368396051147
209,616.121086418448
210,616.105808901856
211,616.0911930724201
212,616.0774098988359
213,616.0646173536579
214,616.05296297243
215,616.0425866202933
216,616.0336232859867
217,616.0262057308474
218,616.0204667894703
219,616.0165411295752
220,616.0145663367321
221,616.0146832350996
222,616.0170353465784
223,616.0217673659296
224,616.0290225609434
225,616.038939106206
226,616.0516454537216
227,616.0672548504568
228,616.0858590338215
229,616.1075210688641
230,616.1322673302152
231,616.1600787745961
232,616.1908818169842
233,616.2245392681514
234,616.2608419567315
235,616.2995019025159
236,616.3401481644474
237,616.382326554012
238,616.4255041242651
239,616.4690787980468
240,616.5123939411718
241,616.5547572728202
242,616.5954631855413
243,616.6338172528161
244,616.6691614889482
245,616.7008988721324
246,616.7285157473607
247,616.7516009547693
248,616.7698608331737
249,616.7831295593385
250,616.7913745501609
251,616.7946968848302
252,616.7933269512412
253,616.7876158195793
254,616.7780231312059
255,616.7651024264649
256,616.7494847536565
257,616.7318611828553
258,616.7129646386284
259,616.693551345758
260,616.6743821349181
261,616.6562038466149
262,616.6397310971511
263,616.625628710421
264,616.6144951355083
265,616.6068471713173
266,616.6031063508283
267,616.6035873981331
268,616.6084892094932
269,616.6178887803952
270,616.6317383909706
271,616.6498661997966
272,616.6719802490084
273,616.6976757995268
274,616.7264458590224
275,616.7576946671807
276,616.7907537538417
277,616.824900036714
278,616.8593753176732
279,616.8934064818405
280,616.9262257157303
281,616.9570901538876
282,616.9853005107632
283,617.0102183865309
284,617.0312819966181
285,617.0480200653499
286,617.0600635851467
287,617.0671551158425
288,617.06915530371
289,617.0660463359719
290,617.0579321059234
291,617.0450349503948
292,617.0276889631145
293,617.0063300985975
294,616.9814835041622
295,616.9537486548912
296,616.9237828794708
297,616.8922838050677
298,616.8599711939054
299,616.8275686251565
300,616.7957854581443
301,616.7652994384019
302,616.7367401767183
303,616.7106736299244
304,616.6875877345674
305,616.6678794830802
306,616.6518438775589
307,616.6396652322051
308,616.6314111750635
309,616.6270294923848
310,616.6263478309073
311,616.6290763216922
312,616.6348133090477
313,616.6430543870192
314,616.6532048216284
315,616.6645952306578
316,616.6765001599241
317,616.6881589894538
318,616.6987984857183
319,616.7076562959691
320,616.7140047032455
321,616.7171739613607
322,616.7165744644868
323,616.711716891775
324,616.7022294112127
325,616.6878711198685
326,616.6685410979944
327,616.6442826935236
328,616.6152829555755
329,616.5818674998272
330,616.5444913917687
331,616.5037267655892
332,616.4602478746016
333,616.414814177625
334,616.368251974617
335,616.321435039637
336,616.275264635122
337,616.2306492126978
338,616.1884840669156
339,616.1496312772326
340,616.1149004308066
341,616.0850307615591
342,616.0606753664931
343,616.0423880335519
344,616.0306130020887
345,616.0256777990384
346,616.0277892091625
347,616.0370323980019
348,616.0533731457687
349,616.076663056377
350,616.1066474969326
351,616.1429759124446
352,616.1852140525577
353,616.2328575602265
354,616.2853463399647
355,616.3420791518743
356,616.402427942984
357,616.4657515260313
358,616.5314083542512
359,616.5987682711897
360,616.6672231512621
361,616.7361962692391
362,616.8051501407112
363,616.8735925790978
364,616.9410808272398
365,617.0072237520001
366,617.0716821649836
367,617.1341673603641
368,617.1944380086877
369,617.2522956728269
370,617.3075794074598
371,617.3601600729966
372,617.4099350213697
373,617.4568236451852
374,617.5007639944392
375,617.5417103957226
376,617.5796318638064
377,617.6145110981857
378,617.6463439520868
379,617.6751393556527
380,617.7009197054347
381,617.7237216966596
382,617.7435975157858
383,617.7606162766572
384,617.7748655678621
385,617.7864529305546
386,617.7955070163305
387,617.8021781858621
388,617.8066384611433
389,617.8090809501691
390,617.8097189644626
391,617.8087849701017
392,617.8065293062607
393,617.8032184061823
394,617.7991322028204
395,617.794560546555
396,617.7897987155009
397,617.7851423040548
398,617.7808818482747
399,617.7772975210302
400,617.7746541850437
401,617.7731970682805
402,617.7731483158223
403,617.7747046581673
404,617.7780363997994
405,617.783287854569
406,617.7905792462997
407,617.8000099774378
408,617.8116630208007
409,617.8256099793132
410,617.8419161482706
411,617.8606448162893
412,617.8818600949226
413,617.9056277382489
414,617.932013675557
415,617.9610803137643
416,617.992880999868
417,618.0274532701801
418,618.0648116194774
419,618.104940533906
420,618.1477884734749
421,618.1932633521775
422,618.241229842464
423,618.2915085916563
424,618.3438772979574
425,618.3980735976724
426,618.4537997681551
427,618.5107292274237
428,618.5685146841363
429,618.6267976107803
430,618.6852185252882
431,618.7434274171558
432,618.8010936211986
433,618.8579145786832
434,618.9136231619585
435,618.9679934165091
436,619.0208446120585
437,619.0720434629285
438,619.1215043913089
439,619.1691877959682
440,619.2150964094784
441,619.2592699441519
442,619.3017783293584
443,619.3427138991058
444,619.3821828741876
445,619.4202964468549
446,619.4571617906203
447,619.4928733773625
448,619.5275050261945
449,619.5611031097714
450,619.5936813209644
451,619.6252173412381
452,619.6556516058729
453,619.6848881553991
454,619.7127974176406
455,619.7392207557446
456,619.7639766721111
457,619.7868685558001
458,619.80769377884
459,619.8262538529239
460,619.8423652986107
461,619.8558708224845
462,619.866650293669
463,619.8746308843522
464,619.8797956780086
465,619.8821900898124
466,619.8819255321757
467,619.8791798619267
468,619.8741943242376
469,619.8672670190158
470,619.8587432930905
471,619.8490037466228
472,619.8384506365496
473,619.827493442906
474,619.816534404356
475,619.8059549516992
476,619.7961039791844
477,619.7872886144743
478,619.7797676706205
479,619.7737475855635
480,619.7693805668716
481,619.7667647661564
482,619.7659463805248
483,619.766923516594
484,619.7696515384712
485,619.774049567268
486,619.7800078159286
487,619.7873954549057
488,619.7960686495156
489,619.8058782978406
490,619.8166768986379
491,619.8283239804263
492,619.8406896843571
493,619.853656389328
494,619.8671185837067
495,619.8809814154366
496,619.8951584768556
497,619.9095694313918
498,619.924138051597
499,619.9387910944087
500,619.953458243548
501,619.9680731710272
502,619.9825756222054
503,619.9969143032565
504,620.0110502580121
505,620.0249603587536
506,620.038640483039
507,620.0521079336448
508,620.0654027505933
509,620.0785877766928
510,620.0917475730798
511,620.1049864020995
512,620.1184254563902
513,620.132199404694
514,620.1464522696773
515,620.1613326881118
516,620.176988690218
517,620.1935622305939
518,620.2111837603065
519,620.2299670982168
520,620.2500047747575
521,620.2713639882896
522,620.2940833417799
523,620.3181705116189
524,620.3436008997128
525,620.3703172118986
526,620.3982298638177
527,620.4272181352383
528,620.457132040185
529,620.4877949444294
530,620.5190070336207
531,620.5505497454517
532,620.5821911568728
533,620.6136921031751
534,620.6448126223423
535,620.6753182426626
536,620.7049856675249
537,620.7336075461931
538,620.7609962294595
539,620.7869866219463
540,620.8114383666448
541,620.8342375875403
542,620.8552982910787
543,620.8745633635849
544,620.8920050074266
545,620.9076244747922
546,620.9214510213819
547,620.9335400502553
548,620.9439704498893
549,620.9528411660444
550,620.9602671009133
551,620.9663745491059
552,620.9712965689017
553,620.9751688433452
554,620.9781265612767
555,620.9803026287005
556,620.9818272448424
557,620.9828286675273
558,620.9834348627979
559,620.983775671094
560,620.9839851339128
561,620.984203678193
562,620.9845798862466
563,620.9852715749614
564,620.9864459122449
565,620.9882783369006
566,620.990950108061
567,620.9946443848338
568,620.9995408384955
569,621.005808918734
570,621.0135999968714
571,621.0230386962629
572,621.0342138373527
573,621.047169567218
574,621.0618973397434
575,621.0783294216461
576,621.0963345501192
577,621.1157162895033
578,621.1362145218253
579,621.1575103555459
580,621.1792345558384
581,621.2009793857277
582,621.2223134976929
583,621.2427992434422
584,621.2620115029007
585,621.2795569216995
586,621.2950923626323
587,621.3083414575124
588,621.3191083329458
589,621.3272877745293
590,621.3328712511405
591,621.3359483775072
592,621.3367035708318
593,621.3354078579989
594,621.3324060561708
595,621.3280999252848
596,621.3229283249643
597,621.3173457793696
598,621.3118010638245
599,621.3067174297761
600,621.3024758738051
601,621.2994024561428
602,621.2977601287971
603,621.2977449301554
604,621.2994858757606
605,621.3030475469812
606,621.3084343196014
607,621.3155953786444
608,621.3244300284198
609,621.3347931489606
610,621.3465008260363
611,621.3593361772137
612,621.3730553103351
613,621.3873932677845
614,621.4020697427974
615,621.41679432078
616,621.431271037993
617,621.4452021533953
618,621.458291162906
619,621.4702452408765
620,621.4807774291872
621,621.4896089020516
622,621.4964714595461
623,621.5011101363797
624,621.5032856234428
625,621.5027762145962
626,621.4993792180479
627,621.4929120874535
628,621.4832137530636
629,621.4701466501566
630,621.4535997588181
631,621.433492697507
632,621.4097806836256
633,621.3824600364567
634,621.3515737913524
635,621.3172168521459
636,621.2795399737975
637,621.2387518599185
638,621.1951188307671
639,621.1489617768301
640,621.1006503426515
641,621.0505944723691
642,620.9992336471365
643,620.9470243615867
644,620.8944265656286
645,620.8418898712397
646,620.7898402548901
647,620.7386678099687
648,620.6887159092714
649,620.6402719924729
650,620.5935601376457
651,620.5487356558007
652,620.5058821341613
653,620.4650114758857
654,620.4260673835707
655,620.3889324454572
656,620.3534386520423
657,620.3193808755692
658,620.2865325807728
659,620.2546627865738
660,620.223553079529
661,620.1930133599622
662,620.162895075684
663,620.1331009857478
664,620.1035908959105
665,620.0743831723038
666,620.0455521068737
667,620.0172214419955
668,619.9895546248699
669,619.962742576393
670,619.9369898076067
671,619.9124996351801
672,619.8894591878334
673,619.8680249360632
674,619.8483095452914
675,619.8303708299486
676,619.8142034377274
677,619.7997336653301
678,619.7868175555255
679,619.7752421943637
680,619.7647299440957
681,619.7549452036039
682,619.7455031831295
683,619.7359801667185
684,619.7259248380313
685,619.7148703578407
686,619.7023468573229
687,619.6878938495537
688,619.671071941503
689,619.6514733320316
690,619.6287309063846
691,619.6025260917609
692,619.5725957997987
693,619.5387386837455
694,619.5008207062289
695,619.4587798128985
696,619.4126293971298
697,619.3624602104003
698,619.3084404296444
699,619.2508137456341
700,619.1898955416805
701,619.1260674033177
702,619.0597702515732
703,618.9914962933663
704,618.9217798049823
705,618.8511866572563
706,618.7803025577506
707,618.7097201944036
708,618.6400256870412
709,618.571784866287
710,618.5055298686668
711,618.4417464204632
712,618.3808620770411
713,618.3232356644152
714,618.2691482746434
715,618.2187963679003
716,618.1722876842192
717,618.1296405734138
718,618.0907869831315
719,618.0555789038619
720,618.0237977798865
721,617.9951662989835
722,617.9693619693734
723,617.9460318816549
724,617.9248080163134
725,617.9053224352464
726,617.8872217152857
727,617.8701800039079
728,617.8539100654958
729,617.8381716938616
730,617.8227769879455
731,617.8075922497161
732,617.7925366050047
733,617.7775777593198
734,617.7627254712708
735,617.7480233383762
736,617.7335394674914
737,617.7193566666599
738,617.7055628893414
739,617.6922426253901
740,617.6794697244109
741,617.6673018666474
742,617.6557766695986
743,617.644909245284
744,617.6346908789285
745,617.6250884103745
746,617.6160439387274
747,617.6074746696293
748,617.5992730034203
749,617.5913071906285
750,617.583422976193
751,617.5754465886913
752,617.5671892173294
753,617.5584528458862
754,617.5490371262407
755,617.538746943962
756,617.5274003630301
757,617.5148365974699
758,617.5009235356997
759,617.4855642727624
760,617.4687022051168
761,617.4503244786694
762,617.4304638065183
763,617.4091987915116
764,617.3866529283747
765,617.3629924826232
766,617.3384234446233
767,617.313187690265
768,617.2875583467734
769,617.2618342552367
770,617.2363334522441
771,617.2113857633598
772,617.1873247772024
773,617.1644795349814
774,617.1431662644942
775,617.1236805113033
776,617.1062900606883
777,617.0912289909433
778,617.0786930192083
779,617.0688360891575
780,617.0617679893743
781,617.0575526968375
782,617.0562071323586
783,617.0577001198894
784,617.0619515237004
785,617.0688317216391
786,617.0781616969244
787,617.0897140552225
788,617.1032151969782
789,617.1183487321509
790,617.1347600545946
791,617.1520618537751
792,617.1698403136195
793,617.1876618526442
794,617.2050804062837
795,617.2216453281883
796,617.2369099605011
797,617.2504408371838
798,617.2618273745563
799,617.2706917715587
800,617.2766987189567
801,617.2795644642621
802,617.2790648130838
803,617.2750417250043
804,617.267408241528
805,617.2561515456472
806,617.2413339933297
807,617.2230919920055
808,617.2016326538994
809,617.1772282433212
810,617.1502085796369
811,617.1209517401173
812,617.0898735821326
813,617.0574167204318
814,617.0240396343354
815,616.9902065358887
816,616.9563784774617
817,616.9230059175678
818,616.8905226793274
819,616.8593410346517
820,616.8298475740465
821,616.8023995528571
822,616.7773214866178
823,616.7549018497141
824,616.7353897943501
825,616.7189918822482
826,616.7058689499709
827,616.696133395436
828,616.6898473040479
829,616.687021849919
830,616.6876182871011
831,616.6915506302673
832,616.698689868166
833,616.7088692828909
834,616.7218902219574
835,616.7375276134461
836,616.755534704168
837,616.7756468548608
838,616.7975845702016
839,616.8210561560572
840,616.845760468644
841,616.8713901774715
842,616.8976358176907
843,616.9241906854322
844,616.9507564151083
845,616.9770489543506
846,617.0028046176284
847,617.0277858798894
848,617.0517865311795
849,617.0746357996965
850,617.0962011083728
851,617.11638922815
852,617.1351456859485
853,617.1524523935021
854,617.1683236117257
855,617.1828005221681
856,617.19594478657
857,617.2078315210275
858,617.2185421066638
859,617.2281572057746
860,617.2367502343694
861,617.2443813649111
862,617.2510919727623
863,617.2568994126774
864,617.2617921667768
865,617.2657256823294
866,617.2686195109703
867,617.2703565557474
868,617.2707852072612
869,617.2697248535402
870,617.2669747629973
871,617.2623258254673
872,617.255574232454
873,617.2465359493085
874,617.2350607598275
875,617.2210447064975
876,617.2044399181434
877,617.1852611279562
878,617.1635885595066
879,617.1395671542815
880,617.1134022857152
881,617.0853522510976
882,617.0557180400847
883,617.0248310964025
884,616.9930399187516
885,616.9606963460316
886,616.9281422426135
887,616.8956970807855
888,616.8636467041329
889,616.8322334312704
890,616.8016476220516
891,616.7720208274266
892,616.7434206520494
893,616.7158474794228
894,616.6892332551396
895,616.6634425868932
896,616.6382764448074
897,616.6134786631993
898,616.5887452456628
899,616.5637362131442
900,616.5380894864423
901,616.5114361549618
902,616.4834165162533
903,616.453696397574
904,616.4219833072319
905,616.3880418395598
906,616.35170759788
907,616.3128988382402
908,616.2716250733893
909,616.227991973803
910,616.1822020969227
911,616.1345513101504
912,616.0854211755108
913,616.0352678783506
914,615.9846084261527
915,615.9340048669311
916,615.8840472547168
917,615.8353360290263
