frame_number,force
0,592.8715800000433
1,593.0759451261015
2,593.2674751485308
3,593.4344418859232
4,593.5672133609647
5,593.6590135267356
6,593.7063629615416
7,593.7091537493833
8,593.6703618702978
9,593.5954429604387
10,593.4914887880102
11,593.366246229211
12,593.2271193430374
13,593.08028203497
14,592.9300146198404
15,592.7783432894817
16,592.6250207841531
17,592.4678503479736
18,592.3033193714605
19,592.1274662192643
20,591.9368604015503
21,591.7295509656062
22,591.5058400679295
23,591.2687596470056
24,591.0241569827671
25,590.7803307581078
26,590.5472157661335
27,590.335197116187
28,590.1537241213473
29,590.0099534273024
30,589.9076565290787
31,589.8465808676963
32,589.8223712059024
33,589.8270578455829
34,589.8500235309023
35,589.8792902936913
36,589.9029300966208
37,589.9104038001204
38,589.8936699983662
39,589.8479627382194
40,589.7721911348245
41,589.6689492030595
42,589.5441451221841
43,589.4062850105879
44,589.2654930529394
45,589.1324086588965
46,589.0171362994553
47,588.9284017869394
48,588.8729963027
49,588.8555094755666
50,588.87830369752
51,588.9416681119493
52,589.0440951435099
53,589.1826303070162
54,589.3532503469488
55,589.5512238053493
56,589.7714089084143
57,590.0084591552752
58,590.2569391813075
59,590.5113858431001
60,590.766364899883
61,591.0165692932408
62,591.2569839756718
63,591.4831059403579
64,591.6911661528749
65,591.8782802211966
66,592.0424846986305
67,592.1826831055206
68,592.2985728595767
69,592.3906088970471
70,592.4600032966916
71,592.5087188615707
72,592.539413466377
73,592.555311911622
74,592.5600035659538
75,592.557187319753
76,592.5504043704523
77,592.5427978847922
78,592.5369190823587
79,592.5345827774134
80,592.5367712402614
81,592.5435869411039
82,592.5542598793787
83,592.5672250087592
84,592.5802873204892
85,592.590867595266
86,592.5962790209376
87,592.5939640600188
88,592.5816470244683
89,592.5574051172484
90,592.5196859411673
91,592.4672947240356
92,592.3993629057162
93,592.3153032565981
94,592.2147506022606
95,592.0974867678045
96,591.9633644489082
97,591.8122645823315
98,591.6441168894236
99,591.4589806547932
100,591.257154058511
101,591.039283907174
102,590.8064759458052
103,590.560423989316
104,590.3035585099914
105,590.0391746279929
106,589.7714733774096
107,589.5054628425802
108,589.2467077844092
109,589.0009553797902
110,588.773675023469
111,588.5695415457333
112,588.3918978102613
113,588.242263834321
114,588.1199847736763
115,588.0221017100706
116,587.94349362371
117,587.8772982584786
118,587.8155855655348
119,587.750227654061
120,587.673873837474
121,587.5808988778329
122,587.4681731439697
123,587.3355309777925
124,587.185873753512
125,587.0248995170484
126,586.8604888089926
127,586.7018099921538
128,586.5582463239484
129,586.4382824596764
130,586.3485011446135
131,586.2928203462285
132,586.2720582375542
133,586.2838696381741
134,586.3230594247897
135,586.3822381485229
136,586.4527382564179
137,586.525662959574
138,586.5929089891845
139,586.6480063146887
140,586.6866603830367
141,586.7069519240939
142,586.7092162994112
143,586.6956685368301
144,586.6698630799826
145,586.6360877209199
146,586.5987905704733
147,586.5621236670758
148,586.5296552717462
149,586.5042574350971
150,586.4881262045807
151,586.4828585466402
152,586.4895109851408
153,586.5086010991586
154,586.5400634735788
155,586.5832062466812
156,586.6367173655043
157,586.6987497833442
158,586.7670859409361
159,586.8393489180213
160,586.9132012440763
161,586.9864738285097
162,587.0572053904349
163,587.1236269471353
164,587.1841610260957
165,587.2374980602171
166,587.2827681766486
167,587.3197720281838
168,587.349195735338
169,587.3727258113536
170,587.3930052796813
171,587.4134261881015
172,587.4378067255493
173,587.4700182898744
174,587.5136106015558
175,587.5714646492371
176,587.6455021376489
177,587.7364851284531
178,587.8439383975528
179,587.9662202050758
180,588.100753652093
181,588.2444031639953
182,588.3939417389583
183,588.5465214663556
184,588.7000470259848
185,588.8533665830826
186,589.0062414039791
187,589.159124577605
188,589.3128355547947
189,589.4682274795312
190,589.6259133754284
191,589.7860806804133
192,589.9484036320221
193,590.1120521416282
194,590.2757820061578
195,590.4380757221542
196,590.5972944072092
197,590.7518075483584
198,590.9000889256055
199,591.0407916461943
200,591.1728250470532
201,591.2954435584213
202,591.4083326100681
203,591.5116597697313
204,591.6060637129965
205,591.6925740660503
206,591.7724737829104
207,591.847119307787
208,591.917725443922
209,591.98511586244
210,592.0494495237822
211,592.1099603908928
212,592.1647783269914
213,592.2109076194097
214,592.244410080648
215,592.2607824487715
216,592.2554664717463
217,592.2244130348754
218,592.1646342359675
219,592.0746925003195
220,591.9550781409368
221,591.8084233982527
222,591.6395067845541
223,591.4550222830744
224,591.2631187273603
225,591.0727481534084
226,590.8928905180562
227,590.7317370761315
228,590.5959114892036
229,590.4897948248977
230,590.4150169430981
231,590.3701889571838
232,590.3509561828013
233,590.3504205345113
234,590.3599184134682
235,590.3700679065935
236,590.3719369753354
237,590.3581484151072
238,590.3237408109197
239,590.2666486536322
240,590.1877406517183
241,590.0904471710901
242,589.9800891039332
243,589.8630654439048
244,589.7460577578614
245,589.6353758039683
246,589.5365140664624
247,589.4539288089151
248,589.3909945345566
249,589.3500712130112
250,589.3326165311333
251,589.3393042358913
252,589.3701410871191
253,589.424591387275
254,589.501712667483
255,589.6002895897096
256,589.7189438200622
257,589.8562037673947
258,590.0105338465204
259,590.180339514774
260,590.3639746369661
261,590.5597733781343
262,590.7661058233143
263,590.9814263380316
264,591.2042710897998
265,591.4331839327238
266,591.6665981577644
267,591.902741285131
268,592.1396312939113
269,592.3751956157779
270,592.607494690764
271,592.8349942042954
272,593.0568102728838
273,593.2728465756375
274,593.4837562647112
275,593.6907047631147
276,593.8949749683665
277,594.097510212415
278,594.2985034162659
279,594.4971182858011
280,594.6913933203074
281,594.8783424481865
282,595.0542279001608
283,595.2149518834923
284,595.3565078309837
285,595.4754428669073
286,595.5692872387527
287,595.6368967300082
288,595.6786489952517
289,595.6964499295239
290,595.6935360617401
291,595.6740929797776
292,595.642746924622
293,595.6040214505423
294,595.5618624138484
295,595.5193080201453
296,595.4783308811162
297,595.4398348444445
298,595.4037650097891
299,595.3692817834769
300,595.3349562094622
301,595.2989674692135
302,595.2593181836911
303,595.214103228462
304,595.1618494257698
305,595.1018923600508
306,595.0347040327414
307,594.962065097331
308,594.8870040541103
309,594.8134883176236
310,594.7459131300511
311,594.6884707368315
312,594.644499607737
313,594.6159229730434
314,594.6028789330478
315,594.6036079903644
316,594.6146095693605
317,594.6310327887854
318,594.6472386802627
319,594.6574529217612
320,594.6564142539902
321,594.6399257456779
322,594.6052492837078
323,594.5513342769136
324,594.4788997082475
325,594.3903800817397
326,594.289732768962
327,594.1821179034938
328,594.0734927728887
329,593.9701828621202
330,593.878489544304
331,593.8043733733359
332,593.7532203354469
333,593.7296711988665
334,593.7374864061073
335,593.7794313425454
336,593.8571872527152
337,593.9713105090908
338,594.1212711301158
339,594.3055932501821
340,594.5220868060582
341,594.7681065487933
342,595.0407366127167
343,595.3368173982244
344,595.652806842433
345,595.9845516193609
346,596.3270833980124
347,596.6745394691568
348,597.0202589457291
349,597.3570512622733
350,597.6775911825968
351,597.9748788666022
352,598.2427155483393
353,598.4761625009455
354,598.6719495847562
355,598.8287857365989
356,598.9475234123479
357,599.0311488870889
358,599.0845865305618
359,599.1142990474535
360,599.1276590684622
361,599.13210542359
362,599.1341867230717
363,599.1386764807248
364,599.1479500563235
365,599.1617398449072
366,599.1772847809038
367,599.1898139271225
368,599.1932660396475
369,599.1811366692995
370,599.1473464973669
371,599.0870306993703
372,598.9971612281036
373,598.8769383352666
374,598.7279181588816
375,598.55386657194
376,598.3603547843246
377,598.1541594340935
378,597.942580879192
379,597.7327984079743
380,597.531327403846
381,597.3435804045495
382,597.1735162778239
383,597.0233897654298
384,596.893641216919
385,596.7829560837783
386,596.6884819235592
387,596.6061521701255
388,596.531057635346
389,596.4578280331305
390,596.3810172682294
391,596.2955061526111
392,596.1969300803856
393,596.0821083297766
394,595.9494173914761
395,595.7990377662711
396,595.6330181428266
397,595.4551311785411
398,595.2705280607329
399,595.085228370759
400,594.9055067689704
401,594.7372580800766
402,594.5854322546382
403,594.4536233115239
404,594.3438700568664
405,594.2566847715844
406,594.1912765889173
407,594.1458950017383
408,594.1182048661672
409,594.105620469635
410,594.1055556615703
411,594.1155715046547
412,594.1334194588868
413,594.1569931428512
414,594.1842158062958
415,594.212899663729
416,594.24061915196
417,594.2646458614103
418,594.2819899190861
419,594.2895685205765
420,594.2844790390544
421,594.2643123999289
422,594.2274274230031
423,594.1731279370545
424,594.1017267793429
425,594.0145166470026
426,593.9136783858348
427,593.8021475911215
428,593.6834497542222
429,593.561510307151
430,593.4404387611069
431,593.324272433806
432,593.2166633842636
433,593.1205196672381
434,593.0376562257502
435,592.9685377792196
436,592.9121876042649
437,592.8663033279945
438,592.8275850140154
439,592.792252443132
440,592.756703125827
441,592.7182318400509
442,592.6756993916191
443,592.6300176105607
444,592.5843239453096
445,592.5437618670798
446,592.5148639987403
447,592.5046359249119
448,592.5195203563154
449,592.5644429569754
450,592.6420946360968
451,592.7525246853785
452,592.893049374519
453,593.0584404197815
454,593.2413418463
455,593.4328631145783
456,593.6233019098738
457,593.8029486962959
458,593.962907586345
459,594.0958399032436
460,594.1965205897051
461,594.2621177788014
462,594.2921636872301
463,594.2882528374492
464,594.2535524649774
465,594.1922362258392
466,594.1089633507321
467,594.0085095959
468,593.8955976406214
469,593.7748934775904
470,593.651081412465
471,593.528930000029
472,593.4132956692533
473,593.3090445853504
474,593.2208891346135
475,593.1531378771498
476,593.1093588830606
477,593.0919693597692
478,593.1017991936284
479,593.1377218451511
480,593.1964686406446
481,593.2727143191394
482,593.3594532588953
483,593.4486162736902
484,593.5318356816865
485,593.6012506853003
486,593.6502460749488
487,593.6740352192802
488,593.6700326123
489,593.6379985783224
490,593.5799663704797
491,593.4999790691476
492,593.4036745229878
493,593.2977649571346
494,593.1894673473661
495,593.085947985244
496,592.9938370562859
497,592.9188387452936
498,592.8654248156389
499,592.8365862328334
500,592.8336412900204
501,592.8561345535657
502,592.9018714243853
503,592.9671097016933
504,593.0468951431644
505,593.1355054772363
506,593.2269604261035
507,593.3155555247781
508,593.3963742425153
509,593.4657221625505
510,593.521419609798
511,593.5629000626501
512,593.591090257064
513,593.6080828549372
514,593.6166489749093
515,593.6196732258568
516,593.6196159049285
517,593.6180994998666
518,593.6156764630244
519,593.611779927234
520,593.604817694789
521,593.5923644974881
522,593.5714347029559
523,593.5388447562774
524,593.4916664096196
525,593.4277276047667
526,593.3460744536505
527,593.2473004901035
528,593.1336799207253
529,593.0090858358968
530,592.8787095723643
531,592.7486166863088
532,592.625185142365
533,592.5144832314154
534,592.4216623744032
535,592.350454819542
536,592.3028592141127
537,592.2790554601762
538,592.2775317141425
539,592.2953681460119
540,592.3286172885005
541,592.3727291185917
542,592.4229748486471
543,592.4748318364643
544,592.5243042857319
545,592.5681607353944
546,592.6040701006956
547,592.6306253837879
548,592.6472596999884
549,592.65407233265
550,592.6515931216701
551,592.6405339618058
552,592.6216033243505
553,592.5954633364281
554,592.5628610736061
555,592.5248776250495
556,592.4831624230247
557,592.4400096984358
558,592.3981989489401
559,592.3606233811927
560,592.3298149345987
561,592.3075058784093
562,592.2943426545501
563,592.289813115785
564,592.2923920031374
565,592.299861255815
566,592.3097237191831
567,592.319614568975
568,592.3276370569191
569,592.332596407126
570,592.334146935731
571,592.3328783193315
572,592.3303454685048
573,592.3290137743404
574,592.3320793746997
575,592.3431472830295
576,592.3657902135257
577,592.4030396633234
578,592.4568734083255
579,592.527773902712
580,592.6144430147621
581,592.7137528969635
582,592.8209755091949
583,592.9302719078424
584,593.0353628026718
585,593.1302678996348
586,593.2099969254194
587,593.2710870594414
588,593.3119035490452
589,593.3326622283931
590,593.3351969720259
591,593.322556380871
592,593.2985384491764
593,593.2672526230658
594,593.2327557873458
595,593.1987642731553
596,593.1684137964498
597,593.1440377900788
598,593.1269630322421
599,593.1173559469505
600,593.1141648810934
601,593.1151891239914
602,593.1172814138974
603,593.1166715683448
604,593.1093884697235
605,593.0917512268425
606,593.060886568738
607,593.015204467136
608,592.9547454560889
609,592.881324015855
610,592.7984315566923
611,592.7109107502941
612,592.6244573674866
613,592.5450374059474
614,592.4783139856902
615,592.4291606128418
616,592.4013097751556
617,592.3971574345155
618,592.4177176802871
619,592.4627087641346
620,592.5307596567008
621,592.6197353542966
622,592.7271570031414
623,592.8506420379234
624,592.9882569873362
625,593.1386981480232
626,593.3012746006798
627,593.4757194116935
628,593.6618791408406
629,593.859338550938
630,594.0670418073498
631,594.2829822641916
632,594.504041614826
633,594.726041021528
634,594.9440132011308
635,595.1526409273342
636,595.3467672725329
637,595.521881288498
638,595.6745149870067
639,595.8025293145906
640,595.9052882980087
641,595.983716537226
642,596.0402287572853
643,596.0785306768574
644,596.1033134493234
645,596.1198793605216
646,596.1337322194331
647,596.1501535444243
648,596.1737842184946
649,596.2082390193323
650,596.255782272616
651,596.3170842222901
652,596.3910730426771
653,596.4749052511123
654,596.5640896174239
655,596.6528003894682
656,596.7343938940321
657,596.8020994176703
658,596.8498036057725
659,596.8728062055661
660,596.8684105128456
661,596.8362339606721
662,596.7781812421931
663,596.6980984603357
664,596.6011974827187
665,596.4933813363825
666,596.3805989019451
667,596.2683125181051
668,596.1611015157918
669,596.0623848151141
670,595.9742446537846
671,595.8973590552558
672,595.8310748118014
673,595.773650785561
674,595.7226653183408
675,595.675526418022
676,595.6299778653009
677,595.5844837924097
678,595.5384075362999
679,595.4919644578812
680,595.4459928162127
681,595.4016229414824
682,595.3599259461159
683,595.3216062194741
684,595.2867876200277
685,595.2549345519844
686,595.2249323454392
687,595.195317089296
688,595.1646039462076
689,595.1316381134894
690,595.0958974512226
691,595.0577017219839
692,595.018308630786
693,594.9798873841717
694,594.945362615294
695,594.9181340788901
696,594.9017070646948
697,594.8992940014923
698,594.9134430066107
699,594.9457192445298
700,594.9964437201372
701,595.0645046273676
702,595.1472860240516
703,595.2407739020963
704,595.3398783994315
705,595.4389578052824
706,595.5324690992851
707,595.6156285508655
708,595.6849607872788
709,595.738641744043
710,595.7765846778444
711,595.8002695668371
712,595.8123682946851
713,595.81625321315
714,595.8154769379312
715,595.8132835290816
716,595.8121823756964
717,595.8136039597523
718,595.8176587338749
719,595.8230230616526
720,595.8269680173611
721,595.8255308190955
722,595.8138189727921
723,595.7864357857391
724,595.7380072107629
725,595.6637686825329
726,595.5601520482486
727,595.4253070638883
728,595.2594943195538
729,595.065294228629
730,594.8475899822748
731,594.6132958301592
732,594.3708191018518
733,594.1292812169016
734,593.8975801214447
735,593.6834268450397
736,593.4925044686308
737,593.3278728637824
738,593.1896891705378
739,593.0752570261371
740,592.9793850578236
741,592.895028984613
742,592.8141790661385
743,592.7289111573866
744,592.6324653803672
745,592.5201905053414
746,592.3902091131989
747,592.2437057563644
748,592.0847998633171
749,591.9200251250898
750,591.7574911931697
751,591.6058472619817
752,591.4731929286587
753,591.3660821965677
754,591.2887432855198
755,591.2426010140633
756,591.226153155429
757,591.2352238985401
758,591.2635890707986
759,591.3039218308353
760,591.3489345442513
761,591.3925125331034
762,591.4305970974868
763,591.4616160996528
764,591.4863697217158
765,591.507411256415
766,591.5280774752162
767,591.5514003927817
768,591.5791589762846
769,591.6112904401289
770,591.6457768234792
771,591.6789870159363
772,591.7063393846547
773,591.7230954928398
774,591.7251101019008
775,591.7094259355264
776,591.6746764991212
777,591.6213091836657
778,591.5516428410964
779,591.4697429731765
780,591.3810805759022
781,591.2919757019777
782,591.2088999539998
783,591.1377659441747
784,591.0833216211718
785,591.0487077147635
786,591.0351846162515
787,591.0420268340068
788,591.0666006820411
789,591.1046456709884
790,591.1507555190825
791,591.1990084328316
792,591.2436484426868
793,591.2796959094912
794,591.3033815727291
795,591.3123479705685
796,591.3056238377906
797,591.2834290976182
798,591.2468954635074
799,591.1977872480046
800,591.1382832521634
801,591.070844009923
802,590.9981546543771
803,590.923111119559
804,590.8488052679911
805,590.7784641051381
806,590.7153135149887
807,590.6623631507845
808,590.6221332379598
809,590.5963585460669
810,590.5857143769778
811,590.5896190846722
812,590.6061704043676
813,590.6322580858924
814,590.6638616020739
815,590.6964981989587
816,590.725750650533
817,590.7477915221725
818,590.759829323694
819,590.7604176579415
820,590.7495895652062
821,590.7288130905994
822,590.700802277946
823,590.6692381873848
824,590.6384474599032
825,590.6130619311801
826,590.597660429205
827,590.5963916886425
828,590.6126014213353
829,590.6485153025217
830,590.7050306312373
831,590.7816377453687
832,590.8764537179036
833,590.9863320645104
834,591.1070209324854
835,591.2333694691343
836,591.3596095059678
837,591.4797456716168
838,591.5880583300253
839,591.6796714517924
840,591.7510943886574
841,591.8006378420753
842,591.8286259084889
843,591.837358372884
844,591.8308121853447
845,591.8141132827045
846,591.7928586777174
847,591.7724060210028
848,591.7572513010377
849,591.7505799509876
850,591.7540206176449
851,591.7675859821034
852,591.7897754513614
853,591.8178315031414
854,591.848149505774
855,591.8768191579011
856,591.9002374883601
857,591.9157017320856
858,591.9218772955584
859,591.9190482933892
860,591.9091010720662
861,591.8952555292259
862,591.8816178621903
863,591.8726549176937
864,591.8726784518915
865,591.8853955829965
866,591.9135545723524
867,591.9587009451697
868,592.0210481187711
869,592.0994541298229
870,592.1914897821778
871,592.2935869681179
872,592.4012609553429
873,592.5094016505197
874,592.6126276058566
875,592.7056922336272
876,592.7839214711599
877,592.8436472501418
878,592.8825876849271
879,592.9001196548592
880,592.8973969958478
881,592.8772905819997
882,592.8441634144245
883,592.8035297275877
884,592.7616592306887
885,592.7251713326713
886,592.70064111238
887,592.6942270971833
888,592.7113274182067
889,592.7562679433595
890,592.832026106142
891,592.9400042115659
892,593.0798840829168
893,593.2496047486447
894,593.4454915279334
895,593.6625351413622
896,593.8947922469073
897,594.1358615913239
898,594.3793792639489
899,594.6194721916944
900,594.8511161084945
901,595.0703639296148
902,595.2744362651517
903,595.461689276014
904,595.6314891945955
905,595.7840232364047
906,595.9200679422075
907,596.0407303731018
908,596.1471821483783
909,596.2404192857007
910,596.3210953894053
911,596.3894788537202
912,596.4455626152914
913,596.4893102574433
914,596.5209776333106
915,596.5414275778274
916,596.5523594931032
917,596.5563925202632
