frame_number,force
0,590.9061300000274
1,591.2125795822969
2,591.5025539522742
3,591.7614484949771
4,591.9780813936837
5,592.1457003332147
6,592.2623467434277
7,592.3305939016989
8,592.3567543917153
9,592.3497097510983
10,592.3195569458031
11,592.2762790549704
12,592.2286165747404
13,592.1832513340188
14,592.1443504693608
15,592.1134767403049
16,592.0898456745841
17,592.0708773761795
18,592.0529477266743
19,592.032211860741
20,592.005373010909
21,591.9703003622427
22,591.9264400558836
23,591.8749901492898
24,591.818815939479
25,591.7620886765848
26,591.7096675942123
27,591.6663088249474
28,591.635838340712
29,591.6204412106052
30,591.6201990417327
31,591.6329647044818
32,591.6546023398864
33,591.6795461774136
34,591.701564036259
35,591.7145785093577
36,591.7134134643771
37,591.6943790280342
38,591.6556539061926
39,591.5974545235437
40,591.522000401403
41,591.4332962917925
42,591.3367500099118
43,591.238641464195
44,591.1454746221607
45,591.0632807272026
46,590.9969705760811
47,590.9498313057111
48,590.9232315779898
49,590.9165592964873
50,590.9273843745331
51,590.9518171526131
52,590.9850138352002
53,591.0217618843617
54,591.0570686090699
55,591.0866796022246
56,591.107463311725
57,591.1176105053047
58,591.1166217421928
59,591.1050993516897
60,591.0844126699284
61,591.0563403006479
62,591.0227872814373
63,590.9856294195599
64,590.9466791086224
65,590.9077255707343
66,590.8705873085364
67,590.8371212780008
68,590.8091571251806
69,590.7883586059365
70,590.7760440795278
71,590.7730147786805
72,590.7794474725409
73,590.7949078917225
74,590.8185174817926
75,590.8492490467951
76,590.8862615370662
77,590.9291564162012
78,590.9780679027197
79,591.0335628350996
80,591.0963850601175
81,591.1671147483736
82,591.2458226558971
83,591.3317868483874
84,591.4233174723606
85,591.5177229290686
86,591.6114523080744
87,591.7004419448073
88,591.7806549485165
89,591.8487375144605
90,591.9026555239201
91,591.9421502725849
92,591.9688835094154
93,591.9862298807203
94,591.9987840804921
95,592.0117221677273
96,592.0301579853998
97,592.0585865346254
98,592.1004551029876
99,592.1578784061501
100,592.2315078633457
101,592.3205573459694
102,592.4229726502467
103,592.535717729706
104,592.655141434587
105,592.7773776964502
106,592.8987188446694
107,593.0158996949332
108,593.1262510815859
109,593.2277210359952
110,593.3188021192941
111,593.3984238419088
112,593.4658613876999
113,593.5206902567055
114,593.5628006666917
115,593.5924745489644
116,593.610506424186
117,593.618320120093
118,593.6180230437603
119,593.6123645537901
120,593.6046050088574
121,593.5983240124567
122,593.5971919748471
123,593.604719357639
124,593.6240012124006
125,593.6574836556724
126,593.7067777679205
127,593.7725360321259
128,593.8543964071149
129,593.9509878248623
130,594.0599765471603
131,594.1781287746679
132,594.3013801562869
133,594.424924842913
134,594.5433503030356
135,594.6508460343751
136,594.7415039970487
137,594.8097075969486
138,594.8505823387361
139,594.8604596207236
140,594.8372871436337
141,594.7809163279012
142,594.6932203939717
143,594.5780355271306
144,594.4409464785905
145,594.2889458521539
146,594.129994384176
147,593.9725128402159
148,593.8248426442582
149,593.6947079859161
150,593.5887024626745
151,593.5118346918731
152,593.4671966648751
153,593.4558198490045
154,593.4767339635802
155,593.5271795039598
156,593.6028949509828
157,593.6984134647589
158,593.8073459927253
159,593.922671357038
160,594.0370671973608
161,594.1432905700351
162,594.234583276361
163,594.3050636979777
164,594.3500703001201
165,594.3664253128006
166,594.3525880926026
167,594.3086774865285
168,594.2363699468765
169,594.1387144465108
170,594.0199186104772
171,593.8851403624317
172,593.7402862556233
173,593.5917953329885
174,593.4463751649057
175,593.3106503095062
176,593.190698913825
177,593.0915025523869
178,593.0163954305741
179,592.9666334832274
180,592.9411932235276
181,592.9368631381882
182,592.9486287470894
183,592.9702959179959
184,592.9952556262401
185,593.0172706063951
186,593.0311632100137
187,593.0333054627671
188,593.0218524563572
189,592.996708117939
190,592.9592558056565
191,592.9119195029704
192,592.8576460212694
193,592.7994123355406
194,592.7398536805451
195,592.6810697172056
196,592.6246097462138
197,592.5715872141394
198,592.5228435079755
199,592.4790763407013
200,592.4408738630638
201,592.4086481166474
202,592.3825163441717
203,592.3622053973519
204,592.3470381531972
205,592.3360108226766
206,592.3279197595367
207,592.3214849279631
208,592.3154501657665
209,592.3086795113828
210,592.300276497725
211,592.2897309946621
212,592.277069383383
213,592.2629640992849
214,592.2487559285128
215,592.2363612170569
216,592.2280664076753
217,592.2262333221199
218,592.2329444646458
219,592.2496271343022
220,592.2767212977492
221,592.3134779009342
222,592.357958809459
223,592.4072540641532
224,592.4578683036821
225,592.5061917360015
226,592.5489735895217
227,592.583744328725
228,592.6091656083466
229,592.6253020194923
230,592.6337915478944
231,592.6378568965366
232,592.6420898061145
233,592.6519825511757
234,592.6732553459287
235,592.7110880294791
236,592.769378335275
237,592.8501259637894
238,592.953012660058
239,593.0752339490053
240,593.2116307922718
241,593.3551452731004
242,593.4975702436569
243,593.6304911118535
244,593.7462598356742
245,593.838829139337
246,593.9043186118047
247,593.9412594483651
248,593.9505339774463
249,593.9350674109363
250,593.8993422172457
251,593.8488047300353
252,593.789234070532
253,593.7261474195636
254,593.6643136986244
255,593.6074295305798
256,593.5579763931032
257,593.5172406241866
258,593.4854559891509
259,593.462022536002
260,593.4457529728813
261,593.4350944629477
262,593.4282787825812
263,593.4233785327851
264,593.4182913839152
265,593.4107190472761
266,593.3982232706994
267,593.3784104629178
268,593.3492325660039
269,593.3093318539316
270,593.2583325762479
271,593.1969947587761
272,593.1271810813541
273,593.051636865529
274,592.9736335077877
275,592.8965568033282
276,592.8235234483402
277,592.7570904394579
278,592.6990949586931
279,592.6506322645107
280,592.612152717766
281,592.5836434172891
282,592.5648520431871
283,592.5555022709918
284,592.5554460233554
285,592.564711905191
286,592.5834417472494
287,592.6117420193641
288,592.6495000193253
289,592.6962199167408
290,592.7509202034976
291,592.8121123377937
292,592.8778626071394
293,592.9459229604663
294,593.0138964961208
295,593.0793908753429
296,593.1401239906324
297,593.1939751053291
298,593.2389972255319
299,593.2734109317377
300,593.2956001322622
301,593.304140191314
302,593.2978980420428
303,593.276229159924
304,593.2392541855187
305,593.1881539987733
306,593.1254006251444
307,593.0548399385708
308,592.9815531293713
309,592.9114596842494
310,592.8506899359537
311,592.8048213195572
312,592.7781096916619
313,592.7728550571273
314,592.7890237711564
315,592.8241968366591
316,592.8738330367465
317,592.9317651540164
318,592.9908218168188
319,593.0434850919681
320,593.082529068019
321,593.1016129654844
322,593.0958131612521
323,593.0620740475965
324,592.9995453170667
325,592.9097612913223
326,592.7966153430041
327,592.6660974200703
328,592.5257985444322
329,592.3842358530793
330,592.2500919964658
331,592.1314676292197
332,592.0352189352327
333,591.9664264309644
334,591.9280338242806
335,591.9206889977927
336,591.9427966218834
337,591.9907636884745
338,592.0594040412959
339,592.1424675788274
340,592.2332579194358
341,592.3252847091085
342,592.4128717746105
343,592.491632913972
344,592.5587430944406
345,592.6129656194988
346,592.6544365169701
347,592.6842540361699
348,592.7039673275393
349,592.7150841228621
350,592.7187049740143
351,592.7153529144128
352,592.7050304078241
353,592.6875016190394
354,592.6627437737508
355,592.6314401581639
356,592.5953469413726
357,592.5573972696691
358,592.5214942039522
359,592.4920371363589
360,592.4732889471138
361,592.468721210239
362,592.4804758152401
363,592.5090482193766
364,592.5532356919413
365,592.6103288702011
366,592.6764812561258
367,592.7471761699913
368,592.8177174054474
369,592.8836847655018
370,592.9413086981708
371,592.9877314321864
372,593.0211391894652
373,593.0407660052933
374,593.0467805141488
375,593.0400774005199
376,593.0220066817784
377,592.9940801863506
378,592.9576944249771
379,592.9139132696475
380,592.8633652124539
381,592.8063051187135
382,592.7428456287382
383,592.6732967797957
384,592.5985126239012
385,592.5201545379236
386,592.4408197265946
387,592.3640146704715
388,592.2939668766551
389,592.2352764445808
390,592.1924219259433
391,592.1691577803106
392,592.167878078355
393,592.1890618594259
394,592.2309295562253
395,592.2894090788576
396,592.3584459035746
397,592.4306163533008
398,592.4979360093473
399,592.5527151713442
400,592.5883193462502
401,592.5997468864806
402,592.5840107993719
403,592.5403653891731
404,592.4704260688233
405,592.3781983683641
406,592.269983414398
407,592.1540907008464
408,592.0402920224307
409,591.9390023410953
410,591.860254076409
411,591.8126042671331
412,591.8021489551213
413,591.8318064027887
414,591.9009822724719
415,592.0056653138757
416,592.1389328069832
417,592.2917747230623
418,592.4540882205312
419,592.6156792354316
420,592.7671472042825
421,592.900586430111
422,593.010066771849
423,593.0918591294563
424,593.1443872597175
425,593.1679354789804
426,593.1642004273389
427,593.1358108332186
428,593.0859312729199
429,593.018014811184
430,592.935700202021
431,592.8427995947242
432,592.7433142465924
433,592.6414380744743
434,592.5415341951256
435,592.4480797732465
436,592.3655696114582
437,592.298359746834
438,592.2504325059394
439,592.2250820576654
440,592.2245481397073
441,592.2496482868563
442,592.2994667878692
443,592.3711609755098
444,592.4599502306477
445,592.5593467106003
446,592.6616497418455
447,592.7586625061165
448,592.8425296784291
449,592.9065666492256
450,592.9459618533328
451,592.9582695096824
452,592.9436494785565
453,592.9048387788962
454,592.8468532585813
455,592.7764289044045
456,592.7012363292179
457,592.6289438561688
458,592.5662496492014
459,592.5180313166662
460,592.486762253009
461,592.4723126095652
462,592.4721856666661
463,592.482149413755
464,592.4971371293063
465,592.5122354511946
466,592.5235641824
467,592.5288781085434
468,592.5277823315697
469,592.5215390937844
470,592.5125360837168
471,592.5035583020419
472,592.4970398930365
473,592.4944645949884
474,592.4960369271028
475,592.500671453666
476,592.5062693662726
477,592.5101988930742
478,592.5098745154204
479,592.5033221995368
480,592.4896151712837
481,592.4690824587365
482,592.4432458849082
483,592.4145190185657
484,592.3857680040467
485,592.3598559032724
486,592.3392661011803
487,592.3258556302081
488,592.320756670946
489,592.3244246432237
490,592.3368043626954
491,592.3575500556174
492,592.3862152443102
493,592.422342817454
494,592.4654271368425
495,592.5147706762776
496,592.5692986881064
497,592.6274076357639
498,592.686899638869
499,592.7450148111208
500,592.7985453270323
501,592.8440091884813
502,592.877866190964
503,592.8967626617984
504,592.8977951481921
505,592.878785905251
506,592.8385573346444
507,592.7771748357295
508,592.696108257173
509,592.5982589506838
510,592.4878226566932
511,592.3700024947875
512,592.2506284955031
513,592.1357523456815
514,592.0312610999675
515,591.9425185339987
516,591.8740330041696
517,591.8291692640406
518,591.8099385340486
519,591.8168942987252
520,591.8491414390827
521,591.9044557643954
522,591.9795139176048
523,592.0702334165655
524,592.1722055076555
525,592.2811766518954
526,592.3935153718722
527,592.5065969613396
528,592.619043646945
529,592.7307680779231
530,592.8427877701389
531,592.9568133736634
532,593.0746653806531
533,593.1976320756744
534,593.3259181563405
535,593.4583161537164
536,593.5921602548676
537,593.7235355408903
538,593.8476606925333
539,593.9593497795718
540,594.0534736871188
541,594.1253710608805
542,594.1711958477446
543,594.1882240529853
544,594.1751570791488
545,594.1324299795518
546,594.0624656486267
547,593.9697622689384
548,593.8607118836624
549,593.7431162835138
550,593.6254467952944
551,593.5159567993121
552,593.4217955215507
553,593.3482824008341
554,593.2984692925812
555,593.2730484079801
556,593.2705874923017
557,593.2880142925732
558,593.3212335267997
559,593.3657453778209
560,593.4171552756286
561,593.47151459002
562,593.525484662871
563,593.5763536263659
564,593.6219588786827
565,593.660580704633
566,593.6908655830207
567,593.711806840873
568,593.7227689038581
569,593.7235129666382
570,593.7141811426322
571,593.6952188762361
572,593.6672480140683
573,593.6309318646282
574,593.586883720993
575,593.5356536641635
576,593.4777985386053
577,593.4140198583397
578,593.3453484569584
579,593.2733464602256
580,593.2002763835525
581,593.1291674944991
582,593.0637134621583
583,593.0079692166497
584,592.9658665825938
585,592.9406202838863
586,592.9341351874266
587,592.9465439515461
588,592.9759948608503
589,593.0187654096623
590,593.0696987207178
591,593.122870231643
592,593.1723343231257
593,593.2128055844111
594,593.2401860197422
595,593.251914808884
596,593.2471532019448
597,593.2268151021285
598,593.1934353412476
599,593.1508636347367
600,593.1037944418538
601,593.0571763183722
602,593.0155680724438
603,592.9825183777914
604,592.9600493165083
605,592.9483254848246
606,592.9455787874465
607,592.948326163682
608,592.9518653890163
609,592.9509732769628
610,592.940680384921
611,592.9169805637731
612,592.8773601432932
613,592.8210805341914
614,592.749195988622
615,592.6643332377232
616,592.5703039578556
617,592.4716442921335
618,592.3731579986381
619,592.2794985215722
620,592.1947972179055
621,592.1223424660582
622,592.0643251202761
623,592.0216810749854
624,591.9940759219061
625,591.9800699514894
626,591.977455601841
627,591.9836921913155
628,591.9963260047879
629,592.0133100008607
630,592.0331992291498
631,592.0552359385734
632,592.0793283821547
633,592.1059042499206
634,592.1356278411189
635,592.1690125982503
636,592.206008885165
637,592.2456755328066
638,592.2860372814935
639,592.3241818662318
640,592.3565763529753
641,592.3795204531393
642,592.3896337298683
643,592.3842917351722
644,592.3619610252426
645,592.3224167094507
646,592.2668516021522
647,592.1978943915474
648,592.1195376031144
649,592.0369477963281
650,591.9561185030249
651,591.8833456048233
652,591.8245531357928
653,591.7845647311173
654,591.7664733776877
655,591.7712657126945
656,591.7977891002074
657,591.8430461106582
658,591.902719988193
659,591.9718055458418
660,592.0452315464559
661,592.1183867121442
662,592.1874870635938
663,592.249750070136
664,592.3033766742001
665,592.3473797195794
666,592.381325882785
667,592.4050716266286
668,592.4185652136781
669,592.4217523727498
670,592.4145774353564
671,592.3970419381174
672,592.3692814844617
673,592.3316396599897
674,592.2847389146284
675,592.2295578625215
676,592.1675113830694
677,592.1005019133352
678,592.030898384263
679,591.961423559723
680,591.8949709591976
681,591.8343946877156
682,591.7823116106748
683,591.74094119788
684,591.7119957900968
685,591.6966221286882
686,591.6953810977722
687,591.7082410376491
688,591.7345589932173
689,591.7730386307798
690,591.8216799175302
691,591.8777625114694
692,591.9379190592571
693,591.9983495169112
694,592.0552014967022
695,592.1050937947974
696,592.1456987365237
697,592.1762498918865
698,592.1978376458025
699,592.213406130192
700,592.2274436995831
701,592.2454224325369
702,592.2730687924383
703,592.315549667459
704,592.3766607336188
705,592.4581181326874
706,592.5590665229483
707,592.6759073025684
708,592.8025134030026
709,592.9308331580982
710,593.0518046328183
711,593.1564310702677
712,593.2368396045006
713,593.2871655103486
714,593.3041561322088
715,593.2874537834824
716,593.2395777248034
717,593.1656611196673
718,593.0730007707675
719,592.9704607552354
720,592.8677588206476
721,592.774666124787
722,592.7001665990957
723,592.6516513360498
724,592.6342543868714
725,592.6504396935534
726,592.6999018558116
727,592.7797629238445
728,592.8849834138804
729,593.0088959565944
730,593.1438046745944
731,593.2816278706963
732,593.4145627080271
733,593.5357249027054
734,593.639692508224
735,593.722880504496
736,593.783696145405
737,593.8224665255498
738,593.8411730323509
739,593.8430547744603
740,593.8321479462171
741,593.8128161560106
742,593.7893096862972
743,593.765380451852
744,593.7439793641879
745,593.7270685534073
746,593.715578058656
747,593.7095150643003
748,593.708197535952
749,593.7105471432025
750,593.7153581238059
751,593.721476568448
752,593.7278719705602
753,593.7336262950856
754,593.7378803778262
755,593.7397722693611
756,593.738398899217
757,593.7328339780593
758,593.7222265180004
759,593.7059773672739
760,593.6839570950016
761,593.6567070189737
762,593.6255633808272
763,593.5926558022287
764,593.5607522884585
765,593.5329587814763
766,593.512325618156
767,593.5014455153836
768,593.502131435132
769,593.5152378635609
770,593.5406455429224
771,593.5773799128062
772,593.6237942518135
773,593.6777400524591
774,593.7366800119396
775,593.797757338879
776,593.8578776439568
777,593.9138528083874
778,593.9626110366188
779,594.0014378094817
780,594.0282035064033
781,594.0415407435186
782,594.0409374444029
783,594.0267134069192
784,593.999863744937
785,593.9617824463571
786,593.9139091696127
787,593.8573647087719
788,593.7926547946023
789,593.7195176122941
790,593.6369578355091
791,593.543464019266
792,593.4373711114803
793,593.3173073030977
794,593.1826425490498
795,593.0338399542619
796,592.8726217342792
797,592.7019089907025
798,592.525564848675
799,592.3480310310891
800,592.1739672560901
801,592.0079742172646
802,591.8544272799882
803,591.7174002815391
804,591.6006333567456
805,591.5074942382995
806,591.4408900088133
807,591.403101443856
808,591.3955389734878
809,591.4184589843518
810,591.4707168212144
811,591.5496433651156
812,591.6511027439661
813,591.7697350977545
814,591.8993418633322
815,592.0333506168216
816,592.1652993065294
817,592.2892947957553
818,592.4004176760398
819,592.4950553668265
820,592.5711456093287
821,592.6283073748872
822,592.667833314377
823,592.692523786015
824,592.7063611330556
825,592.7140501500132
826,592.7204729456149
827,592.7301117828563
828,592.7464883052786
829,592.7716730912175
830,592.805941982838
831,592.8476690106637
832,592.8935172343347
833,592.9389171895693
834,592.9787432444145
835,593.0080542901862
836,593.0227755287405
837,593.0202448445118
838,592.9995920426375
839,592.9619381826166
840,592.9104057853709
841,592.8499405749853
842,592.7869621288838
843,592.7288719322431
844,592.683454089164
845,592.6582156077358
846,592.6597256750833
847,592.6930143167624
848,592.7610782903831
849,592.8645264211722
850,593.0013904956222
851,593.1671330547329
852,593.3548838873074
853,593.5559141586666
854,593.7603124673718
855,593.9577815206944
856,594.1384500034819
857,594.2936023728757
858,594.4162638508551
859,594.501619186075
860,594.5472685705429
861,594.5533200349308
862,594.5222959708598
863,594.4588214992182
864,594.3690859432106
865,594.2601224643016
866,594.1390108404862
867,594.012141781938
868,593.8846691352883
869,593.7602314200686
870,593.640969018758
871,593.5278028549131
872,593.4208813668891
873,593.3200711181346
874,593.2253750552351
875,593.1371939912543
876,593.0563868359055
877,592.9841349076248
878,592.9216674663857
879,592.8699340813945
880,592.8293005720683
881,592.7993191752403
882,592.7786102897793
883,592.7648892946282
884,592.7551498938967
885,592.7459730269866
886,592.7338978102064
887,592.7157903745401
888,592.6891697123466
889,592.6524712150626
890,592.6052287078611
891,592.5481390880594
892,592.4829684315429
893,592.4122898876573
894,592.339104441979
895,592.2664445997727
896,592.1970579014604
897,592.1332121983372
898,592.0765998390993
899,592.0282877831153
900,591.9886774253789
901,591.9574789347738
902,591.9337328560297
903,591.9159061487574
904,591.9020646122913
905,591.8901036597586
906,591.8780075375921
907,591.8640926947194
908,591.8471798915172
909,591.8266506303879
910,591.8023796337496
911,591.774577850985
912,591.7436076888886
913,591.7098310328656
914,591.6735257071233
915,591.634877810158
916,591.5940390414867
917,591.551223989351
