frame_number,force
0,711.3255600062716
1,711.3557312219162
2,711.38576777267
3,711.415535672521
4,711.4449022879438
5,711.4737370006574
6,711.5019118531075
7,711.5293021691125
8,711.5557871414571
9,711.5812503783985
10,711.6055804018165
11,711.6286710909817
12,711.6504220678192
13,711.6707390219068
14,711.6895339756205
15,711.7067254916029
16,711.7222388264565
17,711.7360060363579
18,711.7479660415584
19,711.7580646569614
20,711.7662545952215
21,711.7724954474659
22,711.7767536451851
23,711.7790024056025
24,711.7792216625521
25,711.777397985584
26,711.7735244908571
27,711.7676007475533
28,711.759632682987
29,711.7496324888654
30,711.7376185306892
31,711.7236152619074
32,711.7076531438166
33,711.6897685713649
34,711.6700038041986
35,711.6484069014326
36,711.6250316575006
37,711.5999375353816
38,711.5731895932703
39,711.5448584015313
40,711.5150199476973
41,711.4837555272667
42,711.4511516171016
43,711.4172997271435
44,711.3822962256521
45,711.3462421332695
46,711.3092428817437
47,711.2714080341518
48,711.2328509650151
49,711.1936885004795
50,711.1540405201536
51,711.1140295229571
52,711.0737801597111
53,711.0334187355048
54,710.9930726851073
55,710.9528700247643
56,710.9129387838614
57,710.8734064203018
58,710.8343992238946
59,710.7960417123054
60,710.7584560240726
61,710.7217613128923
62,710.6860731469559
63,710.651502916888
64,710.6181572560238
65,710.5861374774773
66,710.5555390335072
67,710.5264510035068
68,710.4989556170875
69,710.4731278182653
70,710.4490348761759
71,710.4267360472126
72,710.4062822927608
73,710.3877160554207
74,710.3710710946672
75,710.3563723806684
76,710.3436360431793
77,710.3328693716279
78,710.3240708626008
79,710.317230311275
80,710.3123289434783
81,710.3093395852527
82,710.3082268675156
83,710.3089474645493
84,710.3114503659045
85,710.3156771813668
86,710.321562478083
87,710.3290341484028
88,710.3380138069981
89,710.3484172164171
90,710.3601547408063
91,710.3731318274348
92,710.3872495148547
93,710.4024049655794
94,710.4184920206029
95,710.435401773
96,710.453023157936
97,710.4712435561801
98,710.4899494072907
99,710.5090268273617
100,710.5283622255222
101,710.547842913813
102,710.5673577060488
103,710.5867975019128
104,710.6060558526216
105,710.6250295045251
106,710.6436189173107
107,710.6617287540171
108,710.679268340538
109,710.6961520923795
110,710.7122999059219
111,710.7276375105648
112,710.7420967776468
113,710.755615982791
114,710.7681400205071
115,710.7796205726382
116,710.7900162345264
117,710.799292604026
118,710.8074223387365
119,710.814385186212
120,710.8201679906166
121,710.8247646774562
122,710.828176215882
123,710.8304105559858
124,710.8314825370422
125,710.8314137622128
126,710.8302324358551
127,710.8279731609003
128,710.8246766953528
129,710.8203896684647
130,710.8151642582826
131,710.8090578329089
132,710.8021325581035
133,710.7944549740936
134,710.7860955448912
135,710.777128184059
136,710.7676297617991
137,710.7576795993418
138,710.7473589574134
139,710.7367505256965
140,710.7259379197687
141,710.7150051912757
142,710.7040363562508
143,710.6931149457339
144,710.6823235822775
145,710.6717435852421
146,710.6614546066172
147,710.6515342975407
148,710.6420580041982
149,710.633098490541
150,710.6247256842483
151,710.6170064417304
152,710.6100043277938
153,710.6037794057542
154,710.5983880341092
155,710.5938826663578
156,710.5903116511836
157,710.5877190311736
158,710.5861443396058
159,710.5856223964745
160,710.5861831065241
161,710.5878512634337
162,710.5906463653778
163,710.5945824478559
164,710.5996679397228
165,710.6059055477493
166,710.6132921743142
167,710.6218188725677
168,710.6314708435456
169,710.6422274796142
170,710.6540624579229
171,710.6669438863408
172,710.6808345029974
173,710.6956919292975
174,710.7114689750276
175,710.7281139923482
176,710.7455712731168
177,710.7637814821064
178,710.7826821180194
179,710.8022079942959
180,710.8222917318253
181,710.8428642557703
182,710.8638552893605
183,710.8851938388245
184,710.9068086653106
185,710.9286287413773
186,710.9505836912333
187,710.9726042149726
188,710.9946224971428
189,711.0165725989277
190,711.0383908315023
191,711.0600161065853
192,711.0813902597506
193,711.1024583428186
194,711.1231688828926
195,711.1434741064093
196,711.1633301268776
197,711.1826970953792
198,711.2015393136256
199,711.2198253099779
200,711.2375278790312
201,711.254624085375
202,711.2710952322983
203,711.2869267964759
204,711.3021083299708
205,711.3166333314143
206,711.3304990890998
207,711.3437064995433
208,711.356259865279
209,711.3681666754152
210,711.3794373724049
211,711.3900851088762
212,711.4001254989382
213,711.4095763687429
214,711.4184575111922
215,711.4267904496695
216,711.4345982155144
217,711.4419051433396
218,711.4487366871211
219,711.4551192585718
220,711.4610800881048
221,711.4666471079314
222,711.4718488563853
223,711.4767144022534
224,711.4812732874793
225,711.4855554857459
226,711.4895913729239
227,711.4934117037302
228,711.4970475880249
229,711.500530460432
230,711.5038920382093
231,711.5071642640032
232,711.510379231842
233,711.5135690962233
234,711.5167659651705
235,711.5200017781752
236,711.5233081687954
237,711.5267163100579
238,711.5302567398628
239,711.5339591639955
240,711.5378522357812
241,711.5419633130296
242,711.5463181940931
243,711.5509408357417
244,711.5558530566644
245,711.5610742319461
246,711.5666209853657
247,711.5725068873892
248,711.5787421673199
249,711.5853334485101
250,711.5922835157678
251,711.5995911236824
252,711.6072508532577
253,711.6152530222033
254,711.6235836520314
255,711.632224493254
256,711.6411531088924
257,711.6503430161407
258,711.6597638855548
259,711.6693817955941
260,711.6791595379033
261,711.6890569668097
262,711.699031386275
263,711.7090379684428
264,711.7190301983908
265,711.7289603387886
266,711.7387799064346
267,711.748440151417
268,711.75789252982
269,711.76708916255
270,711.7759832753945
271,711.7845296179725
272,711.7926848608831
273,711.8004079706675
274,711.8076605614275
275,711.8144072209888
276,711.8206158090554
277,711.8262577248977
278,711.8313081421934
279,711.8357462083864
280,711.8395552057959
281,711.8427226726558
282,711.8452404845355
283,711.8471048993623
284,711.8483165715273
285,711.8488805419537
286,711.8488062113776
287,711.8481073030666
288,711.8468018188858
289,711.8449119897994
290,711.8424642193759
291,711.8394890169649
292,711.8360209159199
293,711.8320983715003
294,711.8277636330296
295,711.8230625857408
296,711.8180445594534
297,711.8127621033885
298,711.807270728484
299,711.8016286203776
300,711.7958963278382
301,711.7901364324402
302,711.7844132050695
303,711.7787922534943
304,711.7733401636812
305,711.7681241364954
306,711.7632116209717
307,711.7586699454961
308,711.7545659491745
309,711.750965617124
310,711.7479337246742
311,711.7455334956687
312,711.743826278938
313,711.742871245053
314,711.7427251035115
315,711.743441839037
316,711.745072464589
317,711.7476647877494
318,711.7512631864371
319,711.7559083895437
320,711.7616372582042
321,711.7684825639948
322,711.7764727612948
323,711.7856317523613
324,711.7959786454345
325,711.8075275083323
326,711.820287121848
327,711.8342607380647
328,711.8494458484072
329,711.8658339656766
330,711.8834104242806
331,711.9021542036071
332,711.922037780782
333,711.9430270202168
334,711.9650811075238
335,711.9881525341933
336,712.0121871372762
337,712.0371241959566
338,712.0628965851014
339,712.0894309849108
340,712.1166481452161
341,712.1444632021391
342,712.1727860437802
343,712.2015217210035
344,712.2305708997098
345,712.2598303518004
346,712.2891934824266
347,712.3185508908941
348,712.347790962373
349,712.3768004877072
350,712.4054653086919
351,712.4336709859917
352,712.4613034867643
353,712.488249889233
354,712.5143991016221
355,712.5396425926369
356,712.5638751298654
357,712.586995520973
358,712.6089073502353
359,712.6295197001687
360,712.6487478457941
361,712.6665139083879
362,712.6827474565487
363,712.6973860444564
364,712.7103756797734
365,712.7216712165778
366,712.7312366717678
367,712.7390454660242
368,712.7450805920653
369,712.74933471327
370,712.7518101949715
371,712.7525190697045
372,712.7514829374626
373,712.7487328028312
374,712.7443088519905
375,712.738260173355
376,712.7306444258113
377,712.7215274581512
378,712.71098288245
379,712.69909160289
380,712.685941300074
381,712.6716258696811
382,712.6562448139142
383,712.639902584953
384,712.6227078815394
385,712.6047729025468
386,712.5862125643445
387,712.5671436913192
388,712.5476841905167
389,712.527952221786
390,712.5080653740545
391,712.4881398566955
392,712.4682897128281
393,712.4486260594479
394,712.4292563579572
395,712.4102837181001
396,712.391806238586
397,712.3739163889254
398,712.3567004389935
399,712.3402379447798
400,712.3246012996703
401,712.3098553598563
402,712.2960571502111
403,712.2832556539931
404,712.271491686885
405,712.2607978535784
406,712.2511985834047
407,712.2427102403826
408,712.235341302191
409,712.2290926015654
410,712.2239576225977
411,712.219922844104
412,712.2169681229212
413,712.2150671111589
414,712.214187702301
415,712.2142925015604
416,712.2153393164668
417,712.2172816644501
418,712.2200692946972
419,712.2236487214427
420,712.2279637650861
421,712.2329560962203
422,712.2385657758366
423,712.244731783158
424,712.2513925216995
425,712.2584862947842
426,712.2659517433578
427,712.2737282406835
428,712.2817562400959
429,712.2899775736684
430,712.2983357015548
431,712.3067759135907
432,712.3152454858149
433,712.3236937946903
434,712.3320723915617
435,712.3403350400525
436,712.348437719678
437,712.3563385993314
438,712.3639979841442
439,712.3713782389777
440,712.3784436920118
441,712.3851605225958
442,712.3914966382677
443,712.3974215462202
444,712.4029062241439
445,712.4079229942813
446,712.4124454033661
447,712.4164481108147
448,712.4199067882138
449,712.4227980339608
450,712.4250993069169
451,712.4267888817412
452,712.4278458266707
453,712.4282500028982
454,712.4279820843368
455,712.427023597479
456,712.4253569822057
457,712.4229656745547
458,712.4198342113073
459,712.4159483546292
460,712.4112952338475
461,712.4058635011068
462,712.3996434979839
463,712.39262743088
464,712.3848095537584
465,712.3761863571063
466,712.3667567617301
467,712.3565223154927
468,712.3454873908205
469,712.3336593807177
470,712.321048890571
471,712.3076699217282
472,712.293540041032
473,712.2786805290498
474,712.2631164992574
475,712.2468769809731
476,712.229994960076
477,712.2125073729405
478,712.1944550500499
479,712.175882606454
480,712.1568382772756
481,712.1373736985129
482,712.1175436360348
483,712.0974056677602
484,712.077019824838
485,712.0564481975275
486,712.035754511089
487,712.0150036767435
488,711.9942613226855
489,711.9735933102851
490,711.9530652411922
491,711.9327419619708
492,711.9126870735791
493,711.892962452838
494,711.8736277919328
495,711.8547401604762
496,711.836353593276
497,711.8185187059661
498,711.8012823400111
499,711.7846872381856
500,711.7687717514319
501,711.7535695778504
502,711.7391095341786
503,711.7254153595917
504,711.7125055515806
505,711.7003932343925
506,711.6890860615695
507,711.6785861545312
508,711.6688900783411
509,711.6599888542362
510,711.6518680072729
511,711.6445076472652
512,711.6378825819468
513,711.6319624621796
514,711.6267119592937
515,711.6220909741655
516,711.6180548769073
517,711.6145547755742
518,711.6115378121767
519,711.6089474842222
520,711.6067239897716
521,711.6048045939046
522,711.603124015079
523,711.6016148310433
524,711.600207904981
525,711.598832832854
526,711.5974184122816
527,711.59589313153
528,711.59418567456
529,711.5922254356084
530,711.5899430355156
531,711.5872708319959
532,711.5841434165782
533,711.5804980915105
534,711.576275320635
535,711.5714191496465
536,711.5658775934722
537,711.5596029910884
538,711.5525523297505
539,711.5446875407883
540,711.5359757684548
541,711.5263896129449
542,711.51590734901
543,711.5045131221328
544,711.492197124373
545,711.4789557514782
546,711.4647917417045
547,711.4497142951413
548,711.4337391703574
549,711.4168887531423
550,711.3991920905077
551,711.380684882451
552,711.361409424494
553,711.3414144954942
554,711.3207551872177
555,711.2994926741494
556,711.2776939236645
557,711.2554313479387
558,711.2327823998087
559,711.2098291153111
560,711.1866576061037
561,711.163357505769
562,711.1400213750464
563,711.1167440718773
564,711.093622092555
565,711.0707528904182
566,711.048234178606
567,711.0261632233957
568,711.0046361343947
569,710.9837471573269
570,710.9635879746332
571,710.944247018962
572,710.9258088049799
573,710.9083532856906
574,710.8919552404708
575,710.8766837031035
576,710.8626014387374
577,710.8497644783316
578,710.8382217176512
579,710.8280145858024
580,710.8191767862888
581,710.8117341118327
582,710.8057043326269
583,710.8010971562787
584,710.7979142566253
585,710.7961493680648
586,710.7957884421762
587,710.7968098638404
588,710.7991847241178
589,710.8028771463004
590,710.8078446600317
591,710.8140386168809
592,710.8214046399705
593,710.8298831004251
594,710.8394096141009
595,710.849915552719
596,710.8613285642058
597,710.8735730982795
598,710.8865709351658
599,710.9002417170107
600,710.9145034825618
601,710.9292732061052
602,710.9444673416464
603,710.9600023727257
604,710.9757953670658
605,710.9917645340953
606,711.0078297829807
607,711.0239132790599
608,711.0399399966389
609,711.0558382651627
610,711.0715403039708
611,711.0869827391498
612,711.10210709501
613,711.1168602523071
614,711.1311948653733
615,711.1450697307241
616,711.1584501001255
617,711.171307931146
618,711.1836220681165
619,711.1953783469158
620,711.2065696183797
621,711.2171956869081
622,711.2272631625035
623,711.2367852261052
624,711.2457813098428
625,711.2542766954689
626,711.2623020355767
627,711.2698928035139
628,711.2770886793877
629,711.2839328812184
630,711.2904714521013
631,711.2967525159082
632,711.3028255151622
633,711.3087404450116
634,711.3145470968796
635,711.3202943244197
636,711.3260293430247
637,711.3317970729022
638,711.3376395351813
639,711.3435953103141
640,711.3496990674024
641,711.3559811717275
642,711.3624673760552
643,711.3691785997504
644,711.3761307984989
645,711.383334926136
646,711.3907969882205
647,711.3985181843242
648,711.4064951327287
649,711.4147201678318
650,711.4231816976903
651,711.4318646073367
652,711.4407506929305
653,711.4498191119656
654,711.4590468350709
655,711.4684090854406
656,711.4778797533127
657,711.4874317758826
658,711.4970374772647
659,711.5066688673757
660,711.5162979016284
661,711.525896704762
662,711.5354377625653
663,711.5448940854249
664,711.5542393477738
665,711.5634480075104
666,711.5724954094829
667,711.5813578776165
668,711.5900128010644
669,711.598438719959
670,711.6066154152574
671,711.6145240053082
672,711.6221470500533
673,711.6294686625033
674,711.6364746258749
675,711.6431525133728
676,711.649491806349
677,711.65548400574
678,711.6611227313279
679,711.666403803692
680,711.671325304903
681,711.6758876157976
682,711.6800934293162
683,711.6839477402938
684,711.6874578123418
685,711.6906331224867
686,711.6934852843815
687,711.6960279511377
688,711.6982766989106
689,711.7002488923423
690,711.7019635332231
691,711.70344109441
692,711.7047033417057
693,711.7057731466941
694,711.70667429366
695,711.7074312839203
696,711.708069140898
697,711.708613218761
698,711.7090890166266
699,711.7095219996327
700,711.7099374276386
701,711.7103601915522
702,711.7108146560798
703,711.711324506425
704,711.7119125957126
705,711.712600790032
706,711.7134098088695
707,711.7143590598529
708,711.7154664676109
709,711.7167482969804
710,711.718218970843
711,711.7198908829051
712,711.7217742061811
713,711.7238766989547
714,711.7262035112661
715,711.7287569961627
716,711.7315365309317
717,711.734538354183
718,711.7377554245164
719,711.7411773053626
720,711.744790078905
721,711.7485762907278
722,711.7525149264842
723,711.756581422141
724,711.7607477094482
725,711.7649822977216
726,711.7692503919139
727,711.7735140459631
728,711.7777323501616
729,711.7818616517503
730,711.7858558084882
731,711.7896664751755
732,711.7932434230939
733,711.7965348921608
734,711.7994879750077
735,711.8020490310967
736,711.804164127747
737,711.8057795040808
738,711.806842053838
739,711.8072998238888
740,711.8071025266903
741,711.8062020659875
742,711.8045530749162
743,711.8021134641043
744,711.7988449749392
745,711.7947137306749
746,711.789690775805
747,711.7837525921904
748,711.7768815793415
749,711.7690664868109
750,711.7603027888098
751,711.7505929939094
752,711.7399468848929
753,711.7283816852226
754,711.7159221496518
755,711.7026005778365
756,711.6884567515457
757,711.6735377979271
758,711.6578979829876
759,711.6415984409228
760,711.6247068461413
761,711.6072970353686
762,711.5894485866986
763,711.5712463610419
764,711.5527800097514
765,711.5341434510923
766,711.5154343182309
767,711.4967533824633
768,711.478203956528
769,711.4598912829567
770,711.4419219112852
771,711.4244030664897
772,711.4074420105031
773,711.3911453992823
774,711.3756186387793
775,711.3609652436578
776,711.3472862029365
777,711.334679357277
778,711.3232387931503
779,711.3130542592465
780,711.3042106104015
781,711.2967872844144
782,711.2908578176028
783,711.28648940551
784,711.283742515328
785,711.2826705559264
786,711.2833196099888
787,711.2857282311288
788,711.2899273073269
789,711.295939990611
790,711.3037816914549
791,711.3134601347482
792,711.3249754723589
793,711.3383204453241
794,711.3534805868744
795,711.3704344564131
796,711.3891538946559
797,711.409604291219
798,711.4317448575414
799,711.4555288999863
800,711.4809040904532
801,711.5078127347242
802,711.5361920414559
803,711.5659743964513
804,711.5970876471825
805,711.629455401533
806,711.6629973428876
807,711.6976295617491
808,711.7332649027909
809,711.7698133260383
810,711.8071822812409
811,711.8452770945827
812,711.8840013662478
813,711.9232573764203
814,711.9629464966583
815,712.0029696035531
816,712.043227491998
817,712.0836212860356
818,712.1240528459712
819,712.164425171034
820,712.204642797043
821,712.2446121881316
822,712.2842421208663
823,712.323444058466
824,712.3621325125209
825,712.400225389499
826,712.437644319043
827,712.4743149602573
828,712.5101672808615
829,712.5451358030191
830,712.5791598098698
831,712.6121835084539
832,712.644156146917
833,712.6750320857233
834,712.7047708239904
835,712.733336983353
836,712.7607002529487
837,712.7868352998506
838,712.8117216493155
839,712.8353435386443
840,712.8576897474031
841,712.8787534055127
842,712.898531779645
843,712.9170260378892
844,712.9342409930334
845,712.9501848257484
846,712.9648687896575
847,712.9783069003845
848,712.9905156106826
849,713.0015134744018
850,713.0113208033366
851,713.0199593221523
852,713.0274518268402
853,713.0338218513981
854,713.0390933461856
855,713.0432903701727
856,713.0464367984587
857,713.04855604611
858,713.0496708093343
859,713.0498028251394
860,713.0489726509943
861,713.0471994665429
862,713.0445008999883
863,713.0408928825586
864,713.0363895357216
865,713.0310030971144
866,713.0247438914781
867,713.0176203514005
868,713.0096390896754
869,713.0008050217384
870,712.9911215339381
871,712.9805906914889
872,712.9692134785162
873,712.9569900613704
874,712.9439200655371
875,712.930002856467
876,712.9152378157759
877,712.8996246062352
878,712.8831634212335
879,712.8658552164314
880,712.8477019230003
881,712.8287066432239
882,712.8088738304
883,712.7882094556202
884,712.7667211636473
885,712.7444184185143
886,712.7213126370928
887,712.6974173066152
888,712.6727480807128
889,712.6473228480711
890,712.6211617680415
891,712.5942872684716
892,712.5667240030622
893,712.5384987687531
894,712.5096403870166
895,712.4801795552738
896,712.4501486754821
897,712.4195816665642
898,712.3885137662751
899,712.3569813267363
900,712.3250216065221
901,712.2926725611298
902,712.2599726331514
903,712.2269605435242
904,712.1936750858766
905,712.1601549271757
906,712.1264384193114
907,712.0925634270587
908,712.058567177312
909,712.0244861327515
910,711.9903558909472
911,711.9562111079274
912,711.9220854436104
913,711.8880115253605
914,711.8540209255241
915,711.8201441491166
916,711.7864106285186
917,711.752848722846
918,711.7194857206641
