acceleration,velocity,displacement
-0.06517734392750922,0.0,0.0
-0.06338482780835351,-3.2140542933965683e-05,-8.03513573349142e-09
-0.061593864473357955,-6.338521600439355e-05,-3.1916575468081233e-08
-0.05980599030606376,-9.373517969924898e-05,-7.119667439399186e-08
-0.058022709224542245,-0.00012319235458190049,-1.2542855796427923e-07
-0.056245477256918544,-0.00015175940120226567,-1.9416649691032078e-07
-0.05447568801772293,-0.00017943969252092604,-2.769662703411187e-07
-0.05271465930324337,-0.00020623727935116762,-3.733855133091421e-07
-0.050963620988177014,-0.0002321568494240227,-4.829840455029397e-07
-0.04922370437124003,-0.000257203680763877,-6.053241780499146e-07
-0.047495933080120914,-0.0002813835901267172,-7.399709957725631e-07
-0.0457812156081278,-0.00030470287729877937,-8.864926126289372e-07
-0.04408033951863053,-0.00032716826608046893,-1.0444603984737494e-06
-0.04239396731534451,-0.0003487868427889627,-1.2134491756911074e-06
-0.040722633931342775,-0.0003695659931006345,-1.3930373846635067e-06
-0.03906674574362542,-0.00038951333801937656,-1.5828072174435096e-06
-0.03742658099149307,-0.0004086366697031562,-1.7823447193741427e-06
-0.03580229147717987,-0.0004269438878203244,-1.991239858755013e-06
-0.03419390544648456,-0.0004444429370512405,-2.2090865649729043e-06
-0.03260133156594191,-0.00046114174630434713,-2.435482735811801e-06
-0.031024363922874394,-0.0004770481701765512,-2.6700302149320255e-06
-0.029462687980750378,-0.0004921699331524574,-2.9123347407642777e-06
-0.027915887431621874,-0.0005065145770055504,-3.1620058683037795e-06
-0.026383451900841202,-0.0005200894118386662,-3.418656865514834e-06
-0.024864785471828275,-0.0005329014711818336,-3.681904586269959e-06
-0.02335921600310427,-0.0005449574715505667,-3.9513693219530586e-06
-0.02186600520014845,-0.0005562637768513799,-4.226674634053545e-06
-0.020384359381716777,-0.0005668263679968462,-4.507447170265602e-06
-0.01891344085230793,-0.0005766508180553524,-4.793316466778652e-06
-0.017452379768172942,-0.0005857422732104726,-5.083914739595108e-06
-0.016000286368477758,-0.0005941054397446353,-5.378876667833886e-06
-0.014556263436880521,-0.0006017445771959748,-5.6778391720690386e-06
-0.01311941886033528,-0.0006086634977702787,-5.980441190810602e-06
-0.011688878157237969,-0.000614865572024672,-6.28632345825934e-06
-0.010263796852183444,-0.0006203537407770274,-6.5951282864597645e-06
-0.008843372577558656,-0.0006251305331344629,-6.906499354937637e-06
-0.007426856782178004,-0.000629198090474397,-7.220081510839852e-06
-0.006013565924205704,-0.000632558196150993,-7.5355205824962e-06
-0.004602892024154199,-0.000635212310638083,-7.852463209193469e-06
-0.0031943124624254824,-0.0006371616117597279,-8.170556689792921e-06
-0.0017873989299478418,-0.0006384070396078212,-8.489448852634808e-06
-0.00038182547513856675,-0.0006389493457090927,-8.808787948964037e-06
0.0010226243743873841,-0.0006387891459842805,-9.128222571887381e-06
0.002426051403879864,-0.0006379269770397137,-9.44740160264338e-06
0.003828435372625039,-0.0006363633553455875,-9.765974185739704e-06
0.005229630471406859,-0.0006340988388845796,-1.0083589734297246e-05
0.006629361492330854,-0.0006311340908936451,-1.0399897966741802e-05
0.008027220639433638,-0.0006274699453607041,-1.071454897580539e-05
0.009422664938217817,-0.0006231074739662913,-1.1027193330637138e-05
0.01081501423735065,-0.0006180480541723992,-1.1337482212671811e-05
0.012203449826712391,-0.0006122934381563834,-1.1645067585754008e-05
0.013587013718444296,-0.0006058458222700943,-1.1949602400860628e-05
0.0149646086512828,-0.0005987079166776625,-1.2250740835597568e-05
0.01633499888603871,-0.0005908830147933321,-1.2548138568465317e-05
0.01769681186536069,-0.0005823750621054822,-1.2841453087690021e-05
0.019048540816638926,-0.0005731887239349824,-1.3130344034200137e-05
0.020388548383859516,-0.0005633294516348578,-1.3414473578092597e-05
0.021715071377738437,-0.0005528035466944583,-1.3693506827674926e-05
0.023026226724470963,-0.000541618222168906,-1.3967112269890767e-05
0.024320018668110593,-0.0005297816608207606,-1.4234962240638184e-05
0.025594347247112546,-0.0005173030693419548,-1.4496733423178863e-05
0.026847018031644423,-0.0005041927280222656,-1.4752107372519918e-05
0.028075753077774313,-0.0004904620352449109,-1.5000771063336712e-05
0.029278203025691927,-0.0004761235462190444,-1.5242417458702701e-05
0.030451960242522183,-0.0004611910054019909,-1.547674609660796e-05
0.03159457289031801,-0.0004456793721187808,-1.5703463690988152e-05
0.03270355978853202,-0.0004296048389490683,-1.5922284743755116e-05
0.03377642593700141,-0.00041298484251768493,-1.6132932164121805e-05
0.03481067856715462,-0.0003958380663916459,-1.633513789134914e-05
0.03580384359151971,-0.00037818443585197734,-1.6528643516910046e-05
0.036753482322240974,-0.0003600451043735372,-1.6713200901966423e-05
0.037657208326683136,-0.00034144243171130615,-1.6888572785987635e-05
0.03851270427661632,-0.0003223999535604813,-1.705453338230558e-05
0.039317738621065405,-0.00030294234283606086,-1.7210868956404715e-05
0.040070181876900736,-0.00028309536271156936,-1.735737838279162e-05
0.04076802230252643,-0.00026288581166671255,-1.749387367638619e-05
0.041409380714286625,-0.00024234146091250928,-1.7620180494530997e-05
0.04199252422751003,-0.00022149098467706013,-1.773613860592839e-05
0.04251587874756303,-0.00020036388393329186,-1.7841602323080976e-05
0.042978040086471034,-0.00017899040422478333,-1.7936440895120494e-05
0.04337778362631096,-0.00015740144829658783,-1.8020538858250837e-05
0.043714072492009655,-0.00013562848426700768,-1.8093796341391735e-05
0.04398606423889866,-0.0001137034500842806,-1.815612932497956e-05
0.04419311610145391,-9.165865499919245e-05,-1.8207469851250426e-05
0.044334788877860014,-6.952667875436398e-05,-1.8247766184688814e-05
0.04441084953517583,-4.734026915110501e-05,-1.827698292166518e-05
0.04442127261880114,-2.513223861261077e-05,-1.829510104860611e-05
0.044366240545422195,-2.935360321554933e-06,-1.8302117948339652e-05
0.04424614284989771,1.9217735527275045e-05,-1.8298047354538222e-05
0.04406157444095613,4.129466484998851e-05,-1.8282919254443906e-05
0.04381333290277782,6.3263391685922e-05,-1.8256779740309927e-05
0.04350241486802284,8.509232862862216e-05,-1.821969081023129e-05
0.04313001148864055,0.000106750435217788,-1.817173011926969e-05
0.04269750304705726,0.00012820731385171244,-1.8112990682002313e-05
0.042206452781804994,0.000149433302808928,-1.8043580527837153e-05
0.04165860003812607,0.00017039956601391077,-1.7963622310631443e-05
0.04105585287916621,0.00019107817924323382,-1.787325287431716e-05
0.040400280297768244,0.00021144221253746744,-1.777262277637198e-05
0.03969410415426262,0.00023146580865047515,-1.7661895771074997e-05
0.03893969093765295,0.00025112425742345406,-1.7541248254556517e-05
0.038139543408833104,0.0002703940660100756,-1.7410868673698133e-05
0.03729629214094704,0.0002892530248975206,-1.7270956900971234e-05
0.03641268693607128,0.0003076802696667752,-1.712172357733016e-05
0.03549158807904213,0.00032565633842055353,-1.696338942530833e-05
0.034535957385453814,0.0003431632247866775,-1.679618453450652e-05
0.03354884899949531,0.0003601844263829148,-1.6620347621714122e-05
0.032533399891109864,0.0003767049886055661,-1.6436125267967003e-05
0.03149281999536536,0.0003927115435771849,-1.6243771134921316e-05
0.030430381940835735,0.00040819234406123516,-1.604354516301171e-05
0.02934941033157937,0.0004231372921293389,-1.5835712753964068e-05
0.02825327057138454,0.0004375379623550799,-1.5620543940342962e-05
0.02714535723904101,0.0004513876193076863,-1.539831254492727e-05
0.02602908203358002,0.00046468122912584156,-1.5169295332818888e-05
0.024907861310545044,0.00047741546496187285,-1.493377115929696e-05
0.023785103233120847,0.0004895887060977893,-1.4692020116532044e-05
0.022664194573326177,0.0005012010305494011,-1.4444322682370247e-05
0.021548487217267938,0.0005122542009970496,-1.4190958874483635e-05
0.020441284446477893,0.0005227516439129861,-1.3932207413256126e-05
0.019345827079509596,0.000532698421794483,-1.3668344896829258e-05
0.018265279566001307,0.0005421011984558607,-1.3399644991766673e-05
0.01720271613591702,0.0005509681973813403,-1.3126377642807373e-05
0.016161107128651393,0.0005593091531974824,-1.2848808305162667e-05
0.015143305664876037,0.0005671352563958643,-1.256719720276433e-05
0.014152034869611573,0.0005744590915294862,-1.2281798615782993e-05
0.013189875887575638,0.000581294569218783,-1.1992860200595925e-05
0.012259256936779043,0.0005876568524248717,-1.1700622345185011e-05
0.011362443625842177,0.0005935622775655269,-1.1405317562687411e-05
0.010501530728406113,0.000599028271154089,-1.1107169925507507e-05
0.009678435575174523,0.0006040732627299841,-1.0806394542036489e-05
0.00889489318971676,0.000608716594921207,-1.0503197077623691e-05
0.008152453248264361,0.0006129784315307023,-1.0197773321010713e-05
0.007452478881140237,0.0006168796645630534,-9.890308796987274e-06
0.006796147264753572,0.0006204418210995269,-9.580978425571628e-06
0.006184451899175207,0.0006236869708905091,-9.269946227574119e-06
0.0056182064393938014,0.0006266376354751513,-8.957365075982704e-06
0.005098049942048518,0.0006293166995705119,-8.643376492221288e-06
0.004624453387877768,0.0006317473254029934,-8.328110485977911e-06
0.004197727333952828,0.000633952870583451,-8.0116854369813e-06
0.0038180305392315527,0.0006359568100517472,-7.6942080168225e-06
0.0034853793960531797,0.0006377826625355683,-7.375773148675671e-06
0.0031996579907081564,0.0006394539218822587,-7.056464002571214e-06
0.0029606286091828464,0.0006409939935322314,-6.736352023717592e-06
0.0027679425033140708,0.0006424261363103557,-6.4154969912569445e-06
0.002621150741159601,0.000643773409621474,-6.093947104773987e-06
0.002519714980459138,0.0006450586260518787,-5.771739095855649e-06
0.0024630180172985523,0.0006463043093013182,-5.44889836201735e-06
0.0024503739691130754,0.0006475326572979211,-5.12543912036754e-06
0.002481037958114757,0.000648765510279728,-4.8013645784731275e-06
0.0025542151776168144,0.0006500243235636609,-4.47666712001228e-06
0.0026690692485936115,0.0006513301446702135,-4.151328502953811e-06
0.002824729795183157,0.0006527035944311578,-3.825320068178469e-06
0.0030202991746007078,0.0006541648516736038,-3.4986029566522785e-06
0.0032548582900333977,0.0006557336410397623,-3.171128333473937e-06
0.0035274714070036425,0.0006574292234640215,-2.8428376173479913e-06
0.0038371898973590317,0.0006592703887901122,-2.5136627142844576e-06
0.004183054852305009,0.0006612754499775282,-2.1835262545925475e-06
0.004564098527815968,0.0006634622383225585,-1.8523418325175259e-06
0.004979344605890887,0.0006658480991059852,-1.52001424816039e-06
0.005427807277905493,0.0006684498870769343,-1.1864397516146601e-06
0.005908489188808771,0.0006712839611936128,-8.515062895470233e-07
0.0064203783206566506,0.0006743661780709792,-5.150937547308752e-07
0.0069624439321468905,0.0006777118836341802,-1.7707423930458543e-07
0.00753363170315104,0.0006813359025430047,1.6268770723971083e-07
0.008132858261018719,0.0006852525250340471,5.043348141339738e-07
0.008759005285972617,0.000689475490920795,8.480168181226842e-07
0.009410913400072435,0.0006940179705923062,1.1938901835009596e-06
0.010087376037234965,0.000698892542951633,1.5421178118869444e-06
0.01078713347563642,0.0007041111703298508,1.8928687402073154e-06
0.01150886719332933,0.0007096851704970923,2.246317825414051e-06
0.012251194685754576,0.0007156251859668632,2.60264541453004e-06
0.013012664862561184,0.0007219411508539422,2.962036998735241e-06
0.013791754122248957,0.0007286422556001447,3.324682850348763e-06
0.014586863186912939,0.0007357369099274352,3.690777641730658e-06
0.015396314765020312,0.0007432327044154185,4.060520045316371e-06
0.016218352098227758,0.0007511363711312305,4.434112314203033e-06
0.017051138441765982,0.0007594537437662289,4.811759842927398e-06
0.017892757526387387,0.0007681897177582673,5.1936707083085216e-06
0.018741215046765205,0.0007773482109015554,5.5800551904734775e-06
0.019594441211417152,0.000786932124966101,5.971125274440391e-06
0.02045029437341294,0.0007969433088623085,6.367094132897494e-06
0.021306565740905076,0.000807382523890888,6.768175591085793e-06
0.022160985142269607,0.0008182494116116816,7.1745835749614356e-06
0.023011227796667866,0.000829542464846416,7.5865315440759596e-06
0.023854922024666252,0.0008412590023017495,8.004231910863e-06
0.024689657827437813,0.0008533951472647755,8.427895448254632e-06
0.025512996260179884,0.00086594581078668,8.857730687767496e-06
0.026322479516637284,0.0008789046797308843,9.293943310396887e-06
0.027115641625531157,0.0008922642100164265,9.736735532833714e-06
0.027890019643581673,0.0009060156253337047,1.0186305491671246e-05
0.028643165220904116,0.0009201489215498261,1.0642846628392129e-05
0.029372656412123867,0.0009346528769580831,1.1106547078019107e-05
0.030076109607750513,0.0009495150684630517,1.1577589064374391e-05
0.030751191466802347,0.0009647218937316899,1.2056148304923077e-05
0.03139563074679671,0.0009802585992850896,1.2542393428177272e-05
0.03200722994774401,0.0009961093144587247,1.3036485406613225e-05
0.0325838767042314,0.0010122570911217186,1.3538577008008336e-05
0.03312355486974094,0.0010286839490152118,1.4048812268042568e-05
0.03362435524333158,0.0010453709265434799,1.4567325986932241e-05
0.0340844858929125,0.0010622981368275408,1.5094243252774997e-05
0.034502282026519414,0.0010794448288073987,1.5629678994183733e-05
0.03487621534908208,0.0010967894531512992,1.6173737564673408e-05
0.035204902820396976,0.001114309732693669,1.672651236113465e-05
0.03548711470695623,0.0011319827370755073,1.7288085478576946e-05
0.035721781802109144,0.0011497849612027737,1.7858527403146516e-05
0.03590800168206742,0.001167692407073818,1.8437896745215664e-05
0.0360450438761695,0.0011856806684633773,1.902624001409996e-05
0.03613235385665948,0.0012037250178965845,1.962359143568995e-05
0.0361695557850101,0.001221800495307002,2.0229972813990847e-05
0.03615645398093195,0.0012398819977484873,2.084539343725472e-05
0.036093033108893925,0.0012579443695209438,2.1469850029072077e-05
0.03597945710479234,0.0012759624920743653,2.2103326744470905e-05
0.03581606688435524,0.0012939113730716521,2.2745795210757408e-05
0.035603376883880516,0.001311766234013711,2.3397214612528747e-05
0.03534207049454992,0.0013295025958583186,2.4057531819996756e-05
0.0350329944710563,0.00134709636209972,2.4726681559486264e-05
0.03467715241834885,0.0013645238988220713,2.540458662471671e-05
0.03427569747715044,0.0013817621112959461,2.6091158127246216e-05
0.03382992433373092,0.0013987885167486664,2.6786295784257368e-05
0.033341260673900704,0.0014155813130005744,2.7489888241694678e-05
0.032811258192135234,0.0014321194427170834,2.8201813430624094e-05
0.03224158325749299,0.0014483826530794905,2.892193895457324e-05
0.03163400732574666,0.0014643515507253005,2.9650122505524438e-05
0.030990397172757627,0.0014800076518499264,3.0386212306168245e-05
0.03031270501561608,0.0014953334273970199,3.113004757597998e-05
0.02960295858868097,0.0015103123432980941,3.1881459018653764e-05
0.028863251243525605,0.0015249288957561457,3.264026932841732e-05
0.028095732136915644,0.0015391686416012561,3.340629371275667e-05
0.0273025965609496,0.0015530182237757223,3.417934042910092e-05
0.02648607646031068,0.0015664653920310374,3.495921133305261e-05
0.025648431176542152,0.0015794990189402507,3.5745702435795434e-05
0.024791938455827493,0.001592109111348343,3.653860446836758e-05
0.023918885747360216,0.00160428681739914,3.733770345055445e-05
0.023031561800092484,0.0016160244292860032,3.814278126222574e-05
0.02213224854514033,0.0016273153818723114,3.895361621501532e-05
0.021223213243590725,0.001638154247319494,3.976998362231327e-05
0.020306700886634742,0.0016485367258520505,4.059165636560616e-05
0.019384926842870725,0.0016584596327844268,4.141840545526528e-05
0.018460069744408576,0.0016679208819312466,4.22500005839442e-05
0.01753426459511392,0.0016769194655161272,4.308621067080604e-05
0.01660959608851206,0.0016854554306870338,4.3926804394856835e-05
0.01568809214542021,0.0016935298527455168,4.477155071571497e-05
0.014771717710269283,0.0017011448052094392,4.562021938020371e-05
0.013862368867763545,0.0017083033268539473,4.6472581413219556e-05
0.012961867357466279,0.0017150093859102547,4.7328409591410605e-05
0.012071955576258434,0.0017212678416436858,4.818747889829909e-05
0.01119429216508752,0.0017270844035790222,4.9049566959604763e-05
0.010330448273534553,0.0017324655886886778,4.991445445767169e-05
0.009481904583206966,0.001737418676902863,5.0781925524069575e-05
0.008650049150968678,0.0017419516653364071,5.165176810962939e-05
0.007836176107392678,0.0017460732216509974,5.2523774331376246e-05
0.007041485216774075,0.001749792636982039,5.3397740796034504e-05
0.006267082273985663,0.0017531197788547288,5.4273468899993696e-05
0.005513980281129419,0.0017560650444935076,5.5150765105830754e-05
0.004783101315538952,0.0017586393148926746,5.60294411956773e-05
0.004075278977795378,0.0017608539099660083,5.690931450189197e-05
0.0033912613021257155,0.0017627205450359885,5.779020811564247e-05
0.0027317140215464795,0.0017642512888669066,5.867195107411819e-05
0.002097224097036093,0.0017654585233965524,5.955437852718406e-05
0.0014883034354337714,0.0017663549052796697,6.0437331884353114e-05
0.000905392732855557,0.0017669533293217421,6.132065894300346e-05
0.00034886538854967455,0.0017672668938520934,6.220421399879692e-05
-0.00018096856618446343,0.0017673088680576847,6.308785793927437e-05
-0.0006838585893653408,0.0017670926612687974,6.397145832160598e-05
-0.0011596098765694906,0.0017666317941523136,6.485488943546126e-05
-0.0016080798117368775,0.001765939871730237,6.57380323519319e-05
-0.0020291746779098497,0.0017650305581078253,6.662077495939141e-05
-0.0024228466558937536,0.0017639175527743743,6.750301198711197e-05
-0.0027890911103422415,0.0017626145683328153,6.838464501738876e-05
-0.003127944143832817,0.0017611353095192716,6.926558248685178e-05
-0.00343948039267119,0.0017594934533851456,7.014573967757788e-05
-0.003723811039520119,0.0017577026305270979,7.102503869855595e-05
-0.003981082019802499,0.0017557764072622672,7.19034084580033e-05
-0.00421147239660644,0.001753728268658165,7.27807846269834e-05
-0.0044151928761217395,0.001751571602339983,7.365710959473294e-05
-0.004592484438485241,0.0017493196830113311,7.453233241607077e-05
-0.004743617068713355,0.0017469856576345314,7.540640875123223e-05
-0.004868888586485703,0.0017445825312207316,7.627930079844605e-05
-0.004968623588139172,0.0017421231531770753,7.715097721954551e-05
-0.005043172525633345,0.0017396202041486321,7.802141305887694e-05
-0.00509291095130368,0.0017370861832793978,7.889058965573395e-05
-0.005118238949649562,0.0017345333958041595,7.975849455050484e-05
-0.005119580757592395,0.001731973940877349,8.062512138467521e-05
-0.005097384546897697,0.0017294196995512265,8.149046979478236e-05
-0.0050521223126480195,0.00172688232283634,8.235454530037925e-05
-0.004984289786836826,0.001724373219811469,8.321735918604121e-05
-0.004894406285814196,0.001721903545793306,8.40789283774424e-05
-0.0047830144080628955,0.0017194841906198368,8.493927531154569e-05
-0.004650679515524291,0.00171712576713894,8.579842780098539e-05
-0.004497988945207356,0.001714838600023757,8.665641889277606e-05
-0.004325550907288363,0.001712632715060633,8.751328672154715e-05
-0.004133993041386632,0.0017105178290734643,8.836907435758067e-05
-0.003923960631091186,0.001708503340655345,8.922382965001287e-05
-0.0036961145119006615,0.001706598321869597,9.007760506564411e-05
-0.0034511287381018005,0.0017048115110570965,9.093045752387579e-05
-0.003189688093796449,0.0017031513068491218,9.178244822835234e-05
-0.0029124855427341604,0.0017016257634399892,9.263364249592462e-05
-0.002620219713829585,0.0017002425871258482,9.348410958356607e-05
-0.002313592517009012,0.0016990091340681386,9.433392251386457e-05
-0.001993306979078269,0.0016979324091941168,9.518315789968013e-05
-0.0016600653818543624,0.0016970190661038836,9.603189576850464e-05
-0.0013145677758227402,0.0016962754078144642,9.688021938698423e-05
-0.0009575109336986742,0.0016957073881370837,9.772821508597211e-05
