frame_number,force
0,621.2915700000353
1,621.3565635588789
2,621.4183540076465
3,621.4740437360075
4,621.5213125975172
5,621.5586291522125
6,621.58537500804
7,621.6018492200196
8,621.6091209689687
9,621.6087251798689
10,621.6022444556086
11,621.5908698428753
12,621.5750582115463
13,621.554390548116
14,621.5276833372493
15,621.4933330440861
16,621.4498117047632
17,621.3962026355932
18,621.3326700531582
19,621.2607780030778
20,621.1835988445416
21,621.1055828434036
22,621.0322030566751
23,620.9694296150252
24,620.9231033870194
25,620.8982691893109
26,620.8985127164625
27,620.9253448320682
28,620.977698317288
29,621.0516297897098
30,621.1403270296091
31,621.2344924870813
32,621.3231071374793
33,621.3944953918192
34,621.437548502776
35,621.4429450130298
36,621.4042211378498
37,621.3185683124499
38,621.1872637363191
39,621.0156777750557
40,620.81285083648
41,620.5906879233319
42,620.3628703464012
43,620.1436167928659
44,619.946433661684
45,619.7829775597069
46,619.6621156610885
47,619.5892290016639
48,619.5657856758945
49,619.5892259828113
50,619.6532217404936
51,619.7483472830759
52,619.8631148199402
53,619.9852263809571
54,620.1028379168938
55,620.2056415479402
56,620.2856341819931
57,620.3375239407844
58,620.3588003070071
59,620.3495395764312
60,620.3120288450141
61,620.2502789069976
62,620.1694751542616
63,620.0753990341311
64,619.9738489627172
65,619.8701003459419
66,619.7684590109455
67,619.6719637845154
68,619.5822769314424
69,619.4997751508836
70,619.4238249321143
71,619.3531924840609
72,619.2865061343583
73,619.2226750066943
74,619.1611812371104
75,619.1021951653039
76,619.0465019609549
77,618.9952717460942
78,618.9497489688595
79,618.9109632423148
80,618.8795549832762
81,618.8557636801189
82,618.8395642444838
83,618.8308866874426
84,618.8298339385346
85,618.8368191895279
86,618.8525680873811
87,618.8779692082051
88,618.9138042464227
89,618.9604321554842
90,619.0175207666472
91,619.0839061064436
92,619.1576169062785
93,619.2360454200485
94,619.3162014709123
95,619.3949748095049
96,619.4693509405338
97,619.5365625073448
98,619.5941951595997
99,619.6402866136812
100,619.6734482256275
101,619.6930062438425
102,619.699129553673
103,619.6929037469873
104,619.6763284962587
105,619.6522399130839
106,619.6241761392097
107,619.5962082974143
108,619.5727514709024
109,619.5583570043249
110,619.5574795220058
111,619.5742162100722
112,619.612025200179
113,619.6734350032998
114,619.7597594528902
115,619.8708406880215
116,620.0048569136453
117,620.1582423772081
118,620.3257651795598
119,620.5007937461619
120,620.6757614228288
121,620.8428140114374
122,620.994590236104
123,621.1250374998559
124,621.2301249425657
125,621.3083114811934
126,621.3606669927633
127,621.3906159685214
128,621.40335149018
129,621.4050304430602
130,621.4018947117215
131,621.3994661141829
132,621.4019386142229
133,621.4118435160353
134,621.429999350036
135,621.4556940917489
136,621.487004576057
137,621.5211524607286
138,621.554827965552
139,621.584463331598
140,621.6064802122205
141,621.6175491983563
142,621.6148823673698
143,621.5965440995832
144,621.5617329274621
145,621.5109764153269
146,621.4461970384818
147,621.3706367556466
148,621.2886500086634
149,621.2053812844016
150,621.1263461268356
151,621.0569465132149
152,621.0019730330675
153,620.9651664909198
154,620.9489115264431
155,620.9541025520195
156,620.9801737247618
157,621.025252791841
158,621.0863969673059
159,621.1598811916563
160,621.2415147463689
161,621.3269592888619
162,621.412021445071
163,621.4929038996913
164,621.5664160826101
165,621.6301534477738
166,621.6826391801286
167,621.7233949246748
168,621.7528997440776
169,621.772422180606
170,621.7837475185534
171,621.7888470632639
172,621.7895458406089
173,621.7872454945826
174,621.7827486408528
175,621.7762045727154
176,621.7671621566709
177,621.7546957827774
178,621.7375727458109
179,621.7144372163791
180,621.6839804907306
181,621.6450600911809
182,621.5967429166902
183,621.5382814210872
184,621.4690653065585
185,621.388602268185
186,621.2965642032927
187,621.1929037110094
188,621.0780206851931
189,620.9529461169647
190,620.8194988287208
191,620.6803596337205
192,620.5390136264572
193,620.3995428816957
194,620.2662900939104
195,620.1434363858311
196,620.0345436466512
197,619.9421169492666
198,619.8672517095231
199,619.8094367317242
200,619.7665755206369
201,619.7352543897175
202,619.7112305918238
203,619.6900553594913
204,619.667706964372
205,619.6411034092529
206,619.6083986179638
207,619.569027343112
208,619.5235256760952
209,619.4731978573567
210,619.4197246557529
211,619.3648110384671
212,619.309941998535
213,619.256262140573
214,619.2045478537653
215,619.1552270893918
216,619.1084160042327
217,619.063961009955
218,619.0214880747906
219,618.980469994058
220,618.9403236916154
221,618.9005398152427
222,618.8608334831775
223,618.8212972136728
224,618.7825314782676
225,618.7457167467873
226,618.7125796127602
227,618.6852141163032
228,618.6657564023005
229,618.6559627237864
230,618.6567836968733
231,618.6680410767908
232,618.6882904609461
233,618.7149076238532
234,618.7443866321736
235,618.7727928558824
236,618.7962817585793
237,618.8115904845596
238,618.8164348440007
239,618.8097750482387
240,618.7919289049463
241,618.7645204329914
242,618.7302741447805
243,618.6926968917505
244,618.6557092741477
245,618.6232866932389
246,618.5991558426756
247,618.5865813942926
248,618.5882681167551
249,618.606376730702
250,618.6426060250085
251,618.6982616151387
252,618.7742454723713
253,618.8709556892605
254,618.9881450088864
255,619.1248100745739
256,619.279162665998
257,619.4486929543308
258,619.6303005566061
259,619.8204546878185
260,620.0153489941664
261,620.2110295298944
262,620.4034863624726
263,620.5887113725427
264,620.7627399278292
265,620.9217059211852
266,621.0619425257737
267,621.1801584806027
268,621.2737091998049
269,621.3409513910742
270,621.381622225011
271,621.397143797261
272,621.3907428026173
273,621.3673018090411
274,621.3329182577178
275,621.2942218677821
276,621.2575641889094
277,621.2282277135124
278,621.2097974767206
279,621.2037937035399
280,621.2095970107861
281,621.2246401758756
282,621.244812497778
283,621.26501820024
284,621.2798280972975
285,621.2841502975112
286,621.2738324367572
287,621.2461181443236
288,621.1999177777562
289,621.1358963221722
290,621.0564058116832
291,620.9652884867518
292,620.867561831334
293,620.7689879482848
294,620.6755403300879
295,620.5928051893353
296,620.5253753977482
297,620.4763047635747
298,620.4466919658839
299,620.4354564908541
300,620.4393484064248
301,620.4532036060917
302,620.4704291422654
303,620.4836862655831
304,620.485724128549
305,620.4702913989618
306,620.433014702489
307,620.3721003119391
308,620.28871424742
309,620.1869402904975
310,620.0733021602381
311,619.955940290134
312,619.8436123232393
313,619.7447062855232
314,619.6664160657439
315,619.6141565457365
316,619.5912273002658
317,619.5986979474891
318,619.6354834482913
319,619.6985778937717
320,619.7834047852645
321,619.8842304330316
322,619.99459084745
323,620.1077015391413
324,620.2168400985341
325,620.3157029157787
326,620.3987425799521
327,620.461497361185
328,620.5009236791817
329,620.5157243868637
330,620.5066301174858
331,620.4765565179034
332,620.4305501556471
333,620.3754637866904
334,620.3193624813126
335,620.2707296375829
336,620.2375852658822
337,620.2266374770242
338,620.2425745305159
339,620.2875844155606
340,620.361163201967
341,620.4602352156331
342,620.5795585722334
343,620.7123437699688
344,620.8509865254506
345,620.9878103996789
346,621.1157222902391
347,621.2287029425465
348,621.3220899030414
349,621.3926583595385
350,621.4385487965661
351,621.4591102064585
352,621.4547210990787
353,621.4266334961557
354,621.3768699528252
355,621.3081860281612
356,621.2240853546544
357,621.1288509023406
358,621.0275462803456
359,620.925944461494
360,620.8303518662607
361,620.7473124109006
362,620.6831990956283
363,620.6437259981566
364,620.6334353881223
365,620.6552257502962
366,620.7099819698196
367,620.7963547507395
368,620.9107227287246
369,621.0473591401126
370,621.198809984236
371,621.356467935801
372,621.5112950086215
373,621.6546118048034
374,621.7788409146768
375,621.8780786825441
376,621.9483896748336
377,621.9877795427064
378,621.9958856018104
379,621.973496396759
380,621.9220497798299
381,621.8432575729037
382,621.7389634835721
383,621.6112648876436
384,621.4628352906718
385,621.2973046940662
386,621.1195278109167
387,620.9356125777089
388,620.7526716987414
389,620.578351516654
390,620.4202443815797
391,620.2852882690626
392,620.1792205487744
393,620.1061215053794
394,620.068079992827
395,620.0650215445203
396,620.0947272509329
397,620.153035936749
398,620.2341886717372
399,620.3312656711952
400,620.4366782145855
401,620.5426924227634
402,620.6419607004374
403,620.7280214806889
404,620.7957141618779
405,620.8414562902128
406,620.8633462589494
407,620.8610834443612
408,620.8357328154893
409,620.7893974949022
410,620.7248918583132
411,620.6455070421614
412,620.5549096116491
413,620.4571299761822
414,620.3565343647507
415,620.2576778509836
416,620.1650040562382
417,620.0824451471177
418,620.0130315943242
419,619.9586222062519
420,619.9198233959469
421,619.8961051593609
422,619.8860600186946
423,619.8877143924307
424,619.8988066097603
425,619.9169802035779
426,619.939877213749
427,619.9651427775871
428,619.9903744569534
429,620.0130672351534
430,620.0306109347523
431,620.0403849807848
432,620.0399593490731
433,620.0273547175442
434,620.0012717979381
435,619.9612082923602
436,619.907443235445
437,619.8409403474803
438,619.7632553060504
439,619.6765087003447
440,619.5834278971246
441,619.4874050723108
442,619.3924944743572
443,619.3032885705196
444,619.2246581370116
445,619.1613896961674
446,619.1177814368418
447,619.0972607600821
448,619.1020742212309
449,619.1330836014837
450,619.1896801008468
451,619.2698051819233
452,619.3700557212212
453,619.485861021126
454,619.6117352894639
455,619.7416122789169
456,619.8692593939811
457,619.9887551670759
458,620.0949953197998
459,620.1841697918064
460,620.2541399813814
461,620.3046512444226
462,620.3373340854962
463,620.3554726803334
464,620.3635534215767
465,620.3666439421255
466,620.369684886066
467,620.376803255187
468,620.3907741977706
469,620.4127467870064
470,620.4422964804587
471,620.4777901912634
472,620.5169773910283
473,620.5576697100065
474,620.5983503571318
475,620.6385687916236
476,620.6790277736031
477,620.7213521448208
478,620.7676169451844
479,620.8197730466219
480,620.879122678277
481,620.9459700404768
482,621.019519368762
483,621.0980309139035
484,621.1791874068334
485,621.2605752236043
486,621.3401528571791
487,621.4165813898403
488,621.4893363844656
489,621.55859108024
490,621.6249266952007
491,621.6889650165283
492,621.7510234216528
493,621.8108662549132
494,621.8675843120606
495,621.9196013839828
496,621.9647993473525
497,622.0007589184597
498,622.0251072636861
499,622.0359376641458
500,622.0322291661943
501,622.0141637412578
502,621.9832406506255
503,621.942136726962
504,621.894338578089
505,621.843639836205
506,621.7936234252713
507,621.7472280884195
508,621.7064507403326
509,621.6721968162259
510,621.6442746452203
511,621.6215224456536
512,621.602045574912
513,621.5835327067574
514,621.5636143297211
515,621.5402157438418
516,621.5118419957653
517,621.4777348227842
518,621.4378750774873
519,621.3928549522988
520,621.3436817027086
521,621.2915755335947
522,621.2377949316476
523,621.1834938348616
524,621.1296126562875
525,621.0768237357679
526,621.0255603163076
527,620.9761364936124
528,620.9289257933266
529,620.8845325131769
530,620.8438774431611
531,620.8081382844751
532,620.7785383581821
533,620.7560411856654
534,620.7410436152506
535,620.733151677451
536,620.7310882849987
537,620.7327393537844
538,620.7353055523301
539,620.7355062171463
540,620.7297959844138
541,620.7145973667452
542,620.6865926355232
543,620.6431197896537
544,620.5826631341756
545,620.505342836882
546,620.4132496505636
547,620.3104865927214
548,620.2028559444162
549,620.0972174410605
550,620.0006099772454
551,619.9192730048677
552,619.8577237916816
553,619.8180342668494
554,619.7994130095366
555,619.7981542724922
556,619.8079746733159
557,619.8207127142466
558,619.827314672896
559,619.8189818042418
560,619.7883205357573
561,619.7303293629079
562,619.643080958269
563,619.5280147068223
564,619.389823909738
565,619.2359757371348
566,619.0759326305861
567,618.9201640703488
568,618.7790562557738
569,618.6618406159679
570,618.5756631883451
571,618.5248987374464
572,618.5107737965346
573,618.5313125899671
574,618.5815766227519
575,618.6541438918589
576,618.7397685739704
577,618.828166073479
578,618.9088649955208
579,618.9720556120973
580,619.009361179958
581,619.0144738029252
582,618.9836174392823
583,618.9158103956138
584,618.8129001950114
585,618.6793528866917
586,618.5218092740388
587,618.3484651044216
588,618.1683688609517
589,617.9907381810358
590,617.8243690528863
591,617.6771668598398
592,617.5557902333486
593,617.4653830447527
594,617.4093761114781
595,617.3893586913692
596,617.4050382870013
597,617.4543130881
598,617.5334677681308
599,617.6374768345163
600,617.7603767788928
601,617.895661053901
602,618.0366609131376
603,618.1768947354484
604,618.3103897784266
605,618.4319905556238
606,618.5376570949128
607,618.6247252019732
608,618.6920656983066
609,618.7400701114287
610,618.7704294981245
611,618.7857477262953
612,618.7890923996649
613,618.7835930068312
614,618.7721457825959
615,618.7572165890895
616,618.7406945910722
617,618.7237649952544
618,618.7068213105177
619,618.6894779042924
620,618.6707329187393
621,618.6492763855007
622,618.6238816404783
623,618.5937956013619
624,618.5590577932974
625,618.5207107197958
626,618.4808936461375
627,618.4428195411867
628,618.4106172407749
629,618.3890021182347
630,618.3827536176553
631,618.3960356817091
632,618.4316696875014
633,618.4905198603008
634,618.5711477511476
635,618.6698271717786
636,618.780910981802
637,618.8974579378479
638,619.0119990288281
639,619.1173420252038
640,619.2073401910719
641,619.2775531026034
642,619.325710689398
643,619.3518917063327
644,619.3583686441831
645,619.349141426416
646,619.3292529834274
647,619.3040280563933
648,619.2783879661409
649,619.2563617791355
650,619.2408501763938
651,619.2336296601089
652,619.2355335720582
653,619.2467247940427
654,619.2669876150168
655,619.2959982935669
656,619.3335558733727
657,619.3797551327863
658,619.435077667667
659,619.5003811403028
660,619.5767798158404
661,619.6654236845524
662,619.7671986613379
663,619.8823937679556
664,620.0104088201653
665,620.149583123015
666,620.2971951095119
667,620.449635401457
668,620.6027219955857
669,620.75210606507
670,620.8936990747255
671,621.024047350858
672,621.1406005238448
673,621.2418505767455
674,621.3273394850661
675,621.3975492940218
676,621.4537077219335
677,621.4975545061156
678,621.5311078895728
679,621.5564599051717
680,621.5756285174895
681,621.5904932159024
682,621.6028183949896
683,621.6143296502044
684,621.6267773319878
685,621.6419169002768
686,621.6613562353672
687,621.6862647189758
688,621.7170052113755
689,621.7528113190828
690,621.7916473285118
691,621.830342770802
692,621.8650118640644
693,621.891684876376
694,621.907016096989
695,621.9089039551928
696,621.8968757821935
697,621.8721545379058
698,621.8374108630853
699,621.7962743185268
700,621.7527164269009
701,621.7104270342508
702,621.672289491583
703,621.6400291287501
704,621.6140772724052
705,621.5936620630155
706,621.5770982279149
707,621.562203742067
708,621.546744507406
709,621.5288119172714
710,621.507060928714
711,621.4807677263008
712,621.4497098090111
713,621.4139208619691
714,621.3734050103002
715,621.3278971113342
716,621.2767376731096
717,621.2189077360052
718,621.1532416652683
719,621.0787976416397
720,620.9953211379297
721,620.9037004420052
722,620.8062957143771
723,620.707029918395
724,620.6111670196572
725,620.5247693240258
726,620.453906395228
727,620.4037555271381
728,620.3777651216694
729,620.3770441441362
730,620.4001036774707
731,620.4430176840011
732,620.4999921666189
733,620.5642450262324
734,620.629025681523
735,620.6885731218779
736,620.7388403515813
737,620.7778879645032
738,620.8059336396591
739,620.8251093790208
740,620.8390173438875
741,620.852189922254
742,620.8695481560447
743,620.8959170809566
744,620.9356154538729
745,620.9921142163581
746,621.0677589357339
747,621.163562749065
748,621.2790804620347
749,621.4123659415765
750,621.5600047338168
751,621.7172161967517
752,621.8780349466338
753,622.0355967667276
754,622.18255349858
755,622.3116147364531
756,622.4161652312021
757,622.4908592452306
758,622.5320768858755
759,622.538155825258
760,622.509372210169
761,622.4477110492682
762,622.3565162430993
763,622.2401276269168
764,622.1035854580429
765,621.9524188344126
766,621.7924720331047
767,621.629706554494
768,621.469954118084
769,621.318648929767
770,621.1805917338089
771,621.0597826881951
772,620.9593284724123
773,620.881408070678
774,620.827276322062
775,620.7972852968861
776,620.7909105057148
777,620.8067884338118
778,620.8427956683859
779,620.8962042719393
780,620.9639206523252
781,621.0427743998738
782,621.1298007256647
783,621.2224656823036
784,621.3188039224985
785,621.4174585833271
786,621.5176256263139
787,621.618913974833
788,621.7211434477227
789,621.8241127295169
790,621.9273762496317
791,622.0300742161833
792,622.1308591563449
793,622.2279424404732
794,622.3192504322387
795,622.4026578003628
796,622.476269519745
797,622.538739415592
798,622.5896183947208
799,622.6297081224284
800,622.6613611046907
801,622.6886367746224
802,622.7172195738344
803,622.7540358709334
804,622.806563413913
805,622.8819048011561
806,622.9857826725402
807,623.1216703079906
808,623.2902591646356
809,623.4893869452004
810,623.7144392967679
811,623.9591274832455
812,624.2164612281442
813,624.4797085590617
814,624.7431722579099
815,625.0026877502064
816,625.2558151491271
817,625.501738234796
818,625.740908956476
819,625.9745046841902
820,626.2037948974355
821,626.429531725926
822,626.6514764208247
823,626.8681507371659
824,627.0768625976175
825,627.2740044988451
826,627.4555668174588
827,627.6177602122029
828,627.7576230353021
829,627.8735097610095
830,627.9653955097824
831,628.0349607163104
832,628.0854327753109
833,628.1211791441507
834,628.1470890330589
835,628.1678426517126
836,628.1872172976597
837,628.2075839845451
838,628.2296953369629
839,628.2527791975216
840,628.2748754190505
841,628.2933144531551
842,628.3052337503403
843,628.3080398379124
844,628.2997367396202
845,628.2790672342254
846,628.2454679794804
847,628.1989048996555
848,628.1396877776065
849,628.0683423283499
850,627.9855664848294
851,627.8922486593591
852,627.7894966973264
853,627.6786215105491
854,627.5610359559824
855,627.4380587411541
856,627.3106496979904
857,627.1791433408135
858,627.0430752822225
859,626.9011860281241
860,626.7516364638656
861,626.5924073203935
862,626.4218118298126
863,626.2390337466695
864,626.0446010557725
865,625.8407107317842
866,625.6313312740368
867,625.4220286190873
868,625.2194933237092
869,625.0308001656023
870,624.8624962163791
871,624.7196640320403
872,624.6051253179274
873,624.5189355108258
874,624.4582716144611
875,624.4177399027375
876,624.3900488196929
877,624.3669277477848
878,624.3401272351803
879,624.3023140673109
880,624.2476990241584
881,624.1723195529817
882,624.0740081889185
883,623.9521488294544
884,623.8073304408172
885,623.6409785863494
886,623.4550185058721
887,623.2516099234675
888,623.0329804911961
889,622.8013634604614
890,622.5590229139232
891,622.3083372090725
892,622.0519081001152
893,621.7926619251361
894,621.5339085615235
895,621.2793287096744
896,621.0328734248453
897,620.798578475775
898,620.5803142552097
899,620.3815058304225
900,620.2048636069825
901,620.0521578832065
902,619.9240544088174
903,619.820016922692
904,619.7382808575308
905,619.6759018576121
906,619.6288795054777
907,619.5923529932023
908,619.560864469073
909,619.528690786433
910,619.490249227021
911,619.4405669922506
912,619.375759411913
913,619.2934169053055
914,619.1927985846224
915,619.0747809253209
916,618.9415817571464
917,618.7963337941516
