frame_number,force
0,779.5775100124025
1,779.533709706613
2,779.4900092191393
3,779.4465079792628
4,779.403304640894
5,779.3604967000832
6,779.3181801161554
7,779.2764489368486
8,779.2353949297363
9,779.1951072241537
10,779.1556719692129
11,779.1171720141481
12,779.0796866169914
13,779.0432911864945
14,779.0080570609296
15,778.9740513265792
16,778.941336678376
17,778.9099713247268
18,778.8800089374303
19,778.851498645611
20,778.824485070236
21,778.7990083938316
22,778.7751044588867
23,778.752804887982
24,778.7321372186892
25,778.7131250468777
26,778.6957881734901
27,778.6801427518201
28,778.6662014339513
29,778.6539735154699
30,778.6434650767684
31,778.6346791176288
32,778.6276156800038
33,778.6222719529238
34,778.618642354051
35,778.6167185845679
36,778.6164896567939
37,778.6179418957757
38,778.6210589166308
39,778.6258215793749
40,778.6322079235171
41,778.6401930863739
42,778.6497492114181
43,778.6608453547269
44,778.673447397681
45,778.6875179727505
46,778.7030164077034
47,778.7198986926995
48,778.7381174745097
49,778.7576220824016
50,778.7783585908116
51,778.8002699240951
52,778.823296007684
53,778.8473739681715
54,778.8724383831188
55,778.8984215800361
56,778.9252539821555
57,778.9528644955977
58,778.9811809288697
59,779.0101304325366
60,779.0396399454456
61,779.0696366343996
62,779.1000483162941
63,779.130803854412
64,779.1618335228458
65,779.1930693346372
66,779.2244453304285
67,779.2558978253677
68,779.2873656125531
69,779.3187901214674
70,779.3501155302416
71,779.3812888317178
72,779.4122598548782
73,779.4429812446173
74,779.4734084037761
75,779.5034994019315
76,779.5332148557862
77,779.5625177862984
78,779.5913734579616
79,779.6197492055933
80,779.6476142531454
81,779.6749395272575
82,779.7016974659393
83,779.7278618210241
84,779.7534074528584
85,779.7783101170324
86,779.8025462446057
87,779.8260927180659
88,779.8489266450077
89,779.8710251310087
90,779.8923650533098
91,779.9129228376249
92,779.9326742408994
93,779.9515941426392
94,779.9696563469683
95,779.9868333977956
96,780.0030964108485
97,780.0184149283051
98,780.0327568031317
99,780.046088120229
100,780.0583731604164
101,780.0695744119347
102,780.0796526331009
103,780.0885669690967
104,780.096275125101
105,780.1027335962582
106,780.1078979520623
107,780.1117231695558
108,780.1141640076081
109,780.1151754140791
110,780.1147129586178
111,780.1127332854945
112,780.1091945824431
113,780.1040570624778
114,780.097283456001
115,780.0888395105083
116,780.0786944949348
117,780.0668217051821
118,780.0531989665433
119,780.0378091278259
120,780.0206405413167
121,780.0016875225763
122,779.9809507840713
123,779.958437836645
124,779.9341633531564
125,779.9081494897043
126,779.8804261614606
127,779.8510312713263
128,779.8200108896407
129,779.7874193821804
130,779.7533194825918
131,779.7177823046586
132,779.6808872892749
133,779.6427220805255
134,779.6033823251689
135,779.5629713905116
136,779.5215999972986
137,779.4793857665211
138,779.4364526814443
139,779.3929304682981
140,779.3489539009985
141,779.3046620373914
142,779.260197397069
143,779.2157050933754
144,779.1713319339742
145,779.1272255048721
146,779.0835332522429
147,779.0404015750465
148,778.9979749392862
149,778.9563950218234
150,778.9157998885678
151,778.8763232096513
152,778.8380935134414
153,778.8012334814283
154,778.7658592862364
155,778.7320799751091
156,778.6999969016364
157,778.6697032092558
158,778.6412833707356
159,778.6148127883102
160,778.5903574597361
161,778.5679737164157
162,778.5477080404718
163,778.5295969673928
164,778.5136670791379
165,778.499935089633
166,778.4884080211999
167,778.4790834673005
168,778.471949934344
169,778.4669872533707
170,778.4641670513502
171,778.463453271444
172,778.464802731459
173,778.4681657096767
174,778.4734865473059
175,778.4807042568735
176,778.4897531260243
177,778.5005633069457
178,778.5130613831768
179,778.5271709074586
180,778.5428129061229
181,778.5599063474372
182,778.5783685734967
183,778.5981156972914
184,778.6190629679032
185,778.6411251073009
186,778.6642166219532
187,778.688252091558
188,778.7131464359325
189,778.7388151600961
190,778.7651745770835
191,778.7921420079384
192,778.8196359584414
193,778.8475762722343
194,778.8758842601719
195,778.904482806078
196,778.9332964496394
197,778.9622514477086
198,778.9912758154767
199,779.0202993487509
200,779.049253628164
201,779.0780720058787
202,779.1066895752211
203,779.1350431235311
204,779.163071068446
205,779.1907133782065
206,779.217911477454
207,779.2446081410967
208,779.2707473797215
209,779.296274320767
210,779.3211350906984
211,779.34527670477
212,779.368646971979
213,779.391194422612
214,779.4128682639686
215,779.4336183666545
216,779.4533952799486
217,779.4721502712298
218,779.4898353825201
219,779.5064034971454
220,779.5218084102086
221,779.536004896613
222,779.5489487697229
223,779.5605969234923
224,779.5709073519474
225,779.5798391422555
226,779.5873524404926
227,779.5934083918718
228,779.5979690593608
229,779.6009973263101
230,779.6024567898238
231,779.6023116518448
232,779.6005266140519
233,779.5970667809421
234,779.5918975735734
235,779.5849846550097
236,779.5762938678066
237,779.5657911839345
238,779.5534426683604
239,779.5392144588957
240,779.5230727661891
241,779.5049838981779
242,779.4849143127641
243,779.4628307013588
244,779.4387001048469
245,779.4124900629154
246,779.3841687975133
247,779.353705431009
248,779.3210702390672
249,779.2862349376281
250,779.2491730028947
251,779.2098600228505
252,779.1682740781555
253,779.1243961491862
254,779.0782105447265
255,779.0297053468687
256,778.9788728664672
257,778.9257101042339
258,778.870219214112
259,778.812407967206
260,778.7522902153925
261,778.6898863533946
262,778.6252237768863
263,778.5583373328841
264,778.4892697580153
265,778.4180721004699
266,778.3448041221775
267,778.2695346783339
268,778.1923420714941
269,778.1133143771859
270,778.03254973751
271,777.9501566183444
272,777.8662540244525
273,777.7809716652146
274,777.694450062705
275,777.6068405942178
276,777.5183054631935
277,777.4290175948532
278,777.3391604546357
279,777.2489277886449
280,777.1585232864685
281,777.0681601683509
282,776.9780607002875
283,776.888455641366
284,776.7995836272507
285,776.7116904924962
286,776.6250285334512
287,776.539855713761
288,776.4564348154771
289,776.3750325392938
290,776.295918556869
291,776.2193645172571
292,776.1456430092106
293,776.0750264818895
294,776.0077861280973
295,775.9441907359076
296,775.8845055156982
297,775.828990909966
298,775.7779013933488
299,775.7314842705524
300,775.6899784803411
301,775.6536134141156
302,775.6226077578156
303,775.5971683660744
304,775.5774891778485
305,775.5637501830655
306,775.5561164498037
307,775.5547372207875
308,775.5597450867028
309,775.5712552427193
310,775.5893648341635
311,775.6141523973142
312,775.6456774011849
313,775.6839798953004
314,775.729080266524
315,775.7809791051433
316,775.8396571773833
317,775.905075498971
318,775.9771755026308
319,776.0558792915134
320,776.1410899706652
321,776.2326920494277
322,776.3305519083568
323,776.4345183243319
324,776.5444230473372
325,776.6600814226666
326,776.781293053258
327,776.9078424981212
328,777.0395000037796
329,777.176022266085
330,777.3171532199082
331,777.4626248542012
332,777.6121580498485
333,777.7654634377074
334,777.9222422745243
335,778.0821873350426
336,778.2449838193546
337,778.4103102749694
338,778.57783953289
339,778.7472396562721
340,778.9181748992332
341,779.0903066723806
342,779.2632945110173
343,779.436797042136
344,779.6104729472966
345,779.7839819197253
346,779.9569856146899
347,780.1291485923891
348,780.3001392528896
349,780.4696307632513
350,780.6373019773906
351,780.8028383488589
352,780.9659328354701
353,781.1262867928622
354,781.2836108519862
355,781.4376257735909
356,781.5880632714567
357,781.734666795802
358,781.8771922691751
359,782.0154087691424
360,782.1490991545422
361,782.278060634071
362,782.4021052770692
363,782.5210604667441
364,782.6347692960986
365,782.7430909068349
366,782.8459007717967
367,782.9430909221678
368,783.0345701210125
369,783.120263983711
370,783.200115043299
371,783.2740827560644
372,783.3421434416348
373,783.4042901523443
374,783.4605324677589
375,783.5108962108976
376,783.5554230830224
377,783.5941702145564
378,783.6272096311811
379,783.6546276361471
380,783.6765241116341
381,783.6930117432427
382,783.7042151728552
383,783.7102700869309
384,783.7113222497242
385,783.707526492881
386,783.6990456735173
387,783.6860496124464
388,783.6687140236453
389,783.6472194459938
390,783.6217501884346
391,783.5924932989974
392,783.5596375662559
393,783.523372559552
394,783.4838877127437
395,783.4413714555307
396,783.3960103962138
397,783.3479885596212
398,783.2974866835317
399,783.2446815761854
400,783.1897455367682
401,783.1328458405653
402,783.0741442906486
403,783.0137968378411
404,782.9519532696927
405,782.8887569672221
406,782.8243447256986
407,782.7588466336443
408,782.6923860033446
409,782.6250793467419
410,782.5570363922909
411,782.4883601402261
412,782.419146954714
413,782.3494866911273
414,782.2794628556195
415,782.2091527930394
416,782.1386278982319
417,782.0679538450223
418,781.9971908269911
419,781.9263938047612
420,781.8556127555937
421,781.784892922336
422,781.7142750603829
423,781.643795683316
424,781.5734873095372
425,781.5033787127884
426,781.4334951791905
427,781.3638587729986
428,781.2944886126757
429,781.2254011577404
430,781.156610505279
431,781.088128693732
432,781.0199660109952
433,780.9521313037194
434,780.884632284329
435,780.8174758312774
436,780.750668276434
437,780.6842156718195
438,780.6181240269956
439,780.5523995088167
440,780.4870485969955
441,780.4220781916845
442,780.3574956724142
443,780.293308910424
444,780.2295262381941
445,780.1661563811708
446,780.1032083579743
447,780.0406913569864
448,779.9786145986885
449,779.9169871939094
450,779.8558180079717
451,779.7951155394877
452,779.7348878201246
453,779.6751423380449
454,779.6158859835238
455,779.5571250115001
456,779.4988650135631
457,779.4411108913484
458,779.3838668239395
459,779.3271362231025
460,779.2709216720946
461,779.2152248464267
462,779.1600464179403
463,779.1053859462767
464,779.0512417636887
465,778.9976108596528
466,778.9444887708999
467,778.8918694808423
468,778.8397453305865
469,778.7881069423617
470,778.7369431558551
471,778.6862409788154
472,778.6359855547091
473,778.5861601513162
474,778.5367461745952
475,778.4877232123456
476,778.4390691124074
477,778.3907601001267
478,778.3427709391174
479,778.2950751380627
480,778.2476452049198
481,778.2004529485874
482,778.1534698262944
483,778.106667332407
484,778.0600174218607
485,778.0134929600316
486,777.9670681908427
487,777.9207192157813
488,777.874424477668
489,777.8281652439363
490,777.781926084692
491,777.7356953410914
492,777.6894655797518
493,777.6432340287862
494,777.5970029904262
495,777.5507802243118
496,777.5045792950968
497,777.4584198783123
498,777.412328018984
499,777.3663363376461
500,777.320484178017
501,777.2748176901334
502,777.2293898426054
503,777.1842603581482
504,777.139495567875
505,777.095168181859
506,777.0513569756912
507,777.0081463948379
508,776.9656260806914
509,776.9238903244745
510,776.8830374574407
511,776.8431691877138
512,776.804389895324
513,776.7668058973279
514,776.7305246943122
515,776.6956542079298
516,776.662302016348
517,776.6305745909958
518,776.6005765348029
519,776.5724098202861
520,776.5461730257135
521,776.5219605684761
522,776.4998619355644
523,776.4799609112771
524,776.4623348025359
525,776.4470536632488
526,776.4341795213771
527,776.4237656154974
528,776.415855650867
529,776.410483087256
530,776.4076704715839
531,776.4074288279324
532,776.4097571161574
533,776.414641768506
534,776.4220563117491
535,776.431961080401
536,776.4443030244864
537,776.4590156132808
538,776.4760188353191
539,776.4952192950702
540,776.516510407427
541,776.5397726916898
542,776.5648741668036
543,776.5916708494956
544,776.6200073566789
545,776.6497176125679
546,776.6806256587668
547,776.7125465620074
548,776.7452874101022
549,776.7786483835501
550,776.8124238888346
551,776.8464037392177
552,776.8803743689955
553,776.9141200675342
554,776.947424220196
555,776.9800705443733
556,777.0118443100928
557,777.0425335360692
558,777.071930153745
559,777.0998311331683
560,777.12603956483
561,777.1503656909705
562,777.1726278795575
563,777.1926535350921
564,777.2102799423
565,777.2253550405202
566,777.2377381273528
567,777.247300489634
568,777.2539259585042
569,777.257511384245
570,777.2579670265967
571,777.2552168574418
572,777.2491987742671
573,777.2398647241602
574,777.2271807393873
575,777.2111268869986
576,777.1916971362264
577,777.1688991483604
578,777.1427539941909
579,777.1132958041563
580,777.0805713562723
581,777.0446396069069
582,777.0055711694594
583,776.9634477458862
584,776.9183615156777
585,776.870414486231
586,776.819717807567
587,776.7663910532617
588,776.7105614689403
589,776.6523631902143
590,776.5919364334592
591,776.5294266648443
592,776.4649837547214
593,776.3987611251334
594,776.3309148976683
595,776.2616030476989
596,776.1909845700094
597,776.1192186603457
598,776.0464639174419
599,775.9728775703381
600,775.8986147364682
601,775.8238277169938
602,775.748665336599
603,775.6732723347225
604,775.5977888141083
605,775.5223497511962
606,775.4470845717764
607,775.3721167944467
608,775.2975637434603
609,775.2235363315025
610,775.1501389120325
611,775.0774692002584
612,775.0056182613272
613,774.934670563634
614,774.8647040945684
615,774.7957905361142
616,774.7279954983414
617,774.6613788089434
618,774.5959948559461
619,774.531892979105
620,774.4691179042186
621,774.4077102140308
622,774.3477068492381
623,774.2891416329243
624,774.2320458114392
625,774.1764486046176
626,774.1223777583934
627,774.0698600929595
628,774.0189220393462
629,773.9695901569775
630,773.921891624946
631,773.8758547007043
632,773.8315091415382
633,773.7888865862184
634,773.7480208960376
635,773.7089484557235
636,773.6717084357646
637,773.6363430187881
638,773.6028975935105
639,773.5714209198181
640,773.5419652673878
641,773.514586527946
642,773.4893442982263
643,773.466301927638
644,773.445526522261
645,773.4270888955049
646,773.4110634559485
647,773.3975280247568
648,773.386563578618
649,773.3782539187757
650,773.3726852711123
651,773.3699458251804
652,773.3701252213694
653,773.3733139957135
654,773.3796029916432
655,773.389082747289
656,773.4018428657373
657,773.4179713743067
658,773.4375540780521
659,773.4606739128003
660,773.4874103038675
661,773.5178385375164
662,773.5520291526032
663,773.5900473596581
664,773.6319524940342
665,773.6777975088268
666,773.7276285120396
667,773.7814843513058
668,773.8393962487028
669,773.9013874878384
670,773.9674731550467
671,774.0376599360031
672,774.1119459684794
673,774.1903207515609
674,774.2727651115608
675,774.3592512248686
676,774.4497426978076
677,774.5441947030366
678,774.64255417078
679,774.7447600309658
680,774.8507434995407
681,774.9604283998924
682,775.073731509496
683,775.1905629228668
684,775.3108264239439
685,775.434419863168
686,775.5612355361335
687,775.6911605617747
688,775.8240772587085
689,775.9598635188216
690,776.0983931775526
691,776.2395363804467
692,776.3831599453601
693,776.5291277194228
694,776.6773009300944
695,776.8275385306279
696,776.9796975416982
697,777.1336333921547
698,777.2892002624437
699,777.4462514343652
700,777.6046396506746
701,777.7642174874052
702,777.9248377403467
703,778.0863538250198
704,778.2486201873371
705,778.4114927207656
706,778.574829185587
707,778.7384896265003
708,778.902336785653
709,779.0662365086715
710,779.2300581411886
711,779.3936749126777
712,779.556964303206
713,779.7198083873154
714,779.8820941480445
715,780.043713753651
716,780.2045647904799
717,780.3645504477096
718,780.5235796526363
719,780.6815671575744
720,780.8384335806494
721,780.994105402912
722,781.1485149237845
723,781.3016001764975
724,781.4533048053511
725,781.6035779073298
726,781.7523738413513
727,781.899652008842
728,782.0453766095475
729,782.1895163771226
730,782.3320443006356
731,782.4729373403276
732,782.6121761478425
733,782.7497448018099
734,782.8856305688245
735,783.0198236978307
736,783.1523172534831
737,783.2831069919548
738,783.4121912807842
739,783.539571062101
740,783.6652498559937
741,783.7892337986221
742,783.9115317082628
743,784.0321551712843
744,784.1511186385088
745,784.2684395208206
746,784.3841382721646
747,784.4982384487827
748,784.610766735596
749,784.7217529337589
750,784.831229907174
751,784.9392334895385
752,785.0458023564036
753,785.1509778680903
754,785.2548038890543
755,785.3573265879252
756,785.4585942205777
757,785.5586568967072
758,785.657566328882
759,785.7553755620071
760,785.8521386804714
761,785.9479104900505
762,786.0427461723075
763,786.1367009107776
764,786.229829489921
765,786.3221858690446
766,786.4138227341219
767,786.5047910309952
768,786.5951394839675
769,786.684914104485
770,786.7741576956087
771,786.8629093591934
772,786.9512040136284
773,787.0390719301554
774,787.1265382951798
775,787.2136228052283
776,787.300339300845
777,787.3866954459655
778,787.4726924599021
779,787.5583249094313
780,787.6435805681178
781,787.7284403489859
782,787.812878315225
783,787.8968617719056
784,787.9803514400016
785,788.0633017127359
786,788.1456609933531
787,788.2273721121652
788,788.3083728185961
789,788.3885963413562
790,788.4679720074329
791,788.546425908503
792,788.6238816017172
793,788.7002608306844
794,788.7754842519482
795,788.8494721524966
796,788.9221451453049
797,788.9934248325093
798,789.0632344285536
799,789.1314993375199
800,789.1981476796697
801,789.2631107627438
802,789.3263234946263
803,789.3877247358329
804,789.4472575925827
805,789.5048696534317
806,789.5605131742258
807,789.6141452172121
808,789.6657277503784
809,789.7152277123917
810,789.7626170470395
811,789.8078727093479
812,789.8509766442895
813,789.8919157387036
814,789.9306817477063
815,789.9672711979148
816,790.0016852704244
817,790.0339296664217
818,790.0640144581648
819,790.091953928675
820,790.117766404783
821,790.1414740892658
822,790.1631028979516
823,790.1826823068261
824,790.2002452128118
825,790.2158278104606
826,790.2294694854396
827,790.2412127242297
828,790.2511030379782
829,790.2591888973524
830,790.2655216748744
831,790.2701555914692
832,790.2731476643835
833,790.2745576535167
834,790.274448002249
835,790.2728837674584
836,790.2699325323329
837,790.2656642952592
838,790.2601513285986
839,790.2534680022881
840,790.2456905685747
841,790.2368969053942
842,790.2271662167522
843,790.2165786889772
844,790.2052151021585
845,790.1931563968152
846,790.1804831971106
847,790.1672752935038
848,790.1536110891703
849,790.1395670154849
850,790.1252169222541
851,790.1106314481794
852,790.095877376482
853,790.0810169803547
854,790.0661073635321
855,790.0511998027849
856,790.03633910096
857,790.0215629606059
858,790.0069013889633
859,789.9923761454837
860,789.9780002437412
861,789.9637775208657
862,789.9497022886442
863,789.9357590800736
864,789.9219225027961
865,789.9081572069374
866,789.8944179704619
867,789.8806499012904
868,789.8667887522764
869,789.8527613421595
870,789.8384860727404
871,789.8238735306227
872,789.8088271618735
873,789.793244009538
874,789.7770155057902
875,789.7600283116001
876,789.7421651972132
877,789.7233059569244
878,789.7033283515098
879,789.6821090708676
880,789.6595247080149
881,789.6354527344622
882,789.6097724668576
883,789.5823660153724
884,789.5531192046293
885,789.5219224576214
886,789.4886716327512
887,789.4532688051268
888,789.415622985863
889,789.3756507761689
890,789.3332769551109
891,789.2884350009055
892,789.2410675457669
893,789.1911267640529
894,789.1385746931647
895,789.0833834870155
896,789.0255356027692
897,788.965023922104
898,788.9018518077692
899,788.8360330947439
900,788.7675920136459
901,788.6965630434125
902,788.6229906914988
903,788.5469292022453
904,788.4684421960849
905,788.3876022428828
906,788.3044903724924
907,788.2191955255703
908,788.1318139482873
909,788.042448535718
910,787.9512081304258
911,787.8582067846197
912,787.7635629952154
913,787.6673989206844
914,787.5698395874335
915,787.47101209275
916,787.3710448115442
917,787.270066615006
918,787.168206110169
