frame_number,force
0,587.8317900000443
1,587.7710427220945
2,587.7160018641734
3,587.6720748155338
4,587.6440435112577
5,587.6357101278892
6,587.6495431425531
7,587.6863713848516
8,587.7451897393665
9,587.8231441618174
10,587.9157368503013
11,588.0172429414611
12,588.1212885179641
13,588.2215149450068
14,588.3122309889435
15,588.3889347780438
16,588.4486017504197
17,588.4896950085632
18,588.5119357378918
19,588.5159362170436
20,588.5028224345685
21,588.4739509825723
22,588.4307704658275
23,588.3748251674399
24,588.3078740162108
25,588.2320910852038
26,588.1502968262665
27,588.0661396072338
28,587.9841332264508
29,587.9094798104053
30,587.8476613483983
31,587.8038425227908
32,587.7821717210973
33,587.7850890056027
34,587.8127547785508
35,587.8627096276649
36,587.9298624681048
37,588.0068664794803
38,588.0848740611958
39,588.1545791285218
40,588.2073851862816
41,588.2365049202475
42,588.2378137703904
43,588.2103354627718
44,588.1563022442531
45,588.0807864666589
46,587.9909490053584
47,587.895005864887
48,587.8010687036574
49,587.7160431588287
50,587.6447575124748
51,587.5894511397029
52,587.549689809138
53,587.5227025451062
54,587.5040669123428
55,587.4886228682116
56,587.4714724558864
57,587.4489133006556
58,587.4191552543379
59,587.3826950809892
60,587.3422852611391
61,587.3025163594697
62,587.2691046284008
63,587.248013440858
64,587.2445391291934
65,587.2624729412386
66,587.3034273932205
67,587.3664017990525
68,587.4476585226405
69,587.540965429878
70,587.6382065457324
71,587.7302818601462
72,587.8081504099634
73,587.8638479387263
74,587.8913268131797
75,587.8870086754948
76,587.8500056944551
77,587.7820390660556
78,587.6871320396742
79,587.5711591664169
80,587.4413028500406
81,587.3054314556251
82,587.171400897082
83,587.046309203926
84,586.9357861277222
85,586.843435771965
86,586.7705337874152
87,586.7160174787169
88,586.6767422493035
89,586.6479499794161
90,586.6238959455801
91,586.5985734966546
92,586.5664475530343
93,586.5230865141722
94,586.4655967838004
95,586.392813674685
96,586.3052627057048
97,586.2049520810372
98,586.0950743490005
99,585.9796777799128
100,585.863333249222
101,585.7508034731685
102,585.6467295979933
103,585.5553579657604
104,585.4803114935186
105,585.4243831118915
106,585.3893323263494
107,585.3757054254104
108,585.3827340671921
109,585.4083558570723
110,585.4493538366717
111,585.5015768794971
112,585.5602062672848
113,585.6200563103027
114,585.6759090415027
115,585.7228760017766
116,585.7567625106528
117,585.7743953855843
118,585.7738755833859
119,585.7547329172343
120,585.7179755780788
121,585.6660262802785
122,585.6025235407003
123,585.531965385131
124,585.4592017736809
125,585.3888303903335
126,585.3245885314702
127,585.2688428656429
128,585.2222625512541
129,585.1837324254388
130,585.1505289079887
131,585.1187427603859
132,585.0838931865975
133,585.0416460726717
134,584.9885324556254
135,584.9225605324415
136,584.843622657301
137,584.7536210432253
138,584.6562775606417
139,584.5566491990114
140,584.4604268217003
141,584.3731385245086
142,584.2993992656509
143,584.2423324478436
144,584.2032390952172
145,584.1815314844104
146,584.1749055928624
147,584.179708241589
148,584.1914516084778
149,584.2054176846618
150,584.2172663830739
151,584.2235406428582
152,584.2219881043726
153,584.211683197406
154,584.1929864236897
155,584.1673896130052
156,584.1372827421707
157,584.1056664157547
158,584.0758279172095
159,584.0509900406731
160,584.0339387740471
161,584.026653391187
162,584.0299940088837
163,584.0435195348696
164,584.0654931812154
165,584.093089701695
166,584.1227693729171
167,584.1507427045083
168,584.1734259317084
169,584.1877948500373
170,584.191588117656
171,584.1833689578731
172,584.1624952055731
173,584.1290587958715
174,584.0838439198857
175,584.0283289146455
176,583.9647271076402
177,583.8960331727743
178,583.8260228027287
179,583.7591504680051
180,583.7003043023385
181,583.6544069231154
182,583.625889679562
183,583.618107117247
184,583.6327914968238
185,583.6696607391325
186,583.7262691403223
187,583.7981312195333
188,583.8790859440696
189,583.9618298702678
190,584.0385373645676
191,584.101492887182
192,584.1436752962728
193,584.1592564175216
194,584.1440052076813
195,584.0956135683202
196,584.0139620626085
197,583.9013154854067
198,583.7623949464629
199,583.6042472366579
200,583.4358483227975
201,583.267434748536
202,583.1096311868565
203,582.9725011760877
204,582.8646627134312
205,582.7925759218249
206,582.7600525464436
207,582.7679942497203
208,582.814356083039
209,582.8943390689205
210,583.0008155616414
211,583.1249719879662
212,583.2571237217879
213,583.3876264867032
214,583.5077837380597
215,583.6106405405716
216,583.6915730284231
217,583.7486247132298
218,583.7825857355856
219,583.7968349823038
220,583.7969598878801
221,583.7901531724514
222,583.7843894913817
223,583.7874208543775
224,583.8056873209426
225,583.8432964967701
226,583.9012541318637
227,583.9771071520327
228,584.0650919681482
229,584.1567885614655
230,584.2421906584023
231,584.3110338726175
232,584.3541884031839
233,584.3649206891934
234,584.339854286423
235,584.2795122934655
236,584.188393324275
237,584.0745969749368
238,583.9490561081575
239,583.8244599414296
240,583.7139776760354
241,583.6299164138953
242,583.5824611514092
243,583.578643164912
244,583.6216631730232
245,583.7106558393231
246,583.8409218459431
247,584.0045794104353
248,584.1915211788022
249,584.3905327429192
250,584.5904434117158
251,584.7812151620044
252,584.954895438989
253,585.1063482591966
254,585.23366086291
255,585.3381426782395
256,585.4239037220635
257,585.4970899061302
258,585.5649180997154
259,585.63467040595
260,585.7127785106607
261,585.8040792680014
262,585.9112858683144
263,586.034710715544
264,586.1722740019825
265,586.3198060787023
266,586.4716094458445
267,586.6212159247207
268,586.7622558690057
269,586.8893269686594
270,586.9987195703686
271,587.0888644925733
272,587.1604304456346
273,587.2160737230406
274,587.2598957216628
275,587.2966969819146
276,587.331147320708
277,587.367015726829
278,587.4066016265416
279,587.4504712860893
280,587.497535008486
281,587.5454213180258
282,587.5910449738822
283,587.6312518376386
284,587.6634466732183
285,587.6861325928375
286,587.699291109038
287,587.7045280649228
288,587.7049359698542
289,587.7046852633217
290,587.708427894482
291,587.7206364918367
292,587.7449937348952
293,587.7839055517555
294,587.8381710934361
295,587.9068243579559
296,587.9871612498335
297,588.074958847298
298,588.1648720862318
299,588.2509712947636
300,588.3273749426207
301,588.3889299160593
302,588.4318808278872
303,588.4544432366089
304,588.4571684498122
305,588.4429907534565
306,588.4168989608611
307,588.3852590150522
308,588.3549033254542
309,588.3321694763646
310,588.3220915624609
311,588.3279055441772
312,588.3509384785181
313,588.3908465682307
314,588.446080616576
315,588.5144108713656
316,588.5933536572675
317,588.6804086042276
318,588.7731051372451
319,588.8689279269855
320,588.9652208135112
321,589.0591569698522
322,589.1478215447801
323,589.2284012078469
324,589.2984320224163
325,589.3560336625931
326,589.4000593935242
327,589.4301185716067
328,589.4464731415413
329,589.4498542118029
330,589.4412711581981
331,589.4218829972322
332,589.3929712474784
333,589.3560064820844
334,589.3127532050063
335,589.2653307668833
336,589.2161633232627
337,589.1678084446739
338,589.1227189432698
339,589.0830279970587
340,589.0504374972962
341,589.0262390333694
342,589.0114299284827
343,589.0068382204316
344,589.0131636139122
345,589.030877202197
346,589.0599883273248
347,589.0997574933136
348,589.1484759488886
349,589.2034222542296
350,589.2610492247419
351,589.3173803697932
352,589.3685340572105
353,589.4112614194287
354,589.4433820569616
355,589.4640253198799
356,589.4736262861402
357,589.4736765747534
358,589.4662841680381
359,589.4536392546217
360,589.4374946284248
361,589.4187477543846
362,589.397180276129
363,589.3713863384205
364,589.3388992143477
365,589.2965011394407
366,589.2406774418928
367,589.1681559613497
368,589.0764598389169
369,588.9644008757341
370,588.8324480803443
371,588.682913407015
372,588.5199073131167
373,588.3490453520851
374,588.1769392132986
375,588.0105591876371
376,587.8565731879303
377,587.7207417126072
378,587.6074121287977
379,587.5191430110573
380,587.4564949866472
381,587.4180202520436
382,587.4004562498433
383,587.399094143732
384,587.4082696853606
385,587.4219183026684
386,587.4341379464971
387,587.439704246883
388,587.4344884452793
389,587.4157442210616
390,587.3822456640793
391,587.3342693924325
392,587.2734274819396
393,587.2023777901242
394,587.1244548393075
395,587.0432703332785
396,586.9623288660551
397,586.8846960578538
398,586.8127492061792
399,586.748036748633
400,586.6912634768605
401,586.642394142161
402,586.6008387443612
403,586.5656711700524
404,586.5358459227643
405,586.5103966960108
406,586.4886037668887
407,586.4701050925621
408,586.4549182760329
409,586.4433553579256
410,586.4358520117713
411,586.4327783705227
412,586.4343181186154
413,586.4404752130806
414,586.4512028841659
415,586.4665799965884
416,586.4869252793878
417,586.5127644056788
418,586.5446334814721
419,586.5827717138476
420,586.6267922513849
421,586.67541787753
422,586.7263427746021
423,586.7762566023938
424,586.8210518640612
425,586.8562130390375
426,586.8773431555777
427,586.8807396542029
428,586.8639152532202
429,586.8259751753528
430,586.767794790103
431,586.6919799122112
432,586.6026299668628
433,586.5049524544228
434,586.404783353385
435,586.3080552390107
436,586.2202486393718
437,586.1458803139494
438,586.0881032343655
439,586.048482197101
440,586.0269670267548
441,586.0220427612584
442,586.0310102634795
443,586.0503366555647
444,586.0760099199913
445,586.1038441299113
446,586.1297159534975
447,586.149755867901
448,586.160540148994
449,586.1593125102258
450,586.1442222301076
451,586.1145363018361
452,586.0707819457637
453,586.0147848719239
454,585.949573752401
455,585.8791292773512
456,585.8079762300056
457,585.7406526952385
458,585.6811385286072
459,585.6323615503865
460,585.5958876288753
461,585.571834052111
462,585.5589685697591
463,585.5549206543327
464,585.5564484996115
465,585.5597484546072
466,585.5608247930951
467,585.5559297381716
468,585.5420394251882
469,585.5172864179808
470,585.4812604331479
471,585.4351182775489
472,585.38148539368
473,585.3241664641536
474,585.2677115071557
475,585.216907085326
476,585.1762707425759
477,585.1496139234453
478,585.1397136268488
479,585.1481147585671
480,585.1750797677938
481,585.2196971701889
482,585.2801424125769
483,585.3540522481577
484,585.4389379998003
485,585.5325410845218
486,585.6330421001072
487,585.739075010125
488,585.8495548036782
489,585.9633808370745
490,586.0791183970614
491,586.1947795873883
492,586.3078074656647
493,586.4153050862377
494,586.5144565941573
495,586.6030022168063
496,586.6796021323809
497,586.7439720191568
498,586.7967647836783
499,586.8392625746541
500,586.8730004795722
501,586.8994521882448
502,586.919864838725
503,586.9352594567528
504,586.9465580317403
505,586.9547779022788
506,586.9612302853202
507,586.9676525777539
508,586.9762011815094
509,586.9892566910091
510,587.0090570968438
511,587.0372532724143
512,587.0745254259067
513,587.1203798072887
514,587.1731784345602
515,587.2303812621199
516,587.288930793312
517,587.3456934557922
518,587.3978818158708
519,587.4434017997617
520,587.4810912553146
521,587.5108383477858
522,587.533584392662
523,587.5512192789731
524,587.5663742062895
525,587.5821205751307
526,587.6016027817202
527,587.6276573406258
528,587.6624812327307
529,587.7073961005595
530,587.7627219743077
531,587.8277466403723
532,587.9007669460941
533,587.9791867801235
534,588.059676419145
535,588.138410172987
536,588.2113813708588
537,588.2747496583956
538,588.3251425721354
539,588.3598465816729
540,588.3768768238579
541,588.3749679099888
542,588.3535454956643
543,588.3127202331684
544,588.2533120834099
545,588.1768773846272
546,588.0856831482047
547,587.9825704025504
548,587.8706854238875
549,587.7531205386091
550,587.6325564550959
551,587.5110070881755
552,587.389734188647
553,587.2693378796133
554,587.149965221232
555,587.03154397006
556,586.9139616795551
557,586.7971595413853
558,586.681163772744
559,586.5661044329864
560,586.4522591116618
561,586.3401198009067
562,586.2304479727609
563,586.1242821598298
564,586.0228923263851
565,585.927710158029
566,585.8402784995397
567,585.7622478338021
568,585.6954127366658
569,585.6417481169444
570,585.6033918482984
571,585.5825293843113
572,585.5811602207451
573,585.6007623059571
574,585.6419129695803
575,585.7039547908817
576,585.7847931320705
577,585.8808806923341
578,585.9874017244916
579,586.0986304622508
580,586.2084124149923
581,586.3107052362703
582,586.4001152202219
583,586.4723732140817
584,586.5247088119991
585,586.5561003716908
586,586.5673924957645
587,586.561275689408
588,586.5421162248206
589,586.5156179314262
590,586.4883072222531
591,586.4668681330547
592,586.4574045000195
593,586.4647400229281
594,586.4918611326001
595,586.5395734078477
596,586.6064047351205
597,586.688755398359
598,586.7812651263379
599,586.8773462320114
600,586.9698259930942
601,587.0516426371433
602,587.1165357517197
603,587.1596629021325
604,587.1780704208549
605,587.170958230145
606,587.1397057689555
607,587.0876559485143
608,587.0196774776161
609,586.941552540988
610,586.8592755856171
611,586.7783805718715
612,586.7034092466165
613,586.6375880635333
614,586.5827187062395
615,586.5392370262903
616,586.5063786192089
617,586.4824016801122
618,586.4648353745715
619,586.4507307378329
620,586.4368983671893
621,586.420132418005
622,586.3974359376914
623,586.3662583674122
624,586.3247252300771
625,586.271805993705
626,586.2073628134806
627,586.1320575469094
628,586.0471439762591
629,585.9542119891148
630,585.8549679607607
631,585.7511218696002
632,585.6444038234168
633,585.5366668092594
634,585.4299818202609
635,585.32662601775
636,585.228911600981
637,585.1388820347993
638,585.0579751697397
639,584.9867846739453
640,584.9250262169693
641,584.8717391894799
642,584.825657468365
643,584.7856113198625
644,584.7508159212886
645,584.7209608019043
646,584.6961029638252
647,584.6764369986294
648,584.6620354554362
649,584.6526262010011
650,584.6474363969729
651,584.6451148672248
652,584.6437443033483
653,584.6409511672005
654,584.6341016961612
655,584.620548766382
656,584.5978905062505
657,584.5642190716967
658,584.5183482308181
659,584.4599934879476
660,584.3898605432429
661,584.3096087112398
662,584.221693036423
663,584.1291217115566
664,584.0351772774447
665,583.9431523379512
666,583.8561533142545
667,583.7770172109473
668,583.7083550112296
669,583.6526927220107
670,583.6126456697522
671,583.5910420519995
672,583.5909164544564
673,583.6153297684959
674,583.6670248928252
675,583.7479693912638
676,583.858853731956
677,583.9986188451816
678,584.1640937398298
679,584.3498271735812
680,584.5481802732274
681,584.7497068580534
682,584.9438008451931
683,585.1195493884065
684,585.2666954268512
685,585.3765838591587
686,585.442956853027
687,585.4624887168875
688,585.4349971813257
689,585.3633128115134
690,585.2528275450371
691,585.1107907171386
692,584.9454764322255
693,584.7653810385812
694,584.5785931456844
695,584.3924125798699
696,584.2132116068003
697,584.0464690012127
698,583.8968844003689
699,583.7684920466908
700,583.6647202564878
701,583.588366471503
702,583.5414703475125
703,583.5250793582485
704,583.538928390157
705,583.5810963447832
706,583.6477399475301
707,583.7330163118677
708,583.8292809852278
709,583.9275916924043
710,584.0184743373328
711,584.0928366291731
712,584.1428713862632
713,584.162798278141
714,584.1493453946831
715,584.1019382777987
716,584.0226138636871
717,583.915703914702
718,583.7873448665891
719,583.6448749899824
720,583.4961798364799
721,583.3490511421951
722,583.2106365144741
723,583.0870610701426
724,582.9832703844107
725,582.9030756038323
726,582.8493155638163
727,582.8240284114879
728,582.8285499480777
729,582.863503460688
730,582.928696276637
731,583.0229803685266
732,583.144153922106
733,583.2889668691524
734,583.4532523608468
735,583.6321592039233
736,583.8204305258523
737,584.0126764646768
738,584.2036184884145
739,584.3883137822137
740,584.5623793846435
741,584.7222301974228
742,584.8653297399743
743,584.9904279474125
744,585.0977361500617
745,585.1889850419748
746,585.2673334490722
747,585.337127537497
748,585.4035286167997
749,585.4720294604728
750,585.5478842927901
751,585.6355004269014
752,585.7378669325291
753,585.8561065641542
754,585.9892245896232
755,586.1340940688701
756,586.2856688882099
757,586.4373738754363
758,586.5816046107018
759,586.7102732292904
760,586.8153467894914
761,586.8893450859784
762,586.9257999524755
763,586.9197067774555
764,586.8679911752483
765,586.7699688398864
766,586.6277246701507
767,586.4463089945463
768,586.2336557598377
769,586.0001666360351
770,585.7579671467123
771,585.5199108625106
772,585.2984630343203
773,585.1046168684304
774,584.9469815309963
775,584.8311449463572
776,584.7593723741946
777,584.7306594286905
778,584.7411158231729
779,584.7846156915112
780,584.8536143445205
781,584.9400037284254
782,585.0358706885744
783,585.1340467210399
784,585.2283942956881
785,585.3138421116823
786,585.3862371704834
787,585.4421149777647
788,585.4784918569147
789,585.4927493391293
790,585.4826285869573
791,585.4463166120919
792,585.3825960842585
793,585.2910297549685
794,585.172145342689
795,585.0275817159959
796,584.8601636921167
797,584.6738924989838
798,584.4738574177605
799,584.266073737195
800,584.0572354591478
801,583.8543625326962
802,583.6643426124366
803,583.4934131349606
804,583.3466766671162
805,583.2277612680832
806,583.1387079047931
807,583.0800926721464
808,583.051306881112
809,583.0508702174667
810,583.0766655905558
811,583.1260416766515
812,583.1957941808996
813,583.2820861970092
814,583.3803905601748
815,583.4855248691827
816,583.5918117601932
817,583.69335882696
818,583.7844299888181
819,583.8598691666118
820,583.915529975445
821,583.9486571370282
822,583.9581526146964
823,583.9446489625083
824,583.9103298850712
825,583.8585023974113
826,583.7930124809637
827,583.7176519971177
828,583.6356933690697
829,583.5496229147146
830,583.4610670526802
831,583.3708559114957
832,583.2791628778037
833,583.1856923201362
834,583.0899322291775
835,582.9915016037829
836,582.8905861121317
837,582.7883930601245
838,582.6875068836086
839,582.5920159934005
840,582.5073208400273
841,582.439613630892
842,582.3951109732965
843,582.3791821388713
844,582.3955317166921
845,582.4455792723746
846,582.5281432494802
847,582.6394801769653
848,582.773657776168
849,582.923174755277
850,583.0797027712078
851,583.2348215664291
852,583.3806402130019
853,583.5102360279366
854,583.6178877105276
855,583.6991261212509
856,583.7506732760147
857,583.7703722896508
858,583.7571988830044
859,583.7113774438551
860,583.6345369552314
861,583.5297944505629
862,583.4016744757307
863,583.2558371551387
864,583.0986499441663
865,582.9366737854588
866,582.7761431468258
867,582.6225126823917
868,582.4801320582304
869,582.3520955046923
870,582.240283737524
871,582.1455706364985
872,582.0681256198
873,582.0077317738967
874,581.9640620874011
875,581.9368838591547
876,581.9261669716057
877,581.9320612562805
878,581.9547146991326
879,581.9939463487995
880,582.0488458853085
881,582.1174106808006
882,582.1963335346255
883,582.2810259482515
884,582.3659159318288
885,582.4450031473374
886,582.5125936668707
887,582.5640901711682
888,582.5967024965079
889,582.6099667404117
890,582.605999200449
891,582.5894524272774
892,582.5671807651098
893,582.5476540330939
894,582.5401764812344
895,582.5539822129649
896,582.5972939597425
897,582.6764387420283
898,582.79510004901
899,582.9537634218874
900,583.1494033745083
901,583.3754640187577
902,583.6221792622943
903,583.8772452218465
904,584.1268050244311
905,584.3566496284633
906,584.5534908685745
907,584.7061424504694
908,584.806466428295
909,584.8499972697914
910,584.836212865514
911,584.7684652556852
912,584.6536193126572
913,584.5014743154426
914,584.3240464078646
915,584.1347695215843
916,583.9476485069928
917,583.7763819962504
