frame_number,force
0,618.8009100001498
1,618.7304530015978
2,618.6600230473633
3,618.5896498472842
4,618.5193687902524
5,618.4492244635439
6,618.3792745867382
7,618.3095940480915
8,618.2402785451029
9,618.1714472129331
10,618.1032436355645
11,618.035834780334
12,617.9694076192905
13,617.9041634317242
14,617.8403099849737
15,617.7780519917959
16,617.7175804911966
17,617.6590620718175
18,617.6026290541159
19,617.54837179538
20,617.496334162693
21,617.4465129224448
22,617.3988613283371
23,617.3532966443192
24,617.3097108663586
25,617.2679836037499
26,617.2279959232822
27,617.1896438787286
28,617.1528504506642
29,617.11757478848
30,617.0838180089297
31,617.0516252888308
32,617.0210844698996
33,616.9923217517027
34,616.9654952210631
35,616.9407869969228
36,616.9183947398026
37,616.8985231876682
38,616.8813761939672
39,616.8671494866122
40,616.8560241454298
41,616.848160695028
42,616.8436937124479
43,616.8427268762547
44,616.8453284019042
45,616.8515268468423
46,616.8613073419541
47,616.8746083714033
48,616.8913192471191
49,616.9112784255823
50,616.9342728098111
51,616.9600381745652
52,616.9882608797
53,617.018581078867
54,617.050597574968
55,617.0838742634161
56,617.1179478512414
57,617.1523363962042
58,617.1865482231377
59,617.2200909111862
60,617.2524802564485
61,617.2832493217778
62,617.3119577713759
63,617.3382015880728
64,617.361623057875
65,617.3819207174672
66,617.3988588746694
67,617.4122763171714
68,617.4220938525303
69,617.4283203056671
70,617.4310565560253
71,617.4304972222609
72,617.4269297339861
73,617.4207306732208
74,617.4123593274962
75,617.40234840058
76,617.3912918789214
77,617.3798302108358
78,617.3686331842878
79,617.358381094547
80,617.3497449023907
81,617.3433660933226
82,617.339836917889
83,617.3396816939061
84,617.3433398920661
85,617.3511517307813
86,617.3633469011326
87,617.3800368511783
88,617.4012108541395
89,617.426735893241
90,617.4563602170157
91,617.4897202982294
92,617.5263509194389
93,617.565698171794
94,617.6071351674178
95,617.6499801337299
96,617.6935163213323
97,617.737012968765
98,617.7797465424808
99,617.8210215741441
100,617.8601905132114
101,617.896672002003
102,617.9299668926487
103,617.9596712889334
104,617.9854860224191
105,618.0072222575632
106,618.0248032594019
107,618.0382626350838
108,618.0477395198293
109,618.0534712183959
110,618.0557837551895
111,618.0550806582828
112,618.05183017431
113,618.0465510864158
114,618.0397974270917
115,618.0321425640038
116,618.0241632811246
117,618.0164245435976
118,618.009465641948
119,618.0037883688765
120,617.9998477744256
121,617.9980458300107
122,617.9987279625889
123,618.0021819569114
124,618.0086383816082
125,618.0182716747855
126,618.0312012985571
127,618.0474927077412
128,618.0671580819042
129,618.0901568439899
130,618.1163960380509
131,618.1457307010527
132,618.1779643998333
133,618.2128500995848
134,618.2500915205027
135,618.2893451473471
136,618.3302230638257
137,618.3722967753096
138,618.415102178051
139,618.4581458335175
140,618.5009126690015
141,618.5428751236803
142,618.5835036396165
143,618.6222783286654
144,618.6587016237883
145,618.6923116684671
146,618.7226960720905
147,618.7495055230551
148,618.772466678415
149,618.7913937357515
150,618.8061980944746
151,618.81689551484
152,618.823610195231
153,618.8265752253045
154,618.8261289713403
155,618.8227071716445
156,618.8168308652614
157,618.8090906258277
158,618.8001277862516
159,618.7906134230103
160,618.7812259341898
161,618.7726281443913
162,618.7654449477062
163,618.7602425042575
164,618.7575099569336
165,618.7576445646346
166,618.7609410128824
167,618.7675853922345
168,618.7776539563654
169,618.7911164045478
170,618.8078431710509
171,618.8276160542737
172,618.8501414415884
173,618.8750653500574
174,618.9019895141172
175,618.9304878411115
176,618.9601227253736
177,618.9904608944515
178,619.0210885607808
179,619.0516256190788
180,619.0817385222832
181,619.1111514322852
182,619.1396553545471
183,619.1671151186861
184,619.1934740950232
185,619.2187564514236
186,619.2430667283946
187,619.2665866310628
188,619.2895690895418
189,619.3123296821066
190,619.3352354898686
191,619.3586915245103
192,619.3831250985552
193,619.4089687713707
194,619.436642663434
195,619.4665369384968
196,619.498995144784
197,619.534298968395
198,619.5726548592579
199,619.6141829439596
200,619.6589085964245
201,619.7067569784482
202,619.7575507950139
203,619.8110114201703
204,619.8667634132632
205,619.9243422740037
206,619.9832051183218
207,620.0427438269687
208,620.1023001511184
209,620.161182274767
210,620.2186823931003
211,620.2740948525067
212,620.3267342507935
213,620.3759527318623
214,620.4211557072001
215,620.4618154393571
216,620.4974822234791
217,620.5277931682408
218,620.5524787142623
219,620.5713670071036
220,620.5843861314662
221,620.5915641396364
222,620.5930268267152
223,620.5889932686132
224,620.5797692046324
225,620.5657384363777
226,620.5473525400118
227,620.5251193189098
228,620.4995905359689
229,620.47134954453
230,620.4409994339364
231,620.4091521648048
232,620.3764189007856
233,620.3434014259893
234,620.3106842760691
235,620.2788271080345
236,620.2483569201069
237,620.2197599246924
238,620.193473066696
239,620.1698753375802
240,620.1492791644608
241,620.1319222045332
242,620.1179598265742
243,620.1074585206444
244,620.1003905826382
245,620.0966306458364
246,620.0959547760206
247,620.0980427312203
248,620.1024836229979
249,620.108784783331
250,620.1163833344677
251,620.1246598524507
252,620.1329535504758
253,620.1405784929425
254,620.1468404450488
255,620.1510540649662
256,620.1525602152046
257,620.1507431249399
258,620.1450469629056
259,620.1349911994225
260,620.1201840963164
261,620.1003338004144
262,620.0752567338862
263,620.044883142819
264,620.0092597141117
265,619.9685491405963
266,619.9230265233741
267,619.8730726100342
268,619.8191640128465
269,619.7618606518945
270,619.7017907360467
271,619.639633681243
272,619.5761014770995
273,619.5119191107328
274,619.4478046917143
275,619.3844498774184
276,619.3225011324485
277,619.2625423564962
278,619.205079487655
279,619.1505277492614
280,619.0992021811464
281,619.0513119595066
282,619.0069587753807
283,618.966139250632
284,618.9287510894854
285,618.894602440882
286,618.8634238000202
287,618.8348817308457
288,618.8085937504599
289,618.7841438266756
290,618.7610980338908
291,618.7390199648412
292,618.717485514238
293,618.6960966558928
294,618.6744938467835
295,618.6523667172552
296,618.6294627661133
297,618.6055939136551
298,618.5806409769522
299,618.5545563255719
300,618.5273650120126
301,618.4991644967423
302,618.4701228008133
303,618.4404746885307
304,618.4105154338146
305,618.3805918893343
306,618.3510908940858
307,618.322425396059
308,618.2950189210967
309,618.2692891526257
310,618.2456314280438
311,618.2244029439389
312,618.2059083978789
313,618.1903876620903
314,618.1780059052013
315,618.1688464204071
316,618.1629063318402
317,618.1600953188245
318,618.1602374567537
319,618.1630761806173
320,618.168282242207
321,618.1754643713972
322,618.1841821651843
323,618.1939605455967
324,618.2043050193032
325,618.2147169869519
326,618.2247084812647
327,618.2338159045964
328,618.2416125128517
329,618.2477195111187
330,618.2518157034604
331,618.2536456830263
332,618.2530265193353
333,618.2498527854125
334,618.2440996261151
335,618.23582346232
336,618.2251599019863
337,618.2123185542803
338,618.1975747266737
339,618.1812583199738
340,618.1637405156789
341,618.1454190585168
342,618.12670306568
343,618.1079982946243
344,618.0896936656451
345,618.0721496226514
346,618.0556886817735
347,618.0405882841994
348,618.0270758602298
349,618.0153258635276
350,618.0054584593123
351,617.9975395240573
352,617.9915816273711
353,617.9875457368923
354,617.9853435073892
355,617.9848401346538
356,617.9858578298418
357,617.9881800003266
358,617.9915562146095
359,617.9957079638574
360,618.0003351154139
361,618.0051228444177
362,618.0097487899517
363,618.0138902180936
364,618.0172310575191
365,618.0194687653988
366,618.02032102237
367,618.0195322066651
368,618.0168795188256
369,618.0121786248881
370,618.0052887558489
371,617.9961172345385
372,617.9846233378928
373,617.9708213003487
374,617.9547822061637
375,617.9366345334025
376,617.916563194611
377,617.894807063812
378,617.8716551436235
379,617.8474416114789
380,617.8225399315014
381,617.7973560918465
382,617.772320946552
383,617.7478816525419
384,617.7244922301079
385,617.7026032652648
386,617.6826507658194
387,617.6650443161358
388,617.6501549639853
389,617.6383035305873
390,617.6297500747065
391,617.6246850697446
392,617.6232225914529
393,617.6253955498844
394,617.6311527989564
395,617.6403579090552
396,617.6527895181508
397,617.6681433899265
398,617.686036479396
399,617.7060133793501
400,617.7275554901843
401,617.7500931211315
402,617.773020478363
403,617.7957131239342
404,617.8175470692944
405,617.8379183439621
406,617.8562617940914
407,617.8720680604591
408,617.8848980739529
409,617.8943948111678
410,617.9002923083509
411,617.902421991984
412,617.900716343686
413,617.89520992974
414,617.8860379670866
415,617.8734327833972
416,617.8577185901985
417,617.8393048618232
418,617.8186784276172
419,617.7963943137398
420,617.7730654295186
421,617.7493512415441
422,617.725945498376
423,617.7035628744006
424,617.682924198122
425,617.6647398376078
426,617.6496909418282
427,617.6384086383804
428,617.6314518796983
429,617.6292851824876
430,617.6322578194779
431,617.6405860572371
432,617.6543398425205
433,617.6734349823474
434,617.6976314028514
435,617.7265375785181
436,617.7596207664219
437,617.7962223381121
438,617.8355773298648
439,617.8768372985907
440,617.919095572372
441,617.9614139486874
442,618.0028498462226
443,618.042482932564
444,618.0794403617703
445,618.1129199437514
446,618.1422108117073
447,618.1667114294065
448,618.1859450043154
449,618.1995724228584
450,618.2074026456031
451,618.209400175331
452,618.205688906092
453,618.1965515212665
454,618.1824237040767
455,618.1638827508757
456,618.1416306479804
457,618.1164721411549
458,618.0892886974374
459,618.061009535839
460,618.0325811034149
461,618.0049364611409
462,617.9789659858095
463,617.9554906167477
464,617.9352386346599
465,617.9188266693368
466,617.9067452892781
467,617.8993491925439
468,617.8968518089293
469,617.899324069312
470,617.9066970934362
471,617.9187684774163
472,617.935211724936
473,617.9555882405817
474,617.979361249804
475,618.0059110220335
476,618.034550815493
477,618.0645430372866
478,618.0951152451787
479,618.1254757638517
480,618.1548287652888
481,618.1823886768632
482,618.2073938284966
483,618.2291193824026
484,618.2468897192251
485,618.2600904415112
486,618.2681799845074
487,618.270700633245
488,618.2672886415097
489,618.2576831088264
490,618.2417332540392
491,618.2194037586152
492,618.1907779669485
493,618.1560588724808
494,618.1155678986224
495,618.0697414529955
496,618.0191251122606
497,617.964365167356
498,617.9061972386453
499,617.845431831637
500,617.7829370240564
501,617.719618830439
502,617.6564000299295
503,617.5941983020086
504,617.5339044463187
505,617.4763613542035
506,617.4223443156292
507,617.3725432318089
508,617.3275473565024
509,617.2878332231968
510,617.2537563377286
511,617.2255470217405
512,617.2033105669897
513,617.1870316821917
514,617.17658306888
515,617.1717377824176
516,617.1721848077502
517,617.1775470683591
518,617.1874009311902
519,617.2012961580103
520,617.2187752032471
521,617.2393908404327
522,617.2627213230459
523,617.2883825543016
524,617.3160369765133
525,617.3453991036341
526,617.3762378185575
527,617.408375705393
528,617.4416857807203
529,617.4760860641167
530,617.511532497397
531,617.5480107577157
532,617.5855275159314
533,617.6241016952131
534,617.6637562517516
535,617.7045108634247
536,617.7463756933041
537,617.7893461823315
538,617.8333986721475
539,617.8784865939361
540,617.924537033067
541,617.9714476871712
542,618.0190844660159
543,618.0672801186627
544,618.1158342769446
545,618.1645151859934
546,618.2130631954533
547,618.2611958724485
548,618.3086144092923
549,618.355010853656
550,618.400075625318
551,618.4435048393084
552,618.4850071139416
553,618.5243097385761
554,618.5611642355144
555,618.5953514244186
556,618.6266860808845
557,618.6550211948655
558,618.6802517044936
559,618.7023174478402
560,618.7212049981491
561,618.7369480535986
562,618.7496261149807
563,618.7593612841043
564,618.7663131772501
565,618.7706721927756
566,618.772651648244
567,618.7724794803987
568,618.7703901648687
569,618.7666172906387
570,618.7613869909957
571,618.7549123249194
572,618.7473886898981
573,618.7389903178428
574,618.7298678055888
575,618.7201464842727
576,618.70992531371
577,618.6992759945582
578,618.6882421550525
579,618.6768387000435
580,618.6650515671435
581,618.6528381561126
582,618.6401286246611
583,618.6268281487163
584,618.6128201816671
585,618.5979707313023
586,618.5821336632214
587,618.5651569728293
588,618.5468898459981
589,618.5271902297018
590,618.5059326241861
591,618.48301586105
592,618.4583706641814
593,618.4319667528455
594,618.4038191461727
595,618.3739932146547
596,618.3426079744629
597,618.3098371935583
598,618.2759080656367
599,618.2410974564515
600,618.2057259916088
601,618.1701504901547
602,618.1347553810865
603,618.0999437063607
604,618.0661281326776
605,618.0337221675128
606,618.0031316003666
607,617.9747460932676
608,617.948930812364
609,617.9260180394008
610,617.9062988497853
611,617.8900151567498
612,617.8773526003791
613,617.8684348126344
614,617.8633195121218
615,617.8619967575321
616,617.8643895658151
617,617.8703569510619
618,617.87969925058
619,617.892165428937
620,617.9074619344508
621,617.9252626066427
622,617.9452190506805
623,617.9669708028017
624,617.9901545611472
625,618.0144118000375
626,618.0393942378055
627,618.0647668805566
628,618.0902086859084
629,618.1154112265523
630,618.1400760221071
631,618.1639113908848
632,618.1866297043175
633,618.2079458083438
634,618.2275771740684
635,618.2452461317757
636,618.2606843500026
637,618.2736395152787
638,618.2838839457298
639,618.2912246865967
640,618.2955145111055
641,618.2966631390233
642,618.2946478620419
643,618.2895226880366
644,618.2814251730299
645,618.270580318506
646,618.2573011644789
647,618.2419858591121
648,618.2251110280084
649,618.2072213470517
650,618.1889154526815
651,618.1708286679619
652,618.1536133719725
653,618.1379180996828
654,618.1243665767724
655,618.1135378510586
656,618.1059484939096
657,618.1020375739231
658,618.1021548492655
659,618.1065524451883
660,618.115380147135
661,618.1286842640608
662,618.1464097724715
663,618.1684052163337
664,618.1944297235865
665,618.2241615432192
666,618.2572076418234
667,618.293114027857
668,618.3313765484895
669,618.3714519487696
670,618.4127690426657
671,618.4547399403781
672,618.4967713764851
673,618.5382762258541
674,618.5786852342114
675,618.6174588516276
676,618.654098907001
677,618.6881597336078
678,618.7192582459367
679,618.7470823987455
680,618.7713974945685
681,618.7920499943388
682,618.8089687922728
683,618.8221642038189
684,618.8317250328458
685,618.8378140134691
686,618.840661795523
687,618.8405595740729
688,618.8378504496355
689,618.832919624731
690,618.8261836062278
691,618.8180786712225
692,618.8090489153785
693,618.799534218972
694,618.7899584433109
695,618.7807181111372
696,618.7721717623776
697,618.764630170803
698,618.7583476596756
699,618.7535147883283
700,618.7502526365992
701,618.7486088239729
702,618.7485553545266
703,618.7499884279055
704,618.7527304766633
705,618.7565348183881
706,618.761093367194
707,618.7660477362722
708,618.7710037193835
709,618.7755486259161
710,618.779270443033
711,618.7817774880372
712,618.7827171675322
713,618.7817926385877
714,618.7787764477949
715,618.7735204690852
716,618.7659616331129
717,618.756123114441
718,618.74411088229
719,618.7301058138845
720,618.7143518781007
721,618.697141192902
722,618.678796991308
723,618.6596556105158
724,618.6400485068543
725,618.620285087959
726,618.6006370116387
727,618.581324614469
728,618.5625062322155
729,618.5442712075471
730,618.5266372358046
731,618.5095523606872
732,618.4929014600018
733,618.4765165580636
734,618.460189885992
735,618.4436883988676
736,618.4267685082341
737,618.409190055669
738,618.3907289116261
739,618.3711879098446
740,618.3504060571746
741,618.3282660776744
742,618.3047003834854
743,618.2796955676741
744,618.2532955155915
745,618.2256032042974
746,618.1967811820366
747,618.1670506360682
748,618.1366889297981
749,618.1060255121847
750,618.0754361122284
751,618.045335115461
752,618.0161660419855
753,617.9883901498273
754,617.9624733291014
755,617.9388715828793
756,617.9180155408718
757,617.9002946716311
758,617.8860421063622
759,617.875521136211
760,617.8689143918216
761,617.8663164587297
762,617.867730309365
763,617.8730675466586
764,617.8821521465931
765,617.8947272226679
766,617.9104643124516
767,617.9289747113978
768,617.9498223419268
769,617.9725375372803
770,617.9966310315406
771,618.0216074568083
772,618.0469777571906
773,618.0722701111499
774,618.0970391930941
775,618.1208738564516
776,618.1434034845464
777,618.1643032503704
778,618.1832983900855
779,618.2001674831924
780,618.2147447668204
781,618.2269216410771
782,618.236647584818
783,618.2439306181951
784,618.2488372962596
785,618.251492105803
786,618.2520760706103
787,618.2508242789534
788,618.2480219303316
789,618.2439984589454
790,618.2391194271415
791,618.2337761925633
792,618.2283737261263
793,618.2233172358749
794,618.2189983603527
795,618.2157816991885
796,618.2139924361852
797,618.2139057717889
798,618.2157387401096
799,618.2196447128623
800,618.2257105816947
801,618.2339564174564
802,618.2443374027794
803,618.2567479448485
804,618.2710279620088
805,618.286971330135
806,618.3043363762819
807,618.3228581288969
808,618.3422617844833
809,618.362276583831
810,618.3826491005537
811,618.4031549016264
812,618.4236076585883
813,618.4438650372584
814,618.4638309986043
815,618.4834544064229
816,618.502724010421
817,618.5216600049098
818,618.5403025434298
819,618.5586978422668
820,618.5768827542882
821,618.5948688500976
822,618.612627108741
823,618.6300743520367
824,618.6470625575115
825,618.663372107956
826,618.6787098567546
827,618.6927126059627
828,618.7049562068871
829,618.7149700221207
830,618.7222559933795
831,618.7263111172138
832,618.7266518087803
833,618.7228384839125
834,618.7144987393098
835,618.7013477404711
836,618.6832047592825
837,618.660005148062
838,618.6318073524004
839,618.598794850911
840,618.5612731781065
841,618.5196624527274
842,618.474486071356
843,618.4263563511806
844,618.3759578893942
845,618.3240293557122
846,618.2713444631066
847,618.2186929605224
848,618.1668625602789
849,618.1166226528095
850,618.0687104249768
851,618.023819624813
852,617.9825918201022
853,617.9456096945361
854,617.9133917700535
855,617.8863879455374
856,617.8649753750389
857,617.8494544152923
858,617.840044582047
859,617.8368806123881
860,617.8400088032921
861,617.8493837888449
862,617.8648658852096
863,617.8862191492101
864,617.9131103911625
865,617.945109497588
866,617.9816914627821
867,618.022240482862
868,618.0660564007102
869,618.1123637364759
870,618.1603234387921
871,618.2090473101498
872,618.2576148465092
873,618.305092046491
874,618.3505516018346
875,618.3930937857936
876,618.431867338176
877,618.4660897061553
878,618.4950660788527
879,618.518206675236
880,618.5350416946076
881,618.5452332819979
882,618.5485838803943
883,618.5450404771572
884,618.5346944967062
885,618.5177773962481
886,618.4946522857742
887,618.4658020352308
888,618.4318143777137
889,618.3933645620176
890,618.351196193573
891,618.3061009971814
892,618.2588982888066
893,618.2104149353718
894,618.1614665210119
895,618.1128403311086
896,618.0652805973482
897,618.0194762445667
898,617.9760512304765
899,617.9355575073046
900,617.8984705746927
901,617.8651874510845
902,617.8360267051803
903,617.8112300635714
904,617.790965098897
905,617.7753286004181
906,617.7643504034417
907,617.7579976278358
908,617.7561793489176
909,617.7587516791623
910,617.7655231720912
911,617.7762604492551
912,617.7906939592682
913,617.8085237331403
914,617.8294249236887
915,617.8530529063439
916,617.8790478360116
917,617.9070387489521
918,617.936647436287
