acceleration,velocity,displacement
0.005149768018200359,0.0,0.0
0.0042110858641126216,2.3402134705782453e-06,5.850533676445613e-10
0.0033099000072876134,4.2204599384283046e-06,2.225221719896199e-09
0.0024484724556291574,5.660053054157497e-06,4.6953499680426495e-09
0.0016281555018523282,6.679210043527869e-06,7.78016574246399e-09
0.000849463027309199,7.298614675818251e-06,1.1274621922300522e-08
0.00011216299051334962,7.539021180273888e-06,1.4984030886323557e-08
-0.0005846151832085156,7.420908132100096e-06,1.8724013214417054e-08
-0.0012422640508144751,6.964188323594349e-06,2.2320287328340665e-08
-0.0018625777355185391,6.187977877011095e-06,2.5608328878492028e-08
-0.0024476324779675418,5.110425323639575e-06,2.8432929678654697e-08
-0.0029996723581559876,3.7485991146086922e-06,3.0647685788216766e-08
-0.0035210037483622576,2.1184300879791306e-06,3.211444308886372e-08
-0.004013901477218085,2.34703781584045e-07,3.2702726556254514e-08
-0.0044805290009328645,-1.8889038379536927e-06,3.22891765421621e-08
-0.004922874087790302,-4.239754610134484e-06,3.075701193014006e-08
-0.005342700905871357,-6.806148358549899e-06,2.799553618796896e-08
-0.005741519077988761,-9.577203354514929e-06,2.3899698259702755e-08
-0.006120569972644153,-1.2542725617173157e-05,1.8369716016780736e-08
-0.00648082992673074,-1.569307559201688e-05,1.1310765714483227e-08
-0.006823029284749,-1.9019040394886816e-05,2.6327367177573045e-09
-0.007147685424837607,-2.2511719072283466e-05,-7.749953149035267e-09
-0.007455147518239643,-2.6162427308052777e-05,-1.9918489744119325e-08
-0.007745650554079691,-2.996262682613261e-05,-3.394975327766567e-08
-0.008019375992059779,-3.3903883462667474e-05,-4.9916380849865694e-08
-0.008276516051996984,-3.797785647368167e-05,-6.788681583395298e-08
-0.008517337867284026,-4.217631995350192e-05,-8.792535994074888e-08
-0.008742242547393636,-4.6491215057171337e-05,-1.100922436934172e-07
-0.008951813076134397,-5.0914728963053346e-05,-1.3444372969847338e-07
-0.009146844797681008,-5.54393934315072e-05,-1.610322602971135e-07
-0.009328353941293048,-6.005819311625071e-05,-1.89906656934053e-07
-0.009497563261310085,-6.47646724169015e-05,-2.2111237331734103e-07
-0.00965586802200652,-6.955303023773066e-05,-2.5469179898099907e-07
-0.009804788269031988,-7.441819431049028e-05,-2.906846051180543e-07
-0.009945913780068283,-7.935586982276536e-05,-3.291281211513682e-07
-0.010080847274918535,-8.436256008651206e-05,-3.700577286286876e-07
-0.010211150888070434,-8.94355596272593e-05,-4.135072585571304e-07
-0.010338300801731702,-9.457292254970983e-05,-4.5950937910137273e-07
-0.010463654438622913,-9.977341135979849e-05,-5.080959625787498e-07
-0.010588433250830994,-0.00010503643328216197,-5.592984237392399e-07
-0.010713722220792215,-0.00011036197215006777,-6.131480250972973e-07
-0.010840485162627998,-0.00011575052399592282,-6.69676149133795e-07
-0.0109695931717488,-0.00012120304357951701,-7.289145410276549e-07
-0.011101862392608195,-0.00012672090747060626,-7.908955287901857e-07
-0.011238096506144388,-0.00013230589719529442,-8.556522299566609e-07
-0.011379128656998888,-0.00013796020348608024,-9.232187551270045e-07
-0.011525857168330716,-0.00014368644994241264,-9.936304184841277e-07
-0.011679269918289579,-0.00014948773171406771,-1.0669239638982478e-06
-0.011840453590943191,-0.0001553676625913759,-1.1431378124746087e-06
-0.012010585308414092,-0.0001613304223162152,-1.2223123337015064e-06
-0.012190904885629081,-0.000167380794864726,-1.3044901379967417e-06
-0.012382666495392521,-0.0001735241877099814,-1.3897163836404186e-06
-0.012587069659474313,-0.00017976662174869809,-1.4780390860050885e-06
-0.01280517171780626,-0.00018611468209301822,-1.5695094119655175e-06
-0.013037786976278918,-0.0001925754217665395,-1.664181937930407e-06
-0.013285380477113482,-0.0001991562136298876,-1.7621148467795137e-06
-0.013547965899459663,-0.00020586455022403088,-1.8633700377429934e-06
-0.013825017499836462,-0.00021270779607385492,-1.9680131243174648e-06
-0.014115405267313457,-0.0002196929017656424,-2.076113298777339e-06
-0.014417360018036349,-0.00022682609308697984,-2.1877430474904946e-06
-0.014728471013797517,-0.00023411255084493832,-2.3029777084734743e-06
-0.015045714514654817,-0.0002415560972270514,-2.4218948704914717e-06
-0.015365509340803787,-0.000249158903190916,-2.5445736205959637e-06
-0.01568379506605904,-0.0002569212292926317,-2.6710936537168506e-06
-0.015996128485915622,-0.0002648412101806254,-2.8015342635851647e-06
-0.01629779363768467,-0.00027291469071152543,-2.9359732388082025e-06
-0.016583920177599687,-0.00028113511916534655,-3.0744856912774205e-06
-0.01684960480516412,-0.0002894935004110375,-3.2171428461715164e-06
-0.017090030812199706,-0.0002979784093153785,-3.3640108236031204e-06
-0.017300581763264766,-0.0003065760624592446,-3.515149441546776e-06
-0.017476946767857413,-0.0003152704445920252,-3.6706110683095935e-06
-0.017615216516255527,-0.00032404348541305344,-3.830439550810863e-06
-0.0177119706016385,-0.00033287528219252694,-3.994669242712258e-06
-0.01776435695670776,-0.0003417443640821135,-4.163324154280918e-06
-0.017770163438060267,-0.00035062799418080555,-4.336417243846648e-06
-0.017727880470054913,-0.00035950250515783433,-4.513949868681308e-06
-0.017636753044551864,-0.00036834366353648604,-4.695911410854888e-06
-0.017496820459562443,-0.00037712705691251463,-4.882279090967138e-06
-0.01730894257443721,-0.00038582849767101454,-5.07301797961302e-06
-0.017074811402203308,-0.00039442443616517466,-5.268081213072067e-06
-0.016796946143792693,-0.00040289237555167365,-5.467410416001279e-06
-0.016478668686141628,-0.0004112112792591572,-5.670936329703987e-06
-0.016124056057801827,-0.0004193619604451431,-5.878579639630062e-06
-0.01573786695049827,-0.0004273274411972181,-6.090251990040653e-06
-0.01532544104125101,-0.00043509326819515543,-6.305857167388746e-06
-0.01489257182214038,-0.0004426477714110033,-6.5252924272902856e-06
-0.014445355378536534,-0.0004499822532111725,-6.748449933445829e-06
-0.013990019179605505,-0.000457091096850708,-6.9752182709612995e-06
-0.013532736792142685,-0.000463971785843645,-7.2054839916348875e-06
-0.01307943612889773,-0.0004706248290739051,-7.439133145364275e-06
-0.012635609888437253,-0.0004770535905782389,-7.67605275027731e-06
-0.012206137538045872,-0.0004832640274348597,-7.916132154780585e-06
-0.011795128980206647,-0.0004892643440644228,-8.159264247655405e-06
-0.011405800334531875,-0.0004950645763931074,-8.405346477769788e-06
-0.011040390702842606,-0.000500676124152451,-8.654281652906176e-06
-0.010700124871187763,-0.0005061112530459586,-8.90597849720578e-06
-0.01038522199503679,-0.0005113825897625148,-9.160351957907897e-06
-0.010094946332880508,-0.0005165026318444941,-9.41732326330965e-06
-0.009827693581486762,-0.0005214832918230859,-9.676819744226545e-06
-0.00958110468000444,-0.0005263354913884586,-9.938774440029431e-06
-0.009352197838919905,-0.0005310688170181897,-1.0203125517131093e-05
-0.009137509520758622,-0.0005356912438581094,-1.0469815532350167e-05
-0.008933236466174195,-0.0005402089303548426,-1.0738790575903405e-05
-0.008735373086285187,-0.0005446260827429574,-1.1009999329177856e-05
-0.00853984056435247,-0.0005489448861556169,-1.12833920714025e-05
-0.008342605005444587,-0.0005531654975480661,-1.155891966732842e-05
-0.008139781902527298,-0.000557286094275059,-1.1836532565284202e-05
-0.007927723803603973,-0.0005613029707015919,-1.2116179831528365e-05
-0.007703088383679947,-0.0005652106737484129,-1.2397808242640867e-05
-0.00746288557330844,-0.00056900216723766,-1.2681361452887385e-05
-0.007204504361475108,-0.0005726690147213559,-1.296677924837714e-05
-0.006925721461147214,-0.0005762015711770114,-1.3253996894851731e-05
-0.006624695090818304,-0.0005795891753150028,-1.3542944581474734e-05
-0.006299948143924315,-0.0005828203361236884,-1.3833546959334406e-05
-0.005950345913322188,-0.000585882909638,-1.4125722770774828e-05
-0.005575073618646701,-0.0005887642645209922,-1.4419384564314575e-05
-0.0051736178513061065,-0.0005914514373884805,-1.4714438489791943e-05
-0.00474575411423958,-0.0005939312803798669,-1.501078416923403e-05
-0.004291540739190849,-0.0005961906040932245,-1.5308314640352302e-05
-0.0038113180777502764,-0.0005982163187974597,-1.5606916371074975e-05
-0.003305710770984689,-0.0005999955760096435,-1.590646934477675e-05
-0.0027756299790178923,-0.0006015159111971442,-1.6206847216578448e-05
-0.002222272302607138,-0.0006027653867675504,-1.6507917541069622e-05
-0.0016471133522421649,-0.0006037327331812627,-1.6809542071056825e-05
-0.0010518958989153716,-0.0006044074854940521,-1.7111577125725654e-05
-0.00043861364612440894,-0.000604780112880312,-1.7413874025319246e-05
0.00019050910245042542,-0.0006048421390162306,-1.7716279588293382e-05
0.0008330434923018483,-0.0006045862508675425,-1.8018636685764324e-05
0.001486390796190173,-0.0006040063922954195,-1.8320784846555064e-05
0.0021478283280081598,-0.00060309783751437,-1.862256090400751e-05
0.0028145675473240893,-0.0006018572385455369,-1.8923799673022487e-05
0.0034838231056196203,-0.000600282640882301,-1.9224334642879448e-05
0.004152889393559672,-0.0005983734627575062,-1.95239986687894e-05
0.0048192191835658696,-0.0005961304356132248,-1.9822624643382084e-05
0.005480497422514078,-0.0005935555064617048,-2.0120046128900816e-05
0.006134702608855728,-0.0005906517064538623,-2.0416097932129707e-05
0.006780149023949954,-0.0005874229935456609,-2.0710616607129586e-05
0.007415505370755023,-0.0005838740799469846,-2.1003440875502747e-05
0.00803978860797725,-0.0005800102564523016,-2.129441195960257e-05
0.008652335544264604,-0.0005758372254142411,-2.1583373830069205e-05
0.009252758557576353,-0.0005713609518887809,-2.1870173374394962e-05
0.00984089426212957,-0.0005665875386838545,-2.215466049703812e-05
0.010416753518384019,-0.000561523126738726,-2.2436688163393765e-05
0.010980478159097987,-0.0005561738188193555,-2.2716112399783285e-05
0.011532306500507197,-0.0005505456226544542,-2.299279226015174e-05
0.01207254794071808,-0.0005446444090441479,-2.326658976807639e-05
0.012601566278693526,-0.000538475880489295,-2.353736984045975e-05
0.013119770390783018,-0.0005320455463219259,-2.3805000197162555e-05
0.013627609306823612,-0.0005253587013975242,-2.4069351259092416e-05
0.014125567503697103,-0.000518420407194894,-2.433029603624052e-05
0.014614156005025424,-0.0005112354763177134,-2.458771000711867e-05
0.015093895491177086,-0.0005038084634436628,-2.4841470992059015e-05
0.015565289198512215,-0.0004961436672712404,-2.5091459024737743e-05
0.016028786153202815,-0.00048824514843331165,-2.5337556228663882e-05
0.01648473832807619,-0.0004801167673129919,-2.557964670760046e-05
0.016933356933544103,-0.0004717622434975868,-2.5817616460303103e-05
0.017374672616145764,-0.00046318523611016437,-2.605135333020504e-05
0.017808502908324073,-0.0004543894422290469,-2.6280746999789844e-05
0.018234429259077208,-0.0004453787091871966,-2.6505689037643905e-05
0.018651785561941976,-0.00043615715548194183,-2.672607300381119e-05
0.019059659421846644,-0.00042672929423599466,-2.694179461624067e-05
0.01945690600254515,-0.00041710015287989673,-2.7152751978019645e-05
0.019842172816491626,-0.0004072753831751375,-2.7358845862033402e-05
0.02021393332400491,-0.0003972613566400134,-2.755998004698719e-05
0.020570527999827705,-0.0003870652413090553,-2.7756061696474457e-05
0.020910212715184652,-0.0003766950561303022,-2.7947001770834295e-05
0.021231214725001647,-0.00036615969927025565,-2.8132715459684435e-05
0.021531795865775367,-0.0003554689466225614,-2.8313122621157638e-05
0.021810320979720105,-0.0003446334174111875,-2.8488148212166074e-05
0.022065327630350084,-0.00033366450525866993,-2.865772269283354e-05
0.022295591992410234,-0.00032257427535297984,-2.882178238798645e-05
0.022500186323727946,-0.0003113753307739453,-2.898026978951818e-05
0.02267852504919365,-0.0003000806529307149,-2.9133133785444346e-05
0.022830397684567776,-0.00028870342224727454,-2.9280329804238845e-05
0.022955987143072093,-0.00027725682604036456,-2.9421819866310755e-05
0.02305587232557248,-0.0002657538611732034,-2.9557572538114146e-05
0.023131015166616958,-0.00025420713930015605,-2.9687562788232485e-05
0.023182734268470073,-0.0002426287019413843,-2.9811771748542872e-05
0.023212668773727265,-0.00023102985118083496,-2.993018638682343e-05
0.023222736164575906,-0.00021942099994625916,-3.0042799099605203e-05
0.023215086255454775,-0.00020781154434125148,-3.014960723567708e-05
0.0231920518702833,-0.00019620975980981696,-3.025061256171485e-05
0.02315609580204267,-0.00018462272289173547,-3.034582068239024e-05
0.023109754025006684,-0.00017305626043497314,-3.0435240428221917e-05
0.023055576195724917,-0.00016151492787979023,-3.051888322530061e-05
0.022996065495264423,-0.00015000201745704288,-3.059676246163482e-05
0.022933620487557718,-0.00013851959596133733,-3.0668892864989414e-05
0.022870481796936078,-0.00012706857039021389,-3.0735289906577304e-05
0.02280868611986364,-0.00011564877841101395,-3.079596924377761e-05
0.022750029713664396,-0.00010425909945263194,-3.0850946213243525e-05
0.022696043207485785,-9.28975812223444e-05,-3.090023538341227e-05
0.02264797912421014,-8.156157563942042e-05,-3.094385017262771e-05
0.022606812910663722,-7.024787763070195e-05,-3.098180253594524e-05
0.022573257967585515,-5.8952859911139644e-05,-3.10141027203307e-05
0.02254779500832726,-4.767259666716145e-05,-3.104075908447528e-05
0.022530715157694694,-3.640296912565597e-05,-3.106177797592348e-05
0.02252217405940905,-2.513974682138003e-05,-3.107716365491024e-05
0.02252225164471158,-1.3878640395349874e-05,-3.1086918251714426e-05
0.022531010536299148,-2.6153248500971914e-06,-3.109104174302579e-05
0.022548546286654973,8.654564355641338e-06,-3.1089531933149404e-05
0.022575024768446684,1.9935457119416753e-05,-3.1082384427780636e-05
0.022610705221110926,3.123188961680616e-05,-3.106959259109658e-05
0.02265595037889529,4.254855351680771e-05,-3.105114748031318e-05
0.022711226520367642,5.389034774162345e-05,-3.102703775499857e-05
0.022777096000689057,6.526242837188762e-05,-3.099724956097019e-05
0.022854203828312405,7.667025332913798e-05,-3.0961766390544936e-05
0.022943258986390987,8.811961903281382e-05,-3.092056892245445e-05
0.023045010337411593,9.961668636376447e-05,-3.0873634846105306e-05
0.02316021575062352,0.00011116799288577325,-3.0820938676292924e-05
0.02328960207184707,0.00012278044734139089,-3.076245156623613e-05
0.023433813710944863,0.00013446130128708886,-3.0698141129079014e-05
0.02359334926314274,0.00014621809203061077,-3.062797128074959e-05
0.023768488001017815,0.0001580585513466509,-3.055190211990528e-05
0.023959210283519876,0.00016999047591778534,-3.046988986308917e-05
0.024165117313800877,0.00018202155781711553,-3.0381886854655444e-05
0.024385356123334766,0.00019415917617639943,-3.0287841671157066e-05
0.024618555502977753,0.00020641015408297758,-3.018769933859222e-05
0.0248627782857701,0.00021878048753016453,-3.0081401678188936e-05
0.02511549491745552,0.00023127505583097095,-2.996888779234865e-05
0.02537358245041188,0.0002438973251729378,-2.9850094697097674e-05
0.02563335222960768,0.0002566490588429427,-2.9724958101093703e-05
0.025890608730185068,0.0002695300490828909,-2.9593413324112244e-05
0.02614074040380153,0.00028253788636638754,-2.9455396340249925e-05
0.0263788402362515,0.0002956677815264008,-2.931084492327673e-05
0.02659984992988688,0.0003089124540679354,-2.9159699864378144e-05
0.026798719058095437,0.00032226209631493094,-2.9001906226782427e-05
0.02697056991062314,0.00033570441855711056,-2.8837414598064415e-05
0.027110859247359,0.0003492247758466061,-2.8666182299463485e-05
0.027215528933774123,0.0003628063728918894,-2.848817451227886e-05
0.02728113847224069,0.0003764305397433931,-2.830336528412004e-05
0.02730497404947469,0.00039007706787382197,-2.8111738382215734e-05
0.027285130515684413,0.00040372459401511173,-2.79132879667435e-05
0.027220564059658368,0.00041735101765894743,-2.7708019063824985e-05
0.02711111431800739,0.0004309339372533639,-2.7495947825096905e-05
0.026957495837905226,0.000444451089792342,-2.7277101568335478e-05
0.026761260332606614,0.00045788077883496996,-2.705151860117865e-05
0.026524732632960096,0.00047120227707636163,-2.6819247837200817e-05
0.026250924377205116,0.0004843961913289029,-2.65803482200995e-05
0.025943430247870818,0.0004974447799851719,-2.633488797727098e-05
0.025606311711958447,0.0005103322154751292,-2.6082943728405903e-05
0.025243972520611294,0.0005230447865332716,-2.5824599477903803e-05
0.02486102926949556,0.0005355710369807983,-2.5559945522025286e-05
0.024462180342345922,0.0005479018393837586,-2.5289077302934146e-05
0.024052077915473626,0.0005600304039482135,-2.5012094242101153e-05
0.02363520917024469,0.0005719522257196431,-2.472909858468419e-05
0.02321579307089444,0.0005836649762799279,-2.4440194284184294e-05
0.022797697905083354,0.0005951683490239224,-2.414548595285833e-05
0.022384382735225743,0.0006064638691839996,-2.384507789830635e-05
0.02197886301922274,0.0006175546806226117,-2.3539073260854695e-05
0.021583697168557715,0.0006284453206695568,-2.322757326053165e-05
0.02120098793703607,0.0006391414919459553,-2.2910676557377774e-05
0.020832391709094237,0.0006496498368574879,-2.2588478725176913e-05
0.02047913039300231,0.000659977717383012,-2.2261071836616787e-05
0.020142003886780818,0.0006701330009529578,-2.1928544157032796e-05
0.01982140447750553,0.0006801238530440294,-2.1590979943533547e-05
0.019517336580712724,0.000689958538308584,-2.1248459345695392e-05
0.019229445176519526,0.0006996452337478921,-2.0901058402681273e-05
0.018957054666095364,0.0007091918587085458,-2.0548849129567163e-05
0.018699218086703356,0.0007186059268967454,-2.019189968316584e-05
0.018454775721341122,0.0007278944253487565,-1.9830274595104465e-05
0.01822242177347285,0.00073706372472246,-1.946403505758666e-05
0.018000776860148313,0.0007461195243808653,-1.909323924531083e-05
0.017788462331326055,0.0007550668341787339,-1.871794265567093e-05
0.017584170835890204,0.0007639099924705379,-1.8338198449008612e-05
0.017386727235511785,0.0007726527169883884,-1.795405777164388e-05
0.017195134984833424,0.0007812981825434747,-1.7565570046760916e-05
0.017008604681859524,0.000789849117460148,-1.717278322176001e-05
0.016826563076594147,0.0007983079093997614,-1.6775743965045034e-05
0.016648642420416408,0.0008066767107740141,-1.637449781000159e-05
0.016474651819073004,0.0008149575343338864,-1.5969089248724617e-05
0.016304534197398687,0.0008231523308380044,-1.5559561782431644e-05
0.01613831421689378,0.0008312630429415775,-1.5145957938986749e-05
0.015976043392013577,0.0008392916323438044,-1.4728319270165403e-05
0.015817748491155824,0.0008472400803145967,-1.4306686342000803e-05
0.015663388495140786,0.0008551103645611709,-1.388109873078186e-05
0.015512824306601409,0.0008629044177616065,-1.3451595035201166e-05
0.015365803932128937,0.0008706240748212891,-1.3018212912055443e-05
0.01522196377637728,0.0008782710167484156,-1.2580989139163017e-05
0.015080844255657963,0.0008858467187564244,-1.2139959705286807e-05
0.014941915912335506,0.0008933524087984228,-1.1695159923398094e-05
0.014804611279164673,0.0009007890405962978,-1.1246624561049414e-05
0.01466835791936601,0.0009081572828959306,-1.0794387980176356e-05
0.014532608657715615,0.0009154575245402009,-1.0338484278317322e-05
0.014396865214157301,0.0009226898930081691,-9.87894742393023e-06
0.01426069118844734,0.0009298542821088203,-9.415811380150983e-06
0.014123710632993992,0.0009369503825641806,-8.949110213982733e-06
0.013985590414493659,0.0009439777078260526,-8.478878191385174e-06
0.013846007917589142,0.0009509356074090733,-8.005149862576393e-06
0.013704608637167,0.0009578232615477624,-7.527960145337184e-06
0.013560959369095715,0.000964639653549328,-7.0473444165629114e-06
0.013414502147934097,0.0009713835189285855,-6.563338623443433e-06
0.013264512778280266,0.000978053272660139,-6.075979425546252e-06
0.013110066341867309,0.000984646917440176,-5.5853043780211726e-06
0.012950010588361443,0.0009911619366727333,-5.091352164492945e-06
0.012782947068006263,0.0009975951760868252,-4.594162886303055e-06
0.012607219874568691,0.001003942717822469,-4.0937784128257315e-06
