frame_number,force
0,859.1800473884936
1,859.0978788025124
2,859.0189924966003
3,858.9435864781341
4,858.87177912156
5,858.8036154100537
6,858.7390750316055
7,858.6780817794935
8,858.6205137546962
9,858.5662139066433
10,858.5150004893014
11,858.4666770646334
12,858.4210417417775
13,858.3778953910803
14,858.3370486319973
15,858.2983274630217
16,858.2615774557391
17,858.2266664636384
18,858.1934858221474
19,858.1619500665308
20,858.1319952652708
21,858.1035761290967
22,858.0766620929156
23,858.0512325866932
24,858.0272717261528
25,858.0047626851189
26,857.983682079773
27,857.9639947985514
28,857.9456498093184
29,857.9285774907373
30,857.9126888860501
31,857.8978769600961
32,857.884019576866
33,857.8709836774736
34,857.8586300989623
35,857.846818545472
36,857.8354122738237
37,857.8242820647666
38,857.8133090947937
39,857.8023864427385
40,857.7914191334571
41,857.780322798409
42,857.7690211852888
43,857.7574428519845
44,857.7455174473915
45,857.7331720412675
46,857.7203279978959
47,857.7068988422645
48,857.6927894502754
49,857.6778967812348
50,857.6621123065647
51,857.6453262408543
52,857.6274335826317
53,857.6083417764706
54,857.5879795411995
55,857.5663061688305
56,857.543320461944
57,857.5190684420801
58,857.493649026002
59,857.4672170811854
60,857.4399836342794
61,857.4122133717218
62,857.3842197760682
63,857.3563582812392
64,857.329017828081
65,857.3026112336307
66,857.2775648288449
67,857.2543078295839
68,857.2332618717534
69,857.2148310601622
70,857.1993927534032
71,857.1872891572494
72,857.1788196808146
73,857.1742339829807
74,857.1737257061799
75,857.1774269927943
76,857.1854039333008
77,857.1976530877043
78,857.2140991872607
79,857.2345941197283
80,857.2589173640528
81,857.2867781351679
82,857.3178195458465
83,857.3516250387179
84,857.3877271992174
85,857.4256188875745
86,857.4647664761789
87,857.5046248365933
88,857.5446535587846
89,857.5843337363196
90,857.6231845597226
91,857.6607788993998
92,857.696756990468
93,857.7308373063212
94,857.7628238446921
95,857.7926093925722
96,857.8201747659439
97,857.8455843687581
98,857.8689786354819
99,857.8905640691297
100,857.9106016839618
101,857.9293946645817
102,857.9472759335247
103,857.964596124467
104,857.9817122811667
105,857.9989775151014
106,858.0167318609132
107,858.0352946023678
108,858.0549583135996
109,858.075984733662
110,858.0986024203071
111,858.123005991437
112,858.1493566694437
113,858.1777837544925
114,858.2083865744346
115,858.2412364519753
116,858.2763783289064
117,858.3138318568277
118,858.3535919296053
119,858.3956287541841
120,858.4398876519141
121,858.4862888633807
122,858.5347276428062
123,858.5850748209858
124,858.6371778425232
125,858.6908621863661
126,858.7459331456188
127,858.8021781078016
128,858.8593695904365
129,858.9172692601678
130,858.9756330190087
131,859.0342170483798
132,859.0927845097599
133,859.1511124287509
134,859.2089981546038
135,859.266264732933
136,859.3227646024831
137,859.3783812266873
138,859.4330285539332
139,859.4866485310284
140,859.5392072270466
141,859.5906903398317
142,859.641098820066
143,859.6904450832377
144,859.7387499906235
145,859.7860406257307
146,859.8323488341059
147,859.877710407195
148,859.9221646513239
149,859.9657539757152
150,860.0085231133897
151,860.0505176426825
152,860.0917816149478
153,860.1323543361907
154,860.1722666167441
155,860.2115369451461
156,860.2501680040757
157,860.2881438210323
158,860.3254277576888
159,860.3619615056751
160,860.3976651974745
161,860.4324386185731
162,860.46616337747
163,860.4987058468171
164,860.5299207582258
165,860.5596554374447
166,860.5877547052628
167,860.6140664096054
168,860.6384474151176
169,860.6607697057959
170,860.6809261527359
171,860.698835544995
172,860.7144466236049
173,860.7277409635938
174,860.7387345764738
175,860.7474781369759
176,860.7540558491103
177,860.7585831381921
178,860.7612034883908
179,860.7620847486417
180,860.7614151053416
181,860.7593987648261
182,860.7562513104168
183,860.7521947314414
184,860.7474522149205
185,860.7422428795919
186,860.7367766864162
187,860.7312497709353
188,860.7258404176386
189,860.7207058639079
190,860.7159800950676
191,860.7117727521006
192,860.7081692218294
193,860.7052319525808
194,860.7030030241325
195,860.7015079204181
196,860.7007602658837
197,860.7007670573994
198,860.7015337767126
199,860.7030687881162
200,860.7053866114585
201,860.7085099395518
202,860.7124705247419
203,860.7173091832415
204,860.7230751414348
205,860.729824860854
206,860.7376204031276
207,860.746527320766
208,860.7566119546964
209,860.7679379301759
210,860.7805616563383
211,860.7945267782709
212,860.8098577424093
213,860.8265528294525
214,860.8445771302747
215,860.8638559793279
216,860.8842693462951
217,860.9056476591128
218,860.9277694904367
219,860.9503614695748
220,860.9731007060077
221,860.9956199398025
222,861.0175154939479
223,861.0383578274999
224,861.05770415675
225,861.0751123869896
226,861.0901555424288
227,861.1024359254931
228,861.1115983028648
229,861.1173415067589
230,861.1194279805123
231,861.11769095472
232,861.1120390582071
233,861.1024582533859
234,861.0890110889377
235,861.0718333958075
236,861.0511286806484
237,861.0271605705619
238,861.0002437300799
239,860.9707336842317
240,860.9390159202699
241,860.9054945570286
242,860.8705808727519
243,860.8346821008654
244,860.7981910317787
245,860.761476977217
246,860.7248785520411
247,860.6886985491254
248,860.6532009299299
249,860.6186096478481
250,860.5851087697722
251,860.5528432891555
252,860.5219201670968
253,860.4924094235588
254,860.4643453978267
255,860.4377284764195
256,860.4125275822769
257,860.3886835761042
258,860.3661135644654
259,860.3447160302434
260,860.3243766690865
261,860.3049747351747
262,860.2863895468438
263,860.2685066636603
264,860.2512232185842
265,860.2344519779095
266,860.2181238404551
267,860.202188626145
268,860.186614143695
269,860.1713836829643
270,860.156492247815
271,860.1419419970188
272,860.1277374399508
273,860.1138809198126
274,860.1003688459446
275,860.0871890423041
276,860.074319450368
277,860.0617282424133
278,860.049375188271
279,860.0372139412783
280,860.025194827559
281,860.013267738223
282,860.001384775679
283,859.989502322428
284,859.9775821776898
285,859.9655914324737
286,859.9535009255858
287,859.941282416532
288,859.9289048733131
289,859.9163303749237
290,859.9035100792388
291,859.8903805930086
292,859.8768609524842
293,859.8628502941517
294,859.8482262031569
295,859.8328437279065
296,859.8165351362828
297,859.7991105653094
298,859.78035969693
299,859.7600545090962
300,859.7379530981508
301,859.7138045642835
302,859.6873549201337
303,859.6583538755302
304,859.626562232106
305,859.5917595908822
306,859.5537521417826
307,859.512380358118
308,859.4675263585278
309,859.4191205553822
310,859.3671471236235
311,859.3116479065186
312,859.2527246058908
313,859.190539345766
314,859.1253137866512
315,859.057326856336
316,858.9869109729943
317,858.914446527818
318,858.8403544145547
319,858.7650864933624
320,858.6891140417296
321,858.6129145159098
322,858.5369572976213
323,858.4616893905809
324,858.3875221165921
325,858.3148197354985
326,858.2438906908324
327,858.1749819539692
328,858.1082767055137
329,858.0438953349774
330,857.9818994838589
331,857.9222986533789
332,857.8650587777151
333,857.8101121231853
334,857.7573678895594
335,857.7067229374995
336,857.658072135694
337,857.6113179161663
338,857.566378731092
339,857.5231961625691
340,857.4817404088976
341,857.4420138079432
342,857.4040520621096
343,857.3679229437427
344,857.333722436716
345,857.3015684356104
346,857.27159224
347,857.2439281548104
348,857.2187015732404
349,857.1960160135197
350,857.1759397255372
351,857.158492672187
352,857.1436348782394
353,857.1312572553289
354,857.1211759956988
355,857.1131314366106
356,857.1067919040926
357,857.1017624856996
358,857.0975980846246
359,857.0938196380591
360,857.0899321661574
361,857.0854433716393
362,857.0798817470675
363,857.0728134580509
364,857.0638575649497
365,857.0526993277798
366,857.0391013526041
367,857.0229122534051
368,857.0040724789288
369,856.9826170606598
370,856.9586751916985
371,856.9324666549662
372,856.9042952103545
373,856.8745391886498
374,856.8436397132099
375,856.8120871309197
376,856.780406380425
377,856.7491421593935
378,856.7188447800056
379,856.6900573805286
380,856.6633046989334
381,856.6390831550959
382,856.6178518018072
383,856.6000238323609
384,856.5859585967505
385,856.5759542968872
386,856.5702416410105
387,856.5689787517606
388,856.572247568331
389,856.5800519094166
390,856.5923173331797
391,856.6088929592106
392,856.62955544995
393,856.6540153059117
394,856.681925467932
395,856.7128919701667
396,856.7464861417944
397,856.7822577036047
398,856.8197480780955
399,856.8585033067554
400,856.8980861002894
401,856.9380866785208
402,856.9781321436371
403,857.0178941744667
404,857.0570948599579
405,857.0955105191022
406,857.132973357324
407,857.1693707684498
408,857.20464205753
409,857.2387724380229
410,857.2717844246267
411,857.3037271594394
412,857.334664585068
413,857.364663509352
414,857.3937824735693
415,857.4220621006122
416,857.4495174026304
417,857.4761323785674
418,857.5018570683442
419,857.5266070140744
420,857.5502648495586
421,857.5726835975005
422,857.5936912703963
423,857.6130965115125
424,857.6306951505026
425,857.6462775673322
426,857.6596366732995
427,857.6705762679951
428,857.6789196030379
429,857.684518103809
430,857.6872602530057
431,857.6870806112182
432,857.6839688910163
433,857.6779789183521
434,857.6692371734727
435,857.6579504046765
436,857.6444116200189
437,857.6290036861011
438,857.6121998698782
439,857.5945609187266
440,857.5767285639334
441,857.5594155614648
442,857.5433925698147
443,857.5294723537927
444,857.5184919608885
445,857.5112935511596
446,857.5087044262054
447,857.5115165681555
448,857.5204658149572
449,857.5362107714232
450,857.5593117008639
451,857.5902099243003
452,857.629208581554
453,857.6764558122924
454,857.7319313665988
455,857.7954373954375
456,857.8665938694876
457,857.944838886476
458,858.0294340896434
459,858.119475414271
460,858.213909225028
461,858.3115535462533
462,858.411123648615
463,858.5112609214747
464,858.61056381955
465,858.7076197082358
466,858.801036575152
467,858.889473731916
468,858.9716707224061
469,859.0464736878299
470,859.1128584967557
471,859.1699500820919
472,859.2170375909277
473,859.253585083195
474,859.2792376424529
475,859.2938229655731
476,859.2973487551725
477,859.2899964129568
478,859.2721115281641
479,859.244191533282
480,859.2068708110046
481,859.160903569454
482,859.1071449237863
483,859.0465307490424
484,858.9800569237415
485,858.9087584998932
486,858.833689109595
487,858.755900668932
488,858.6764233361868
489,858.5962457847173
490,858.5162960748844
491,858.4374236392857
492,858.3603830537398
493,858.285820295267
494,858.2142620970242
495,858.1461088885403
496,858.0816317155062
497,858.020973448208
498,857.9641544813073
499,857.911082968982
500,857.8615693956267
501,857.815344977659
502,857.7720831008187
503,857.7314227610309
504,857.6929927945582
505,857.6564355671284
506,857.6214287756461
507,857.5877041269209
508,857.555061899529
509,857.5233807326925
510,857.492622341705
511,857.4628311500751
512,857.4341290271725
513,857.40670547748
514,857.380803821733
515,857.3567041563081
516,857.3347040921649
517,857.315098361548
518,857.2981583328337
519,857.2841123564839
520,857.2731277377022
521,857.2652950400812
522,857.2606153996816
523,857.2589915332516
524,857.2602230568165
525,857.264006511655
526,857.2699401407101
527,857.277533102817
528,857.2862186061006
529,857.2953703889384
530,857.3043219437859
531,857.3123877998923
532,857.3188861201518
533,857.3231618589314
534,857.3246096945616
535,857.3226958290775
536,857.3169776051441
537,857.3071198737272
538,857.2929072417011
539,857.2742516760445
540,857.2511953106704
541,857.2239086378271
542,857.1926845887823
543,857.15792928499
544,857.1201503607324
545,857.0799436494544
546,857.037978733995
547,856.9949835319718
548,856.9517278894683
549,856.9090061655029
550,856.8676189520087
551,856.8283542817443
552,856.7919688513847
553,856.75916988735
554,856.7305982868702
555,856.7068135975811
556,856.6882813412356
557,856.6753632145087
558,856.6683107422593
559,856.6672628384856
560,856.6722473830886
561,856.6831864961861
562,856.6999048887226
563,856.7221405715898
564,856.7495572785344
565,856.7817581134542
566,856.8183000658545
567,856.858709078237
568,856.9024953029384
569,856.9491680942778
570,856.9982501813229
571,857.0492904232029
572,857.1018746314389
573,857.1556341386811
574,857.210252022506
575,857.2654670940796
576,857.3210758938923
577,857.3769329616499
578,857.4329495583745
579,857.4890908678643
580,857.545371561829
581,857.6018495116689
582,857.6586173926703
583,857.7157920171878
584,857.7735015033858
585,857.831870777103
586,857.8910062660993
587,857.9509808343097
588,858.01181995286
589,858.0734898668051
590,858.1358882440912
591,858.1988376137675
592,858.2620818058573
593,858.3252855173905
594,858.3880370346687
595,858.4498540709718
596,858.510192604153
597,858.5684584827377
598,858.6240214626881
599,858.6762313070315
600,858.7244356020883
601,858.767998936076
602,858.8063229790209
603,858.8388667661441
604,858.8651662002724
605,858.8848516573318
606,858.8976627441479
607,858.9034596168729
608,858.9022305737983
609,858.8940957567071
610,858.879306809704
611,858.858242402471
612,858.8313996834123
613,858.7993819270332
614,858.7628827843757
615,858.7226676190344
616,858.6795524957221
617,858.6343815324846
618,858.5880034629874
619,858.5412483049762
620,858.4949050118796
621,858.4497009377958
622,858.4062838559453
623,858.3652071030215
624,858.326918180278
625,858.291750857048
626,858.2599205362234
627,858.231522432643
628,858.2065320887112
629,858.184807943113
630,858.1660959668928
631,858.1500365835788
632,858.1361740579579
633,858.1239683002523
634,858.1128087455514
635,858.102029791008
636,858.0909272630034
637,858.0787754832382
638,858.0648445984989
639,858.048417871346
640,858.0288086055922
641,858.0053763228867
642,857.977541722057
643,857.9447998731752
644,857.9067310945472
645,857.8630090780865
646,857.8134060258681
647,857.7577947454633
648,857.6961477788121
649,857.6285337455256
650,857.5551112040882
651,857.4761204427398
652,857.3918736541242
653,857.3027439282542
654,857.2091534766706
655,857.1115615332996
656,857.010452456219
657,856.9063245995555
658,856.7996804615057
659,856.6910184462222
660,856.580826357299
661,856.4695765147068
662,856.357722205855
663,856.2456951083906
664,856.1339033538117
665,856.0227299351747
666,855.9125311338844
667,855.8036346228287
668,855.6963369866041
669,855.5909005469302
670,855.4875494889679
671,855.3864653284447
672,855.2877818155395
673,855.1915795168611
674,855.0978805504968
675,855.0066441903476
676,854.9177641866495
677,854.8310685729018
678,854.7463224552937
679,854.663233952234
680,854.5814632177589
681,854.5006343519119
682,854.4203498793103
683,854.3402073092659
684,854.2598170922819
685,854.1788210960897
686,854.0969106063269
687,854.0138428872108
688,853.9294555010808
689,853.8436777766166
690,853.7565389706797
691,853.6681728251817
692,853.5788184155439
693,853.4888173673378
694,853.3986075862198
695,853.3087135929212
696,853.2197335060562
697,853.1323228187247
698,853.0471753797827
699,852.9650022864674
700,852.8865095935834
701,852.8123758146642
702,852.7432301749426
703,852.6796325368138
704,852.6220558931436
705,852.5708722729125
706,852.5263427339125
707,852.4886118173062
708,852.4577065368798
709,852.4335397927094
710,852.4159180098532
711,852.4045526991652
712,852.3990754574809
713,852.3990556868026
714,852.4040200886478
715,852.4134728669926
716,852.4269155960862
717,852.4438658356694
718,852.4638736926418
719,852.4865355611616
720,852.5115043087511
721,852.5384953891424
722,852.5672887853884
723,852.5977271413637
724,852.6297107324453
725,852.66319003008
726,852.69815663748
727,852.7346333954214
728,852.7726644557287
729,852.8123060472442
730,852.8536185189838
731,852.8966600671004
732,852.9414823445069
733,852.9881279182407
734,853.0366293256071
735,853.0870093639912
736,853.1392822561479
737,853.1934554031548
738,853.2495315151132
739,853.3075109980798
740,853.3673945697348
741,853.4291861193751
742,853.4928957828548
743,853.5585431117463
744,853.6261601513952
745,853.6957942350435
746,853.7675103227909
747,853.8413927325694
748,853.9175461522682
749,853.9960959317209
750,854.0771877785628
751,854.1609869865424
752,854.2476771493909
753,854.3374580770868
754,854.4305425287216
755,854.5271514815637
756,854.6275078797923
757,854.7318290295606
758,854.8403179710283
759,854.9531542467745
760,855.070484518865
761,855.192413514673
762,855.3189958342391
763,855.4502292013339
764,855.5860497329869
765,855.7263297189867
766,855.8708782600323
767,856.0194449113318
768,856.171726207287
769,856.3273746429165
770,856.4860094461958
771,856.647228354106
772,856.8106196114992
773,856.9757735162175
774,857.1422929586633
775,857.3098024520386
776,857.4779551168133
777,857.6464370828805
778,857.8149688923023
779,857.9833036943692
780,858.1512222680338
781,858.3185251977392
782,858.4850228868313
783,858.6505244370627
784,858.8148265888755
785,858.977703798708
786,859.1389001868912
787,859.2981237161594
788,859.4550427381942
789,859.609285004454
790,859.7604392563223
791,859.9080594643517
792,860.0516716688089
793,860.1907832569891
794,860.3248944579481
795,860.4535118378285
796,860.5761635595981
797,860.6924160246102
798,860.8018912088947
799,860.9042836445437
800,860.9993757502986
801,861.0870502177243
802,861.1672984285015
803,861.2402243364003
804,861.3060437744186
805,861.3650795989432
806,861.4177533263233
807,861.4645739414254
808,861.5061244919002
809,861.5430470452764
810,861.5760265765293
811,861.6057743065687
812,861.6330109178645
813,861.6584500114711
814,861.6827821979766
815,861.7066602699584
816,861.7306858829045
817,861.7553980562576
818,861.7812636467339
819,861.8086698073124
820,861.8379183950325
821,861.8692223741244
822,861.9027044518328
823,861.9383983682033
824,861.9762533043818
825,862.016141746416
826,862.0578709301693
827,862.1011977474614
828,862.1458466380831
829,862.1915294890701
830,862.2379660808419
831,862.2849033961759
832,862.3321321908006
833,862.3794994908089
834,862.4269160419591
835,862.4743581827497
836,862.5218641281961
837,862.569525166237
838,862.6174726957059
839,862.6658622952706
840,862.714856088031
841,862.7646046297687
842,862.8152294914141
843,862.8668076307598
844,862.9193584865692
845,862.9728344617542
846,863.0271151623941
847,863.082005487762
848,863.1372374032084
849,863.1924749472051
850,863.2473218029908
851,863.3013307332699
852,863.3540143363145
853,863.4048567656338
854,863.4533261114733
855,863.498887086104
856,863.5410135842915
857,863.5792006537953
858,863.612975412527
859,863.6419065011675
860,863.6656117687797
861,863.6837640278075
862,863.6960948529041
863,863.7023965404179
864,863.7025225044089
865,863.6963865199691
866,863.683961265906
867,863.6652765565946
868,863.6404175477337
869,863.6095231070201
870,863.572784459142
871,863.5304441215619
872,863.4827950527756
873,863.430179887004
874,863.3729901383399
875,863.3116652469713
876,863.2466912325253
877,863.1785985414914
878,863.107958565072
879,863.0353784095856
880,862.9614938165573
881,862.8869604329778
882,862.8124436983833
883,862.7386074769341
884,862.6661014667496
885,862.5955475346165
886,862.527525391807
887,862.462558283116
888,862.4010995043967
889,862.3435205754295
890,862.2901017953692
891,862.2410257346584
892,862.1963740141448
893,862.1561275154933
894,862.1201699413366
895,862.0882943721091
896,862.0602121869663
897,862.0355635361216
898,862.0139285491371
899,861.9948386109799
900,861.9777872386129
901,861.9622402754451
902,861.9476452976462
903,861.9334403218019
904,861.9190620620011
905,861.9039540058128
906,861.8875744755159
907,861.8694047609445
908,861.8489574511394
909,861.8257851821761
910,861.7994900266439
911,861.7697336264024
912,861.7362479366278
913,861.6988461482698
914,861.6574330679531
915,861.6120140617801
916,861.5627016539959
917,861.5097189810638
918,861.4533994990007
