frame_number,force
0,859.3401574149424
1,859.2762938576581
2,859.2129182636735
3,859.1501236944124
4,859.0879983581783
5,859.0266254572796
6,858.9660830605513
7,858.9064440010036
8,858.8477757982648
9,858.790140605408
10,858.7335951796645
11,858.678190876479
12,858.6239736663038
13,858.5709841734692
14,858.5192577364276
15,858.4688244886504
16,858.4197094594174
17,858.3719326936533
18,858.3255093898949
19,858.2804500554386
20,858.2367606777444
21,858.1944429111886
22,858.1534942782278
23,858.1139083839951
24,858.0756751433031
25,858.0387810190189
26,858.0032092708537
27,857.9689402137549
28,857.9359514852327
29,857.9042183209664
30,857.8737138377368
31,857.8444093221517
32,857.8162745229595
33,857.789277944331
34,857.7633871374431
35,857.7385689878583
36,857.7147899963447
37,857.6920165508484
38,857.6702151874782
39,857.6493528386598
40,857.6293970670047
41,857.6103162838622
42,857.5920799519031
43,857.5746587713768
44,857.5580248499218
45,857.5421518560386
46,857.5270151565118
47,857.5125919381131
48,857.4988613138297
49,857.4858044137845
50,857.4734044610292
51,857.4616468324385
52,857.4505191048859
53,857.4400110866496
54,857.4301148336388
55,857.4208246497099
56,857.4121370702168
57,857.404050827982
58,857.3965668011108
59,857.3896879425615
60,857.3834191921449
61,857.3777673723797
62,857.3727410700732
63,857.3683505056205
64,857.3646073920563
65,857.3615247859701
66,857.3591169324843
67,857.3573991065012
68,857.3563874523381
69,857.3560988236812
70,857.3565506254976
71,857.3577606591953
72,857.3597469720236
73,857.362527711555
74,857.3661209861122
75,857.3705447320702
76,857.3758165889394
77,857.3819537829867
78,857.3889730199683
79,857.3968903873965
80,857.4057212667562
81,857.4154802561325
82,857.4261811036787
83,857.4378366521438
84,857.4504587943109
85,857.4640584387994
86,857.4786454853248
87,857.4942288081882
88,857.510816246429
89,857.5284145987714
90,857.5470296213136
91,857.5666660258119
92,857.5873274762977
93,857.6090165817604
94,857.631734882932
95,857.6554828319064
96,857.6802597641935
97,857.7060638635297
98,857.732892120265
99,857.7607402845111
100,857.7896028155112
101,857.819472828788
102,857.8503420425023
103,857.8822007241812
104,857.9150376387284
105,857.9488399985524
106,857.9835934167144
107,858.0192818641235
108,858.055887631799
109,858.0933912990217
110,858.1317717078983
111,858.1710059446223
112,858.211069327545
113,858.2519354019905
114,858.2935759415813
115,858.3359609557988
116,858.3790587036419
117,858.4228357135094
118,858.4672568096788
119,858.5122851459166
120,858.5578822468559
121,858.6040080578563
122,858.6506210040047
123,858.6976780586423
124,858.7451348213941
125,858.7929456054278
126,858.8410635337046
127,858.8894406442189
128,858.938028004352
129,858.9867758343537
130,859.0356336396269
131,859.0845503510762
132,859.1334744723765
133,859.1823542326455
134,859.2311377427192
135,859.2797731530909
136,859.3282088116838
137,859.3763934199728
138,859.4242761864755
139,859.471806977237
140,859.5189364635394
141,859.5656162674655
142,859.611799105885
143,859.6574389329492
144,859.7024910806654
145,859.7469123968469
146,859.7906613796541
147,859.833698307798
148,859.8759853652479
149,859.9174867591125
150,859.9581688293588
151,859.9980001491571
152,860.0369516149327
153,860.0749965256811
154,860.1121106516339
155,860.1482722926585
156,860.1834623267422
157,860.2176642487228
158,860.250864199305
159,860.2830509843768
160,860.3142160845819
161,860.3443536549242
162,860.3734605139949
163,860.4015361223869
164,860.4285825500465
165,860.4546044325691
166,860.4796089165766
167,860.5036055942751
168,860.526606427104
169,860.5486256581403
170,860.569679712814
171,860.5897870876456
172,860.6089682270562
173,860.6272453885731
174,860.644642496881
175,860.6611849872996
176,860.6768996395494
177,860.6918144030477
178,860.7059582152934
179,860.7193608149597
180,860.7320525511362
181,860.7440641899254
182,860.7554267194888
183,860.7661711547257
184,860.7763283429631
185,860.7859287722074
186,860.7950023836128
187,860.8035783898265
188,860.8116851008105
189,860.819349758643
190,860.8265983827223
191,860.8334556266628
192,860.8399446480275
193,860.8460869919182
194,860.8519024893409
195,860.8574091710371
196,860.8626231970314
197,860.867558801625
198,860.872228253193
199,860.876641828072
200,860.8808077980535
201,860.8847324313989
202,860.8884200076441
203,860.8918728465745
204,860.8950913515813
205,860.8980740673248
206,860.9008177513767
207,860.9033174592462
208,860.9055666418874
209,860.9075572545034
210,860.9092798753722
211,860.9107238335804
212,860.9118773448378
213,860.9127276548054
214,860.9132611895074
215,860.9134637123891
216,860.9133204874857
217,860.9128164480586
218,860.9119363699361
219,860.9106650486291
220,860.9089874791295
221,860.9068890371757
222,860.9043556605102
223,860.9013740281806
224,860.8979317353627
225,860.8940174608344
226,860.8896211242093
227,860.8847340302043
228,860.8793489974578
229,860.8734604696997
230,860.867064607479
231,860.8601593590886
232,860.8527445097067
233,860.8448217081001
234,860.8363944705944
235,860.8274681624441
236,860.8180499571444
237,860.8081487745916
238,860.7977751992928
239,860.78694138002
240,860.7756609123498
241,860.7639487055254
242,860.7518208352207
243,860.7392943841332
244,860.7263872726822
245,860.7131180822162
246,860.6995058730344
247,860.685569999259
248,860.6713299221765
249,860.6568050231413
250,860.6420144166848
251,860.6269767643447
252,860.6117100899806
253,860.596231597845
254,860.5805574951848
255,860.5647028214344
256,860.548681285984
257,860.5325051161814
258,860.5161849168469
259,860.4997295423584
260,860.4831459822029
261,860.4664392606496
262,860.4496123508101
263,860.432666102991
264,860.4155991870801
265,860.3984080487609
266,860.3810868794927
267,860.3636276003414
268,860.3460198598813
269,860.3282510465684
270,860.3103063161838
271,860.2921686351135
272,860.2738188402715
273,860.2552357163319
274,860.2363960907012
275,860.2172749463847
276,860.1978455525593
277,860.1780796122324
278,860.1579474258793
279,860.1374180695352
280,860.1164595855785
281,860.0950391843937
282,860.0731234551232
283,860.0506785836726
284,860.0276705760388
285,860.0040654850128
286,859.9798296385792
287,859.9549298688328
288,859.929333740685
289,859.9030097797896
290,859.8759276990119
291,859.8480586225453
292,859.8193753065427
293,859.7898523549018
294,859.7594664286903
295,859.7281964477353
296,859.6960237830947
297,859.6629324393255
298,859.6289092254848
299,859.5939439137252
300,859.558029384325
301,859.521161756085
302,859.4833405010671
303,859.4445685425694
304,859.4048523351335
305,859.3642019254597
306,859.3226309933688
307,859.2801568721887
308,859.2368005479963
309,859.1925866370275
310,859.1475433405787
311,859.1017023770245
312,859.0550988911698
313,859.0077713417554
314,858.9597613682427
315,858.9111136379502
316,858.8618756743939
317,858.8120976676115
318,858.7618322673989
319,858.7111343606757
320,858.6600608345857
321,858.6086703275031
322,858.5570229708297
323,858.5051801250287
324,858.4532041135228
325,858.401157957858
326,858.3491051171067
327,858.2971092340326
328,858.2452338900686
329,858.1935423706161
330,858.1420974416367
331,858.0909611380424
332,858.0401945640799
333,857.9898577057243
334,857.9400092550169
335,857.8907064462549
336,857.8420049039478
337,857.7939585025061
338,857.7466192376977
339,857.7000371098857
340,857.6542600188861
341,857.6093336700343
342,857.5653014909379
343,857.5222045584852
344,857.480081535875
345,857.4389686196328
346,857.3988994966772
347,857.3599053115311
348,857.3220146437886
349,857.2852534960354
350,857.2496452925893
351,857.21521088971
352,857.1819685981897
353,857.1499342193997
354,857.1191210957796
355,857.0895401763728
356,857.0612000972535
357,857.034107275653
358,857.0082660154895
359,856.9836786211555
360,856.9603455160515
361,856.9382653624984
362,856.9174351801615
363,856.8978504607672
364,856.8795052775279
365,856.8623923881239
366,856.8465033302303
367,856.8318285085401
368,856.8183572723127
369,856.806077982808
370,856.7949780703763
371,856.7850440813112
372,856.7762617148597
373,856.7686158511651
374,856.7620905713462
375,856.7566691713165
376,856.7523341712971
377,856.749067323304
378,856.7468496189924
379,856.745661299871
380,856.7454818710639
381,856.7462901189546
382,856.7480641326786
383,856.7507813296328
384,856.7544184855975
385,856.7589517703992
386,856.7643567901566
387,856.7706086370725
388,856.7776819475239
389,856.7855509689357
390,856.7941896357445
391,856.8035716546636
392,856.8136705993859
393,856.8244600146396
394,856.8359135290805
395,856.8480049759036
396,856.8607085194853
397,856.873998785965
398,856.8878509955205
399,856.9022410941405
400,856.9171458828584
401,856.9325431425927
402,856.9484117528535
403,856.964731802622
404,856.9814846917573
405,856.9986532213401
406,857.0162216713887
407,857.0341758643402
408,857.0525032126853
409,857.0711927493512
410,857.0902351400025
411,857.1096226772919
412,857.1293492578898
413,857.1494103434802
414,857.1698029067906
415,857.1905253634235
416,857.2115774900359
417,857.2329603292814
418,857.2546760817921
419,857.2767279852312
420,857.2991201801902
421,857.3218575626137
422,857.3449456226325
423,857.3683902701232
424,857.3921976477336
425,857.4163739323282
426,857.4409251258177
427,857.4658568364177
428,857.4911740516753
429,857.5168809049846
430,857.5429804375581
431,857.5694743579079
432,857.5963628009144
433,857.623644088515
434,857.6513144938885
435,857.679368010722
436,857.7077961288533
437,857.7365876174862
438,857.7657283173769
439,857.7952009438527
440,857.8249849030148
441,857.8550561238219
442,857.8853869089892
443,857.9159458078423
444,857.9466975143872
445,857.9776027937174
446,858.0086184393888
447,858.0396972636948
448,858.0707881221427
449,858.1018359730521
450,858.1327819731305
451,858.1635636100342
452,858.1941148731464
453,858.2243664637977
454,858.2542460456668
455,858.2836785352315
456,858.3125864311928
457,858.3408901810768
458,858.3685085827874
459,858.3953592185427
460,858.4213589180357
461,858.4464242467258
462,858.4704720141273
463,858.4934197961536
464,858.5151864651762
465,858.5356927214327
466,858.5548616196422
467,858.5726190849854
468,858.5888944128462
469,858.6036207468882
470,858.6167355303171
471,858.6281809256469
472,858.6379041988454
473,858.6458580642831
474,858.652000987486
475,858.6562974434318
476,858.6587181290067
477,858.6592401289764
478,858.6578470352432
479,858.6545290193783
480,858.6492828586914
481,858.6421119165932
482,858.6330260786501
483,858.6220416463713
484,858.6091811912509
485,858.5944733717902
486,858.5779527161347
487,858.5596593727938
488,858.5396388319757
489,858.5179416204755
490,858.4946229736456
491,858.4697424885422
492,858.4433637627233
493,858.4155540232866
494,858.386383750584
495,858.3559263008001
496,858.3242575313625
497,858.2914554328958
498,858.2575997711294
499,858.2227717417265
500,858.1870536403895
501,858.1505285498521
502,858.1132800446243
503,858.0753919137119
504,858.0369479009714
505,857.9980314623158
506,857.9587255387211
507,857.919112343954
508,857.8792731661449
509,857.8392881827214
510,857.799236288639
511,857.7591949381527
512,857.7192400005148
513,857.679445630055
514,857.6398841512453
515,857.6006259596014
516,857.5617394394719
517,857.5232908997343
518,857.4853445281559
519,857.4479623647882
520,857.4112042943724
521,857.3751280574226
522,857.3397892794778
523,857.3052415179133
524,857.2715363254766
525,857.23872332924
526,857.20685032295
527,857.1759633700736
528,857.146106914447
529,857.1173238953575
530,857.0896558638722
531,857.0631430971498
532,857.0378247074577
533,857.0137387427228
534,856.9909222755349
535,856.9694114774641
536,856.9492416754875
537,856.930447387501
538,856.9130623344803
539,856.8971194277425
540,856.8826507306887
541,856.8696873952899
542,856.8582595744292
543,856.8483963119867
544,856.8401254130247
545,856.8334732964709
546,856.8284648323889
547,856.825123165532
548,856.8234695266991
549,856.8235230336024
550,856.8253004833942
551,856.8288161395066
552,856.8340815158625
553,856.8411051617642
554,856.8498924508033
555,856.8604453770109
556,856.8727623613279
557,856.8868380714755
558,856.9026632583
559,856.9202246113407
560,856.9395046356037
561,856.9604815505946
562,856.9831292119406
563,857.0074170555878
564,857.0333100645039
565,857.0607687579187
566,857.089749203182
567,857.1202030502023
568,857.1520775881415
569,857.1853158236868
570,857.2198565798453
571,857.255634613946
572,857.2925807535116
573,857.3306220488661
574,857.369681941605
575,857.4096804482892
576,857.4505343588304
577,857.4921574489658
578,857.5344607059396
579,857.5773525661322
580,857.6207391630213
581,857.6645245835964
582,857.7086111312045
583,857.7528995929138
584,857.7972895099242
585,857.8416794502352
586,857.8859672834122
587,857.930050457614
588,857.9738262789366
589,858.0171921926815
590,858.0600460656577
591,858.1022864683154
592,858.1438129553525
593,858.1845263433243
594,858.2243289836576
595,858.2631250294114
596,858.3008206940685
597,858.3373245005317
598,858.3725475184093
599,858.4064035877533
600,858.4388095275966
601,858.4696853277815
602,858.4989543225474
603,858.5265433440956
604,858.552382854013
605,858.576407050405
606,858.5985539490979
607,858.6187654381505
608,858.6369873056931
609,858.6531692415417
610,858.6672648132719
611,858.6792314177333
612,858.6890302094639
613,858.6966260079922
614,858.7019871864239
615,858.7050855439744
616,858.7058961653545
617,858.7043972702573
618,858.7005700564828
619,858.6943985403392
620,858.6858693979116
621,858.6749718106463
622,858.6616973184665
623,858.6460396832099
624,858.6279947646109
625,858.6075604103652
626,858.5847363611143
627,858.5595241706152
628,858.5319271410949
629,858.5019502739372
630,858.4696002361741
631,858.434885343404
632,858.3978155594765
633,858.35840251263
634,858.3166595270303
635,858.272601668135
636,858.2262458001129
637,858.1776106535611
638,858.1267169018058
639,858.0735872440088
640,858.018246493172
641,857.9607216669513
642,857.9010420789942
643,857.8392394283552
644,857.7753478845327
645,857.7094041659262
646,857.6414476099204
647,857.5715202332218
648,857.4996667813908
649,857.4259347668191
650,857.350374494736
651,857.2730390771637
652,857.1939844349455
653,857.1132692880782
654,857.0309551346764
655,856.9471062190979
656,856.8617894900374
657,856.7750745496114
658,856.6870335944596
659,856.5977413496929
660,856.5072749962139
661,856.4157140916097
662,856.323140484558
663,856.2296382226192
664,856.1352934533974
665,856.0401943191528
666,855.9444308449202
667,855.8480948201676
668,855.7512796741813
669,855.6540803456312
670,855.5565931469375
671,855.4589156241203
672,855.3611464128787
673,855.2633850918694
674,855.1657320345405
675,855.0682882612767
676,854.9711552937962
677,854.8744350135564
678,854.7782295253717
679,854.6826410268001
680,854.5877716833863
681,854.4937235095784
682,854.40059825489
683,854.3084972945593
684,854.2175215235812
685,854.1277712526437
686,854.0393461042908
687,853.9523449077144
688,853.8668655909058
689,853.7830050692846
690,853.7008591302498
691,853.6205223134195
692,853.5420877867373
693,853.4656472189868
694,853.3912906494263
695,853.319106355182
696,853.2491807169763
697,853.1815980839699
698,853.1164406389887
699,853.0537882659467
700,852.9937184216197
701,852.9363060140204
702,852.8816232895472
703,852.8297397309505
704,852.7807219680323
705,852.7346337028256
706,852.6915356505833
707,852.6514854972597
708,852.614537873495
709,852.5807443446683
710,852.5501534163076
711,852.5228105538421
712,852.4987582152436
713,852.4780358945669
714,852.4606801738947
715,852.4467247808848
716,852.4362006490913
717,852.429135978415
718,852.4255562932082
719,852.4254844956024
720,852.4289409116834
721,852.4359433285425
722,852.4465070210398
723,852.460644767995
724,852.4783668581173
725,852.4996810862496
726,852.5245927406224
727,852.5531045819532
728,852.5852168153207
729,852.6209270557284
730,852.6602302881279
731,852.7031188224686
732,852.74958224409
733,852.7996073594697
734,852.8531781370805
735,852.9102756430256
736,852.97087797127
737,853.0349601685441
738,853.1024941542639
739,853.1734486361013
740,853.2477890221224
741,853.3254773306068
742,853.4064720986694
743,853.4907282907432
744,853.5781972079292
745,853.6688263992901
746,853.762559576257
747,853.8593365313968
748,853.9590930629047
749,854.0617609063999
750,854.167267675841
751,854.2755368153704
752,854.3864875635453
753,854.5000349309288
754,854.6160896917685
755,854.734558390597
756,854.8553433649122
757,854.9783427853897
758,855.1034507152598
759,855.2305571904939
760,855.3595483223573
761,855.4903064237609
762,855.6227101607623
763,855.7566347304677
764,855.8919520663713
765,856.0285310718104
766,856.1662378817429
767,856.3049361524713
768,856.4444873782255
769,856.5847512327533
770,856.7255859334224
771,856.8668486249144
772,857.0083957794175
773,857.1500836102355
774,857.2917684958003
775,857.4333074110106
776,857.5745583626231
777,857.7153808253045
778,857.8556361750614
779,857.9951881170751
780,858.1339031053484
781,858.2716507520541
782,858.4083042251191
783,858.543740633194
784,858.6778413974858
785,858.8104926097409
786,858.9415853750883
787,859.0710161378373
788,859.1986869880097
789,859.3245059464246
790,859.4483872263277
791,859.5702514696313
792,859.6900259557871
793,859.8076447813028
794,859.9230490080233
795,860.0361867785361
796,860.1470133972766
797,860.2554913759026
798,860.36159044122
799,860.4652875035654
800,860.5665665833865
801,860.6654186940704
802,860.7618416798683
803,860.855840008913
804,860.9474245225932
805,861.0366121436721
806,861.1234255462665
807,861.2078927911116
808,861.2900469296593
809,861.3699255807186
810,861.4475704835284
811,861.5230270312449
812,861.5963437888004
813,861.6675719990936
814,861.7367650816134
815,861.8039781277548
816,861.8692673970801
817,861.9326898185498
818,861.9943025004247
819,862.0541622522146
820,862.1123251218634
821,862.1688459513935
822,862.223777954436
823,862.2771723192463
824,862.329077840698
825,862.3795405843015
826,862.4286035846908
827,862.4763065803277
828,862.5226857852795
829,862.567773697744
830,862.6115989438548
831,862.654186154624
832,862.6955558737732
833,862.7357244944363
834,862.7747042231225
835,862.8125030698953
836,862.8491248644252
837,862.8845692982725
838,862.91883199431
839,862.9519046044334
840,862.9837749366269
841,863.0144271121638
842,863.0438417534044
843,863.0719962023205
844,863.0988647693893
845,863.1244190118363
846,863.1486280394957
847,863.1714588459147
848,863.1928766617193
849,863.212845326637
850,863.2313276760797
851,863.2482859380742
852,863.2636821365804
853,863.2774784975658
854,863.2896378543217
855,863.300124048434
856,863.3089023227595
857,863.3159397027766
858,863.3212053627947
859,863.3246709737417
860,863.3263110296099
861,863.326103150075
862,863.324028357264
863,863.3200713251208
864,863.3142206003529
865,863.306468794432
866,863.2968127464586
867,863.2852536568406
868,863.2717971918179
869,863.256453558954
870,863.239237553834
871,863.2201685782971
872,863.1992706306116
873,863.1765722681527
874,863.1521065433906
875,863.1259109141924
876,863.0980271294353
877,863.0685010907749
878,863.0373826913609
879,863.0047256326142
880,862.9705872208629
881,862.9350281462744
882,862.8981122466876
883,862.8599062587143
884,862.8204795582988
885,862.7799038931049
886,862.7382531095377
887,862.6956028775918
888,862.652030416884
889,862.6076142271188
890,862.5624338259087
891,862.5165694963953
892,862.4701020465671
893,862.4231125816128
894,862.3756822900406
895,862.3278922436101
896,862.2798232104209
897,862.231555479982
898,862.1831686989124
899,862.1347417160258
900,862.0863524357795
901,862.0380776792673
902,861.9899930521517
903,861.9421728191901
904,861.894689785235
905,861.8476151825671
906,861.8010185642081
907,861.7549677027005
908,861.7095284939379
909,861.6647648658281
910,861.6207386916504
911,861.5775097078148
912,861.5351354353929
913,861.4936711043472
914,861.4531695789743
915,861.4136812828891
916,861.3752541219842
917,861.3379334041425
