frame_number,force
0,699.7911380079496
1,699.7035374356193
2,699.6161427591143
3,699.5291583888063
4,699.4427857844146
5,699.3572220297846
6,699.2726584662693
7,699.1892794016167
8,699.1072609088108
9,699.0267697263225
10,698.9479622682287
11,698.870983750166
12,698.795967435207
13,698.7230340021149
14,698.6522910368448
15,698.5838326468626
16,698.5177391970983
17,698.4540771659323
18,698.3928991189574
19,698.3342437969817
20,698.2781363131598
21,698.2245884528975
22,698.1735990693982
23,698.1251545670517
24,698.0792294641636
25,698.0357870262031
26,697.9947799611617
27,697.956151169536
28,697.9198345421847
29,697.8857557994904
30,697.8538333650532
31,697.8239792669629
32,697.7961000598319
33,697.7700977612161
34,697.7458707965233
35,697.7233149466872
36,697.7023242927486
37,697.682792151247
38,697.664611994154
39,697.6476783470536
40,697.6318876593327
41,697.6171391401385
42,697.6033355536232
43,697.590383966454
44,697.5781964399224
45,697.566690658812
46,697.5557904898219
47,697.545426463707
48,697.5355361772358
49,697.5260646133024
50,697.5169643794477
51,697.508195865847
52,697.4997273231934
53,697.4915348595133
54,697.4836023542417
55,697.4759212890121
56,697.4684904974446
57,697.4613158395543
58,697.454409809047
59,697.4477910830138
60,697.4414840233619
61,697.4355181381654
62,697.4299275097134
63,697.4247501948038
64,697.4200276019958
65,697.41580385018
66,697.4121251129045
67,697.4090389530752
68,697.4065936526871
69,697.4048375422627
70,697.4038183349777
71,697.4035824709622
72,697.4041744774512
73,697.4056363499924
74,697.4080069593779
75,697.4113214894609
76,697.4156109128552
77,697.4209015137784
78,697.4272144687709
79,697.4345654960144
80,697.4429645823569
81,697.4524157942465
82,697.4629171753521
83,697.4744607305738
84,697.487032493833
85,697.5006126751348
86,697.5151758804757
87,697.5306913963836
88,697.5471235298141
89,697.5644319941547
90,697.5825723329298
91,697.601496373659
92,697.6211527047233
93,697.6414871682156
94,697.6624433620171
95,697.6839631447799
96,697.7059871377118
97,697.728455216814
98,697.751306988879
99,697.7744822446233
100,697.7979213830075
101,697.8215658019745
102,697.8453582523678
103,697.8692431533369
104,697.893166868748
105,697.9170779449415
106,697.9409273109086
107,697.9646684427108
108,697.988257494581
109,698.0116533993737
110,698.0348179409679
111,698.0577158011641
112,698.0803145837488
113,698.1025848185261
114,698.124499947891
115,698.1460362977606
116,698.1671730336376
117,698.1878921017578
118,698.2081781552314
119,698.228018465927
120,698.2474028242053
121,698.2663234300552
122,698.2847747805098
123,698.3027535591145
124,698.3202585331534
125,698.3372904629774
126,698.3538520252798
127,698.3699477490869
128,698.3855839603495
129,698.4007687290729
130,698.4155118123037
131,698.4298245867423
132,698.4437199656818
133,698.457212296141
134,698.4703172335071
135,698.4830515927475
136,698.4954331770897
137,698.5074805868941
138,698.5192130131652
139,698.5306500213977
140,698.5418113317397
141,698.5527166007646
142,698.5633852091828
143,698.573836059311
144,698.5840873860108
145,698.5941565844942
146,698.6040600576057
147,698.6138130843942
148,698.6234297116089
149,698.6329226701122
150,698.6423033185723
151,698.651581616866
152,698.6607661312894
153,698.6698640728121
154,698.6788813681067
155,698.687822761098
156,698.696691940716
157,698.7054916888453
158,698.7142240415008
159,698.7228904563298
160,698.7314919805261
161,698.7400294143993
162,698.7485034662922
163,698.7569148940819
164,698.7652646277329
165,698.7735538670829
166,698.7817841495693
167,698.7899573840131
168,698.7980758488679
169,698.8061421562379
170,698.8141591857277
171,698.8221299940835
172,698.8300577074847
173,698.837945403608
174,698.8457959904115
175,698.8536120877864
176,698.8613959168105
177,698.8691491998161
178,698.8768730734563
179,698.8845680165399
180,698.8922337943054
181,698.8998694205917
182,698.9074731387262
183,698.9150424209441
184,698.9225739852793
185,698.9300638285661
186,698.937507274165
187,698.9448990326649
188,698.9522332731115
189,698.9595037019163
190,698.9667036468621
191,698.9738261443259
192,698.9808640285357
193,698.9878100218726
194,698.994656824687
195,699.0013972022464
196,699.0080240662583
197,699.0145305494711
198,699.0209100737947
199,699.0271564142402
200,699.0332637621376
201,699.0392267915571
202,699.045040732787
203,699.0507014559387
204,699.0562055661403
205,699.0615505096566
206,699.0667346883029
207,699.0717575784487
208,699.0766198509592
209,699.0813234891135
210,699.0858719022524
211,699.0902700335654
212,699.0945244611901
213,699.0986434925616
214,699.1026372524962
215,699.1065177658244
216,699.1102990355364
217,699.1139971173178
218,699.1176301910094
219,699.1212186288736
220,699.1247850593933
221,699.1283544235979
222,699.1319540191223
223,699.1356135262747
224,699.1393650107539
225,699.1432428988116
226,699.1472839219598
227,699.1515270296633
228,699.1560132700602
229,699.1607856402483
230,699.1658889082101
231,699.1713694078101
232,699.1772748074857
233,699.1836538533212
234,699.1905560880571
235,699.1980315485026
236,699.2061304444143
237,699.2149028224861
238,699.2243982198394
239,699.2346653119636
240,699.2457515601668
241,699.2577028633494
242,699.270563218511
243,699.2843743938369
244,699.2991756173514
245,699.3150032829253
246,699.3318906741293
247,699.3498677056413
248,699.3689606820836
249,699.3891920750035
250,699.4105803194012
251,699.4331396312527
252,699.4568798469948
253,699.481806285425
254,699.507919632443
255,699.5352158498104
256,699.5636861103994
257,699.5933167634425
258,699.6240893334193
259,699.6559805554649
260,699.6889624491671
261,699.723002431637
262,699.7580634695856
263,699.7941042686818
264,699.831079497021
265,699.8689400383261
266,699.9076332695548
267,699.9471033570596
268,699.9872915657248
269,700.0281365766864
270,700.0695748109728
271,700.1115407581722
272,700.1539673105748
273,700.1967861039566
274,700.2399278665697
275,700.2833227784325
276,700.3269008436491
277,700.3705922788635
278,700.4143279208599
279,700.4580396555419
280,700.5016608686459
281,700.5451269154935
282,700.5883756035013
283,700.6313476779544
284,700.673987299382
285,700.716242500193
286,700.7580656091747
287,700.7994136346226
288,700.840248599491
289,700.8805378243783
290,700.920254156002
291,700.959376139864
292,700.997888136271
293,701.0357803795225
294,701.073048981456
295,701.1096958821855
296,701.145728752006
297,701.1811608487981
298,701.2160108350093
299,701.2503025575502
300,701.2840647930536
301,701.3173309603759
302,701.350138802021
303,701.3825300360447
304,701.4145499798108
305,701.4462471469784
306,701.4776728195066
307,701.5088805970586
308,701.5399259266435
309,701.5708656153768
310,701.6017573287736
311,701.632659076122
312,701.6636286836401
313,701.6947232557787
314,701.7259986254343
315,701.7575087950048
316,701.7893053719297
317,701.8214370041165
318,701.8539488218773
319,701.8868818934419
320,701.9202727012189
321,701.9541526461475
322,701.9885475875903
323,702.023477426036
324,702.0589557354904
325,702.0949894517896
326,702.1315786219257
327,702.1687162178974
328,702.2063880169416
329,702.2445725481367
330,702.2832411030348
331,702.32235780551
332,702.3618797343892
333,702.4017570921548
334,702.441933413863
335,702.482345811717
336,702.5229252515909
337,702.5635968576041
338,702.60428023987
339,702.6448898396715
340,702.6853352860813
341,702.7255217584645
342,702.7653503500568
343,702.8047184284954
344,702.8435199896454
345,702.8816460018628
346,702.9189847394377
347,702.9554221061543
348,702.9908419520706
349,703.025126388328
350,703.0581561059033
351,703.0898107048316
352,703.1199690406995
353,703.1485095950505
354,703.1753108754333
355,703.2002518489795
356,703.2232124107989
357,703.2440738856033
358,703.2627195584176
359,703.2790352283629
360,703.2929097784319
361,703.304235753923
362,703.3129099426642
363,703.3188339511483
364,703.3219147718748
365,703.3220653381027
366,703.3192050624755
367,703.3132603556629
368,703.3041651209002
369,703.2918612204438
370,703.2762989101
371,703.2574372375219
372,703.2352443991169
373,703.2096980501617
374,703.1807855637309
375,703.1485042357533
376,703.1128614348426
377,703.0738746959915
378,703.0315717569476
379,702.9859905355606
380,702.9371790462193
381,702.8851952540257
382,702.8301068665689
383,702.7719910647962
384,702.7109341763272
385,702.6470312964001
386,702.5803858631268
387,702.5111091944808
388,702.4393199943901
389,702.365143834849
390,702.2887126204599
391,702.2101640410756
392,702.1296410167707
393,702.0472911373605
394,701.9632660971351
395,701.8777211254979
396,701.7908144159542
397,701.7027065581581
398,701.6135599788291
399,701.5235383968705
400,701.4328062970828
401,701.3415284264855
402,701.2498693172524
403,701.1579928399309
404,701.0660617898588
405,700.9742375091686
406,700.8826795469205
407,700.7915453602861
408,700.7009900593451
409,700.6111661963927
410,700.5222235978896
411,700.4343092343578
412,700.3475671218066
413,700.2621382479849
414,700.1781605172049
415,700.0957687078504
416,700.015094436795
417,699.9362661252302
418,699.8594089611456
419,699.7846448547716
420,699.7120923845195
421,699.6418667322679
422,699.5740796081399
423,699.5088391659992
424,699.4462499114852
425,699.3864126040334
426,699.3294241528243
427,699.2753775046668
428,699.2243615206919
429,699.1764608389275
430,699.1317557205966
431,699.0903218785251
432,699.0522302863444
433,699.0175469674949
434,698.9863327632667
435,698.9586430791612
436,698.9345276089784
437,698.9140300365772
438,698.8971877162853
439,698.8840313342694
440,698.8745845544519
441,698.8688636533158
442,698.866877148061
443,698.8686254225413
444,698.8741003556415
445,698.8832849571918
446,698.896153016946
447,698.9126687725452
448,698.9327866028203
449,698.9564507534294
450,698.9835951028479
451,699.0141429778927
452,699.0480070286312
453,699.0850891721309
454,699.125280613039
455,699.1684619468828
456,699.2145033497221
457,699.2632648557881
458,699.3145967232583
459,699.3683398871804
460,699.4243264973138
461,699.4823805372049
462,699.5423185193614
463,699.6039502499943
464,699.6670796553002
465,699.7315056597971
466,699.7970231062347
467,699.8634237064341
468,699.9304970129738
469,699.9980314024291
470,700.0658150615877
471,700.1336369687945
472,700.2012878633291
473,700.268561196353
474,700.3352540575042
475,700.4011680716768
476,700.4661102607528
477,700.5298938652846
478,700.5923391216785
479,700.6532739912919
480,700.7125348389063
481,700.7699670592651
482,700.8254256515836
483,700.8787757427231
484,700.9298930599132
485,700.9786643535609
486,701.0249877698078
487,701.068773171095
488,701.1099424013483
489,701.1484294910338
490,701.1841807967508
491,701.2171550703822
492,701.247323453808
493,701.2746693962102
494,701.299188491512
495,701.3208882333713
496,701.339787684895
497,701.3559170606125
498,701.3693172197802
499,701.3800390728337
500,701.3881429062626
501,701.3936976344137
502,701.3967799888314
503,701.3974736567495
504,701.3958683810862
505,701.3920590353894
506,701.3861446883677
507,701.3782276729987
508,701.3684126738721
509,701.3568058434114
510,701.3435139541153
511,701.3286435915084
512,701.3123003917984
513,701.2945883288342
514,701.2756090560051
515,701.2554613098165
516,701.2342403827838
517,701.2120376735334
518,701.1889403207052
519,701.165030924325
520,701.1403873548829
521,701.1150826478101
522,701.0891849795255
523,701.0627577199259
524,701.0358595546569
525,701.0085446691085
526,700.9808629853969
527,700.9528604437135
528,700.924579319966
529,700.8960585721966
530,700.8673342089327
531,700.8384396737824
532,700.8094062421517
533,700.7802634274452
534,700.7510393949404
535,700.7217613814022
536,700.6924561176007
537,700.6631502497804
538,700.6338707553388
539,700.6046453475493
540,700.5755028638009
541,700.5464736314616
542,700.5175898053681
543,700.4888856712764
544,700.4603979101931
545,700.4321658190341
546,700.4042314834102
547,700.376639898483
548,700.3494390338213
549,700.322679838343
550,700.2964161822755
551,700.2707047347473
552,700.2456047775914
553,700.2211779575459
554,700.197487979918
555,700.1746002469711
556,700.1525814440721
557,700.1314990765306
558,700.1114209605588
559,700.0924146729477
560,700.0745469653929
561,700.0578831502692
562,700.042486464895
563,700.0284174213375
564,700.0157331489667
565,700.0044867371764
566,699.9947265857879
567,699.9864957706898
568,699.9798314322486
569,699.9747641936609
570,699.9713176155984
571,699.9695076926041
572,699.9693423962885
573,699.9708212706994
574,699.973935085993
575,699.9786655571954
576,699.9849851349886
577,699.9928568748765
578,700.0022343897153
579,700.0130618886175
580,700.0252743029664
581,700.0387974980523
582,700.0535485671378
583,700.0694362042268
584,700.0863611524754
585,700.1042167262369
586,700.1228894052375
587,700.1422594989364
588,700.1622018777483
589,700.182586765735
590,700.203280587051
591,700.2241468563047
592,700.2450471014189
593,700.265841806967
594,700.2863913664704
595,700.3065570332994
596,700.3262018608991
597,700.345191623775
598,700.3633957111149
599,700.3806879850122
600,700.3969475949519
601,700.4120597399549
602,700.4259163701116
603,700.4384168200468
604,700.449468367478
605,700.4589867101843
606,700.4668963547181
607,700.4731309105229
608,700.4776332837681
609,700.4803557659787
610,700.4812600136632
611,700.4803169171303
612,700.477506359639
613,700.4728168713696
614,700.4662451855473
615,700.4577957060037
616,700.4474798968919
617,700.435315606747
618,700.4213263403211
619,700.4055404920333
620,700.3879905546034
621,700.3687123162688
622,700.3477440604747
623,700.3251257828944
624,700.3008984412111
625,700.2751032524067
626,700.2477810502664
627,700.2189717131702
628,700.1887136695861
629,700.1570434861806
630,700.12399554108
631,700.0896017825411
632,700.053891571241
633,700.0168916031456
634,699.9786259097959
635,699.939115933525
636,699.8983806757573
637,699.8564369165664
638,699.813299502955
639,699.768981702097
640,699.7234956145625
641,699.6768526418045
642,699.6290640019546
643,699.5801412876698
644,699.5300970588345
645,699.478945461531
646,699.4267028636002
647,699.3733884967663
648,699.319025095499
649,699.2636395231921
650,699.2072633766919
651,699.1499335606195
652,699.0916928231957
653,699.0325902455112
654,698.9726816765884
655,698.9120301072512
656,698.8507059765595
657,698.7887874051457
658,698.7263603501887
659,698.6635186773569
660,698.6003641462031
661,698.5370063071009
662,698.4735623094897
663,698.4101566224084
664,698.3469206686531
665,698.2839923735264
666,698.2215156289769
667,698.1596396748605
668,698.0985184010397
669,698.0383095759759
670,697.9791740082767
671,697.9212746473368
672,697.8647756288278
673,697.8098412712873
674,697.756635031527
675,697.7053184285975
676,697.6560499480544
677,697.6089839397367
678,697.564269522805
679,697.5220495115059
680,697.4824593744852
681,697.4456262399543
682,697.4116679587204
683,697.3806922365259
684,697.3527958457564
685,697.3280639247092
686,697.3065693711027
687,697.2883723356144
688,697.2735198205388
689,697.2620453876839
690,697.2539689780731
691,697.2492968438505
692,697.2480215905432
693,697.2501223263109
694,697.2555649141327
695,697.2643023223688
696,697.2762750682058
697,697.2914117471263
698,697.3096296400399
699,697.3308353882769
700,697.3549257253721
701,697.3817882535044
702,697.4113022518393
703,697.4433395041059
704,697.4777651333294
705,697.5144384322808
706,697.5532136788589
707,697.5939409267263
708,697.6364667632281
709,697.6806350286195
710,697.7262874928191
711,697.7732644887241
712,697.8214055046458
713,697.8705497415771
714,697.9205366422315
715,697.9712063976639
716,698.022400434842
717,698.0739618862015
718,698.1257360406706
719,698.1775707750056
720,698.2293169645742
721,698.2808288739393
722,698.3319645294497
723,698.3825860777771
724,698.4325601348845
725,698.4817581287153
726,698.5300566364871
727,698.5773377149011
728,698.623489219675
729,698.6684051099214
730,698.7119857328943
731,698.7541380849784
732,698.7947760450763
733,698.8338205766858
734,698.8711998952225
735,698.9068495979179
736,698.940712755211
737,698.9727399648172
738,699.0028893717819
739,699.0311266589315
740,699.0574250120854
741,699.0817650637334
742,699.1041348179208
743,699.1245295578366
744,699.1429517362805
745,699.1594108482217
746,699.1739232841783
747,699.1865121629745
748,699.1972071424278
749,699.2060442066825
750,699.213065429113
751,699.218318709769
752,699.2218574863277
753,699.223740417903
754,699.2240310418873
755,699.2227974047181
756,699.2201116676887
757,699.2160496891512
758,699.2106905850814
759,699.2041162705052
760,699.1964109840569
761,699.1876607971648
762,699.177953108768
763,699.1673761264348
764,699.1560183353414
765,699.1439679579945
766,699.1313124098623
767,699.1181377585832
768,699.1045281961347
769,699.0905655334608
770,699.0763287255086
771,699.0618934323337
772,699.0473316200354
773,699.0327112038692
774,699.0180957342519
775,699.003544124492
776,698.9891104178504
777,698.9748435915138
778,698.9607873959045
779,698.9469802289015
780,698.9334550457042
781,698.9202393057825
782,698.9073549581001
783,698.8948184646198
784,698.8826408607628
785,698.8708278508352
786,698.8593799365908
787,698.8482925776274
788,698.8375563826241
789,698.8271573303343
790,698.8170770191764
791,698.8072929446047
792,698.7977788038772
793,698.7885048277757
794,698.7794381381779
795,698.7705431293238
796,698.7617818692298
797,698.7531145163061
798,698.7444997455102
799,698.7358951786892
800,698.727257814645
801,698.7185444552197
802,698.7097121241278
803,698.7007184754307
804,698.6915221884916
805,698.6820833459657
806,698.6723637910505
807,698.6623274602011
808,698.6519406881227
809,698.6411724831624
810,698.6299947729412
811,698.6183826217347
812,698.6063144222701
813,698.5937720651816
814,698.5807410897132
815,698.5672108196494
816,698.5531744885338
817,698.5386293576288
818,698.523576828948
819,698.5080225545034
820,698.4919765419492
821,698.475453256115
822,698.4584717153421
823,698.441055580841
824,698.4232332365368
825,698.4050378565304
826,698.3865074577499
827,698.3676849361347
828,698.3486180848367
829,698.3293595921945
830,698.3099670162001
831,698.2905027315671
832,698.2710338456769
833,698.2516320806403
834,698.2323736200765
835,698.2133389204404
836,698.1946124875191
837,698.1762826191172
838,698.1584411151456
839,698.1411829563332
840,698.1246059525569
841,698.1088103614853
842,698.0938984782667
843,698.0799741976736
844,698.0671425514643
845,698.0555092254697
846,698.0451800625157
847,698.0362605580993
848,698.0288553553708
849,698.0230677448353
850,698.018999173266
851,698.0167487661266
852,698.0164128677391
853,698.0180846023773
854,698.0218534571321
855,698.027804884686
856,698.0360199223695
857,698.0465748237477
858,698.0595407000433
859,698.0749831699152
860,698.0929620169017
861,698.1135308542785
862,698.1367367973818
863,698.162620143777
864,698.1912140623522
865,698.2225442936586
866,698.2566288653794
867,698.2934778282577
868,698.3330930188063
869,698.3754678554778
870,698.4205871746904
871,698.4684271122271
872,698.5189550341689
873,698.572129520005
874,698.6279003990899
875,698.6862088399016
876,698.7469874893795
877,698.8101606573273
878,698.875644539133
879,698.9433474693965
880,699.0131701996232
881,699.0850061946445
882,699.1587419441828
883,699.2342572873167
884,699.311425748324
885,699.3901148827573
886,699.4701866328884
887,699.5514976918224
888,699.6338998755228
889,699.7172405020165
890,699.8013627778405
891,699.8861061935803
892,699.9713069322692
893,700.0567982953401
894,700.1424111504896
895,700.2279744048641
896,700.3133155059508
897,700.3982609716896
898,700.4826369508452
899,700.5662698145794
900,700.6489867799644
901,700.7306165651005
902,700.8109900734423
903,700.8899411023957
904,700.9673070687725
905,701.0429297413764
906,701.1166559689075
907,701.1883383899216
908,701.2578361112979
909,701.325015342717
910,701.3897499767507
911,701.4519221066828
912,701.5114224764362
913,701.5681508589013
914,701.6220163610415
915,701.6729376567125
916,701.7208431506726
917,701.765671079048
