acceleration,velocity,displacement
0.0008566746881521891,0.0,0.0
-0.0004571650971227234,9.987739775736642e-08,2.4969349439341606e-11
-0.0017672997992614283,-4.562388263386715e-07,-6.412100770598467e-11
-0.0030700547179907263,-1.6655774556517102e-06,-5.945750782035802e-10
-0.004361815461983855,-3.5235450006453552e-06,-1.8918556922778467e-09
-0.005639056974521303,-6.023763109771645e-06,-4.278682719882096e-09
-0.0068983712412140465,-9.158120163705483e-06,-8.074153538251379e-09
-0.008136493303779782,-1.291683629995394e-05,-1.3592892654166235e-08
-0.009350325263091997,-1.7288540941671886e-05,-2.114423696457269e-08
-0.01053695802680374,-2.226036176414582e-05,-3.103146264102712e-08
-0.011693690628985875,-2.7818023928093224e-05,-4.3551059064086876e-08
-0.01281804700824793,-3.394595833740168e-05,-5.89920546304606e-08
-0.013907790174691712,-4.0627417633136586e-05,-7.763539862309517e-08
-0.014960933733433298,-4.784459861016784e-05,-9.975340268392128e-08
-0.015975750768568033,-5.557876973566817e-05,-1.2560924477038029e-07
-0.016950780120246207,-6.381040245787173e-05,-1.5545653781876526e-07
-0.01788483010269576,-7.251930501360723e-05,-1.89538964686635e-07
-0.018776979717748044,-8.168475746871817e-05,-2.2808998030721634e-07
-0.01962657743101895,-9.128564675590993e-05,-2.7133258136337335e-07
-0.02043323760569765,-0.00010130060051508908,-3.194791431811231e-07
-0.021196834724065295,-0.00011170811859752982,-3.727313229592778e-07
-0.021917495553853025,-0.0001224867011670094,-4.312800279004126e-07
-0.022595589431945413,-0.000133614972413459,-4.953054462955297e-07
-0.02323171685080736,-0.0001450717989841472,-5.649771391449312e-07
-0.023826696546759445,-0.0001568364023335389,-6.404541894743527e-07
-0.024381551293750133,-0.0001688884642936663,-7.218854061311541e-07
-0.024897492592677657,-0.00018120822526527324,-8.09409578520889e-07
-0.025375904420548125,-0.00019377657451857968,-9.031557784668522e-07
-0.025818326182639406,-0.00020657513216937656,-1.0032437051388414e-06
-0.026226435003685586,-0.00021958632246595782,-1.109784068797675e-06
-0.026602027496747335,-0.00023279343809106605,-1.222879008936931e-06
-0.026947001150714304,-0.00024618069525293143,-1.3426225422729304e-06
-0.02726333547222804,-0.000259733279408667,-1.46910103593833e-06
-0.02755307300514267,-0.00027343738152800967,-1.6023937011724991e-06
-0.027818300337800535,-0.00028728022486374546,-1.742573102770438e-06
-0.02806112920305748,-0.00030125008224895995,-1.8897056795486144e-06
-0.028283677778596614,-0.0003153362839943735,-2.043852271109448e-06
-0.028488052300743718,-0.00032952921651420853,-2.2050686462365935e-06
-0.028676329109221087,-0.0003438203118666997,-2.3734060283318204e-06
-0.028850537241180266,-0.00035820202845430007,-2.5489116134120705e-06
-0.029012641692033426,-0.0003726678231876035,-2.731629076322546e-06
-0.02916452746173461,-0.0003872121154760455,-2.9215990609884583e-06
-0.029307984512074812,-0.00040183024346949787,-3.118859650724844e-06
-0.029444693775504974,-0.0004165184130413928,-3.3234468148525666e-06
-0.0295762143735225,-0.00043127364007864967,-3.535394828132577e-06
-0.029703972208918884,-0.00044609368672426003,-3.7547366598333046e-06
-0.029829250082668738,-0.0004609769922971569,-3.981504329588659e-06
-0.02995317945475067,-0.0004759225996815118,-4.215729227583326e-06
-0.030076733922901073,-0.0004909300780259247,-4.457442397010185e-06
-0.030200724440647284,-0.0005059994426168117,-4.706674777170869e-06
-0.030325796251431208,-0.0005211310727898313,-4.96345740602253e-06
-0.030452427498588057,-0.0005363256287273362,-5.227821581401822e-06
-0.03058092948939067,-0.0005515839679743309,-5.499798980577239e-06
-0.030711448628795098,-0.0005669070625038774,-5.779421738196791e-06
-0.030843970058958014,-0.0005822959171758156,-6.066722483116715e-06
-0.03097832301562709,-0.0005977514904444618,-6.361734335021784e-06
-0.031114187845646582,-0.0006132746181597802,-6.664490862172844e-06
-0.031251104550156235,-0.0006288659412587309,-6.975026002027472e-06
-0.03138848265562881,-0.0006445258380601772,-7.293373946857199e-06
-0.031525612186527247,-0.0006602543617707162,-7.619568996814922e-06
-0.031661675520464734,-0.0006760511836974642,-7.953645383181967e-06
-0.03179575993737687,-0.0006919155425619246,-8.295637064746814e-06
-0.03192687071128174,-0.0007078462002240893,-8.645577500443318e-06
-0.03205394462543468,-0.0007238414040582684,-9.003499401513907e-06
-0.032175863814205695,-0.0007398988561681786,-9.369434466570518e-06
-0.032291469845260774,-0.0007560156895830451,-9.743413103008323e-06
-0.03239957795511816,-0.0007721884515331399,-1.012546413828737e-05
-0.03249899134772247,-0.0007884130938588501,-1.0515614524635367e-05
-0.032588515465709726,-0.0008046849705622081,-1.0913889040740632e-05
-0.032666972144146336,-0.0008209988424646721,-1.1320309993997352e-05
-0.0327332135495105,-0.0008373488888880863,-1.173489692683554e-05
-0.03278613579424452,-0.000853728726224025,-1.2157666330613569e-05
-0.03282469211255726,-0.0008701314332007255,-1.2588631370469756e-05
-0.03284790549444513,-0.0008865495826024761,-1.3027801624420556e-05
-0.032854880687713084,-0.0009029752791480157,-1.3475182839858178e-05
-0.03284481546487172,-0.0009194002031861618,-1.3930776710441724e-05
-0.03281701100550561,-0.0009358156598037561,-1.4394580676189203e-05
-0.032770881187742296,-0.0009522126328520681,-1.4866587749353159e-05
-0.03270596054476769,-0.0009685818432851956,-1.5346786368387475e-05
-0.032621910641211636,-0.0009849138110816905,-1.5835160281979197e-05
-0.03251852466259147,-0.0010011989199076414,-1.633168846472653e-05
-0.03239573008093802,-0.0010174274835935237,-1.683634506560182e-05
-0.032253589342682555,-0.0010335898134494288,-1.7349099389862557e-05
-0.032092298598875905,-0.0010496762854348184,-1.786991591458362e-05
-0.0319121845530383,-0.001065677406222797,-1.8398754337498023e-05
-0.031713699546853207,-0.00108158387724777,-1.8935569658365666e-05
-0.03149741504930988,-0.0010973866558968107,-1.948031229165181e-05
-0.031264013757058284,-0.0011130770130984026,-2.0032928208900614e-05
-0.031014280538019273,-0.001128646586672172,-2.059335910884326e-05
-0.03074909244759784,-0.0011440874299185764,-2.1161542612990946e-05
-0.030469408024311487,-0.0011593920550365538,-2.1737412484229728e-05
-0.0301762560484841,-0.0011745534710547528,-2.2320898865752555e-05
-0.029870723936009307,-0.001189565216050876,-2.291192853752896e-05
-0.029553945934579433,-0.0012044213835185232,-2.3510425187421313e-05
-0.029227091281677935,-0.0012191166428225876,-2.4116309694006592e-05
-0.02889135247129022,-0.0012336462537608295,-2.4729500418152445e-05
-0.028547933769816812,-0.0012480060753211062,-2.534991350042293e-05
-0.02819804012642089,-0.0012621925687951656,-2.5977463161451997e-05
-0.027842866630608223,-0.0012762027954844228,-2.6612062002521893e-05
-0.027483588667214127,-0.0012900344093088785,-2.7253621303720218e-05
-0.027121352901602117,-0.0013036856447010826,-2.7902051317222707e-05
-0.02675726919808351,-0.001317155300226004,-2.8557261553454477e-05
-0.026392403536386454,-0.0013304427184096215,-2.9219161058113385e-05
-0.02602777195251911,-0.001343547762281848,-2.988765867828625e-05
-0.02566433550036599,-0.0013564707891450692,-3.056266331614298e-05
-0.025302996209907214,-0.0013692126220726374,-3.124408416894741e-05
-0.0249445940001438,-0.00138177451962515,-3.1931830954371856e-05
-0.024589904486365083,-0.0013941581442467772,-3.2625814120339835e-05
-0.02423963760675615,-0.0014063655297700576,-3.3325945038844045e-05
-0.023894436987983155,-0.0014183990484187424,-3.4032136183391247e-05
-0.023554879971657693,-0.0014302613776586526,-3.4744301289910594e-05
-0.023221478225776054,-0.001441955467208011,-3.546235550112726e-05
-0.02289467886273325,-0.0014534845064801383,-3.61862154945493e-05
-0.022574865983170368,-0.0014648518926916143,-3.691579959434224e-05
-0.022262362571469234,-0.0014760611998302742,-3.765102786747271e-05
-0.0219574326882077,-0.0014871161486451933,-3.839182220459157e-05
-0.021660283931859987,-0.0014980205778002103,-3.9138106386202924e-05
-0.02137107016311006,-0.0015087784163239529,-3.988980613473396e-05
-0.021089894487407685,-0.0015193936574865823,-4.06468491531866e-05
-0.020816812471637816,-0.0015298703342263437,-4.140916515111483e-05
-0.020551835538339006,-0.001540212496228838,-4.217668585872863e-05
-0.020294934446187577,-0.0015504241887249696,-4.294934502996708e-05
-0.020046042733882122,-0.001560509433019987,-4.372707843540332e-05
-0.01980505998343474,-0.0015704722086993161,-4.4509823845833144e-05
-0.019571854761495668,-0.0015803164373855488,-4.529752100735436e-05
-0.019346267131959742,-0.0015900459678589126,-4.609011160866548e-05
-0.019128110695741572,-0.001599664562315838,-4.688753924120917e-05
-0.018917174190410967,-0.001609175883537376,-4.7689749352672473e-05
-0.01871322275449255,-0.001618583482773602,-4.849668919425022e-05
-0.01851599901003564,-0.001627890788214734,-4.93083077619973e-05
-0.01832522413302466,-0.0016371010940004992,-5.0124555732551106e-05
-0.018140599070871975,-0.0016462175498014734,-5.09453853935016e-05
-0.017961806043567497,-0.0016552431510800832,-5.177075056872199e-05
-0.017788510436959483,-0.0016641807302002149,-5.2600606539042066e-05
-0.017620363161203377,-0.0016730329485997557,-5.343490995874206e-05
-0.01745700350477353,-0.0016818022902662499,-5.4273618768458564e-05
-0.01729806246926109,-0.0016904910567597585,-5.511669210521506e-05
-0.017143166525387832,-0.0016991013640084208,-5.5964090210407105e-05
-0.016991941688288145,-0.0017076351410618398,-5.681577433667467e-05
-0.016844017779372444,-0.001716094130928755,-5.767170665467232e-05
-0.0166990327350419,-0.0017244798935573586,-5.853185016079385e-05
-0.01655663683956284,-0.0017327938109510097,-5.939616858692094e-05
-0.01641649678310638,-0.001741037094356677,-6.026462631324786e-05
-0.016278299458488476,-0.0017492107934170757,-6.113718828519129e-05
-0.016141755412601266,-0.001757315807134848,-6.201381993532927e-05
-0.016006601876022947,-0.001765352896457004,-6.289448711122723e-05
-0.01587260531363925,-0.0017733226982544197,-6.37791560099051e-05
-0.015739563458333265,-0.0017812257404474128,-6.466779311958056e-05
-0.015607306793993763,-0.0017890624580104944,-6.556036516919504e-05
-0.01547569944485097,-0.0017968332095702057,-6.645683908609022e-05
-0.015344639418641363,-0.0018045382942860786,-6.735718196205428e-05
-0.015214058149098129,-0.0018121779686780136,-6.826136102779531e-05
-0.015083919291057693,-0.0018197524630380526,-6.916934363572433e-05
-0.014954216742347601,-0.001827261997046404,-7.008109725074544e-05
-0.01482497190339752,-0.0018347067942078403,-7.099658944855901e-05
-0.014696230234164418,-0.0018420870947422308,-7.191578792079652e-05
-0.014568057218475376,-0.0018494031666053908,-7.283866048613343e-05
-0.014440533887307821,-0.0018566553143818366,-7.376517510638024e-05
-0.01431375207582593,-0.00186384388587262,-7.469529990644385e-05
-0.014187809587044242,-0.0018709692762883376,-7.562900319698409e-05
-0.014062805410213089,-0.001878031930037652,-7.656625349856559e-05
-0.013938835113104708,-0.0018850323401684815,-7.750701956611712e-05
-0.01381598651597329,-0.001891971045575751,-7.845127041255317e-05
-0.013694335766034746,-0.001898848626146253,-7.939897533048367e-05
-0.013573943949862785,-0.0019056656960752274,-8.035010391103904e-05
-0.013454854388034456,-0.0019124228956597018,-8.130462605897276e-05
-0.013337090743090925,-0.001919120881942483,-8.226251200337331e-05
-0.013220656036832142,-0.001925760318637464,-8.32237323035183e-05
-0.013105532616219502,-0.0019323418658007269,-8.418825784962784e-05
-0.012991683035397406,-0.0019388661697136312,-8.515605985850643e-05
-0.012879051753022418,-0.0019453338534107362,-8.612710986428752e-05
-0.012767567497066807,-0.0019517455082232586,-8.710137970469602e-05
-0.01265714612691428,-0.0019581016866292537,-8.807884150340914e-05
-0.01254769381585075,-0.001964402896614945,-8.905946764922019e-05
-0.01243911038123687,-0.001970649597664217,-9.004323077278997e-05
-0.012331292609183387,-0.001976842198411822,-9.103010372180899e-05
-0.012224137455356884,-0.001982981055927957,-9.202005953539394e-05
-0.012117545040881188,-0.0019890664765520164,-9.301307141851394e-05
-0.012011421387541554,-0.0019950987181591223,-9.400911271719173e-05
-0.011905680846554379,-0.0020010779937176463,-9.500815689516092e-05
-0.011800248177428467,-0.002007004475973642,-9.601017751258374e-05
-0.011695060238470898,-0.002012878303077617,-9.701514820734656e-05
-0.011590067265993934,-0.002018699584953733,-9.80230426793544e-05
-0.011485233743993791,-0.00202446841020623,-9.903383467814439e-05
-0.011380538887300519,-0.0020301848533640534,-0.00010004749799403696
-0.011275976768493467,-0.002035848982278002,-0.00010106400645294748
-0.011171556119233686,-0.0020414608654999336,-0.00010208333391489196
-0.011067299845362382,-0.002047020579491083,-0.0001031054542761397
-0.010963244312108161,-0.0020525282155304503,-0.0001041303414748951
-0.010859438465391844,-0.0020579838862248255,-0.00010515796950033392
-0.0107559428484007,-0.0020633877315532735,-0.00010618831240477845
-0.01065282855495677,-0.0020687399244041127,-0.00010722134431876779
-0.010550176143856484,-0.002074040675578816,-0.00010825703946876352
-0.010448074533175531,-0.002079290238248074,-0.00010929537219722025
-0.010346619906828867,-0.0020844889118580754,-0.00011033631698474678
-0.010245914686344875,-0.0020896370455063687,-0.0001113798484740879
-0.010146066625081038,-0.0020947350408342252,-0.00011242594149567304
-0.010047188055645667,-0.0020997833545044068,-0.00011347457109450771
-0.009949395273299352,-0.002104782500336643,-0.00011452571255821797
-0.009852807992053686,-0.0021097330511529815,-0.00011557934144609038
-0.00975754878154016,-0.0021146356403463798,-0.00011663543361896522
-0.009663742381010391,-0.0021194909631370175,-0.00011769396526983607
-0.009571514788696903,-0.0021242997774294442,-0.00011875491295497768
-0.009480992044054077,-0.002129062904137632,-0.00011981825362536946
-0.009392298660162382,-0.0021337812268136863,-0.00012088396465810729
-0.009305555716206476,-0.0021384556904077783,-0.00012195202388741265
-0.009220878668604495,-0.002143087299003981,-0.0001230224096347656
-0.009138374966145854,-0.0021476771124126688,-0.00012409510073761975
-0.00905814155338548,-0.0021522262415425517,-0.00012517007657610857
-0.008980262329724134,-0.002156735842513329,-0.00012624731709712253
-0.008904805614409867,-0.0021612071094993623,-0.0001273268028351257
-0.008831821651784342,-0.002165641266315911,-0.0001284085149290795
-0.008761340172642367,-0.0021700395567720177,-0.0001294924351348515
-0.008693368009274057,-0.0021744032338174967,-0.0001305785458324989
-0.008627886748765886,-0.0021787335475070067,-0.00013166683002783
-0.008564850401510272,-0.0021830317317945757,-0.0001327572713476554
-0.008504183058880175,-0.0021872989901596733,-0.00013384985402814395
-0.00844577651680953,-0.002191536480053596,-0.00013494456289569727
-0.008389487851199424,-0.002195745296145598,-0.00013604138333974707
-0.008335136947963196,-0.0021999264523453886,-0.0001371403012768698
-0.008282504019801072,-0.00220408086258733,-0.00013824130310560297
-0.0082313271854093,-0.0022082093203886323,-0.00013934437565134696
-0.008181300231894884,-0.0022123124772429584,-0.00014044950610075485
-0.008132070704779996,-0.002216390819977127,-0.00014155668192505986
-0.008083238462087458,-0.002220444647268844,-0.00014266589079187135
-0.008034354801176214,-0.00222447404558466,-0.00014377712046508473
-0.00798492223572922,-0.002228478864843886,-0.00014489035869269187
-0.007934394967937611,-0.002232458694144803,-0.00014600559308243903
-0.007882180062302851,-0.002236412837902363,-0.00014712281096545082
-0.007827639291274035,-0.0022403402927407574,-0.0001482419992481116
-0.00777009161060439,-0.002244239725466227,-0.00014936314425266335
-0.007708816238784989,-0.002248109452428574,-0.00015048623154713704
-0.0076430563355892765,-0.0022519474205721676,-0.00015161124576538722
-0.0075720232739458675,-0.0022557511904745513,-0.00015273817041814889
-0.007494901478391566,-0.002259517921662636,-0.00015386698769618318
-0.007410853781426692,-0.0022632443604775907,-0.00015499767826671824
-0.007319027234821839,-0.002266926830731653,-0.00015613022106452054
-0.007218559298813189,-0.0022705612273650616,-0.00015726459307904473
-0.0071085843141910745,-0.002274143013268313,-0.00015840076913920307
-0.006988240148504391,-0.002277667219383987,-0.00015953872169736615
-0.006856674905089972,-0.0022811284481473854,-0.000160678420614249
-0.006713053589679938,-0.0022845208802710778,-0.00016181983294635363
-0.006556564639226691,-0.0022878382848283045,-0.00016296292273762847
-0.006386426231354559,-0.00229107403254595,-0.00016410765081697204
-0.006201892313699477,-0.0022942211121822135,-0.0001652539746031541
-0.006002258321728197,-0.0022972721498410705,-0.00016640184791865992
-0.005786866585078499,-0.0023002194310677722,-0.00016755122081388714
-0.0055551114412660954,-0.0023030549255743586,-0.00016870203940304768
-0.0053064440707539014,-0.0023057703144523634,-0.00016985424571305436
-0.00504037704593557,-0.002308357019731536,-0.00017100777754660033
-0.004756488568606541,-0.002310806236135171,-0.000172162568360567
-0.0044544263685114775,-0.0023131089648694507,-0.00017331854716081817
-0.004133911246385654,-0.002315256049273175,-0.00017447563841435382
-0.003794740256434563,-0.0023172382121488797,-0.00017563376197970933
-0.0034367895227768626,-0.0023190460945936827,-0.00017679283305639497
-0.003060016664492444,-0.0023206702961405,-0.0001779527621540785
-0.0026644627707907076,-0.002322101415999321,-0.00017911345508211346
-0.002250253840616628,-0.002323330095152173,-0.00018027481295990134
-0.0018176015966896405,-0.0023243470590114993,-0.00018143673224844226
-0.0013668036011043106,-0.0023251431603109477,-0.00018259910480327286
-0.000898242623370208,-0.0023257094218670665,-0.00018376181794881738
-0.00041238523450789436,-0.002326037078831536,-0.00018492475457399204
9.022037196378692e-05,-0.002326117620047172,-0.0001860877932487117
0.0006089472968803067,-0.002325942828129961,-0.000187250808360756
0.0011430935204007676,-0.002325504817925641,-0.00018841367027226988
0.0016918860569156914,-0.0023247960730313115,-0.00018957624549500912
0.002254485559568416,-0.0023238094801271906,-0.00019073839688329874
0.002829991242304191,-0.0023225383609267224,-0.00019189998384356222
0.0034174459953351137,-0.0023209765016173126,-0.00019306086255919822
0.004015841600205032,-0.0023191181797184274,-0.00019422088622953216
0.004624123994412172,-0.002316958188319773,-0.00019537990532154172
0.005241198580108211,-0.002314491857676143,-0.00019653776783304068
0.005865935605308173,-0.002311715074129789,-0.00019769431956599218
0.006497175664564499,-0.0023086242963123206,-0.0001988494044086027
0.007133735376388433,-0.0023052165685520823,-0.0002000028646248188
0.007774413308251201,-0.002301489531380922,-0.00020115454114980204
0.008417996236018901,-0.0022974414289948547,-0.000202304273889896
0.009063265834164839,-0.002293071113477309,-0.00020345190202551404
0.009709005890836559,-0.0022883780455460584,-0.00020459726431526989
0.010354010122564416,-0.002283362291542708,-0.0002057401993995421
0.010997090616797415,-0.0022780245163578675,-0.00020688054610151722
0.011637086854716861,-0.002272365971989989,-0.0002080181437236042
0.012272875177793444,-0.0022663884814818616,-0.00020915283233697215
0.012903378481561038,-0.002260094418067023,-0.00021028445306185939
0.01352757586575874,-0.0022534866794801933,-0.00021141284833624618
0.014144511952305646,-0.002246568657525677,-0.00021253786217049765
0.014753305604901212,-0.0022393442031363752,-0.00021365934038566317
0.015353157836413275,-0.0022318175872760465,-0.00021477713083326627
0.01594335875365605,-0.002223993458128529,-0.0002158910835946174
0.016523293447713812,-0.0022158767950781868,-0.00021700105115791908
0.017092446782032904,-0.00220747286002075,-0.00021810688857169382
0.01765040705471372,-0.0021987871465615635,-0.0002192084535733394
0.01819686852135447,-0.0021898253276675466,-0.00022030560669189668
0.018731632779144924,-0.0021805932023424217,-0.00022139821132439918
