frame_number,force
0,699.7911378205835
1,699.7288471442682
2,699.6666031396156
3,699.6044524006678
4,699.542441366559
5,699.4806162449394
6,699.4190229364366
7,699.3577069604721
8,699.2967133827199
9,699.2360867444647
10,699.175870994084
11,699.1161094208434
12,699.0568445911808
13,698.9981182876251
14,698.9399714504755
15,698.8824441223522
16,698.8255753957112
17,698.7694033634072
18,698.7139650723748
19,698.6592964804784
20,698.6054324165552
21,698.5524065436601
22,698.5002513255031
23,698.4489979960533
24,698.3986765322742
25,698.3493156299372
26,698.3009426824613
27,698.2535837627267
28,698.2072636078107
29,698.1620056065842
30,698.117831790106
31,698.0747628247337
32,698.0328180078711
33,697.992015266266
34,697.9523711567741
35,697.9139008694966
36,697.8766182331938
37,697.8405357228703
38,697.8056644694188
39,697.7720142712055
40,697.7395936074757
41,697.7084096534561
42,697.678468297022
43,697.6497741567916
44,697.6223306014979
45,697.596139770488
46,697.5712025952001
47,697.5475188214839
48,697.5250870326473
49,697.5039046731367
50,697.4839680727708
51,697.4652724714616
52,697.4478120443479
53,697.431579927253
54,697.4165682423737
55,697.4027681241174
56,697.3901697450366
57,697.3787623418423
58,697.3685342415075
59,697.3594728874868
60,697.351564866076
61,697.3447959329302
62,697.3391510397418
63,697.3346143610725
64,697.3311693213263
65,697.3287986218509
66,697.3274842681541
67,697.3272075972301
68,697.327949304989
69,697.3296894737908
70,697.3324076000831
71,697.3360826221544
72,697.340692948016
73,697.3462164834237
74,697.3526306600475
75,697.3599124638005
76,697.3680384633628
77,697.3769848389572
78,697.3867274114517
79,697.3972416718632
80,697.4085028113242
81,697.4204857515425
82,697.4331651757539
83,697.4465155601346
84,697.4605112056231
85,697.475126270076
86,697.4903348006696
87,697.5061107664388
88,697.5224280908346
89,697.539260684185
90,697.5565824759489
91,697.5743674466668
92,697.5925896595136
93,697.6112232913611
94,697.6302426632608
95,697.6496222702651
96,697.6693368105049
97,697.6893612134404
98,697.7096706672014
99,697.7302406449312
100,697.7510469300603
101,697.7720656404449
102,697.793273251325
103,697.8146466170707
104,697.8361629917006
105,697.8578000481638
106,697.8795358963877
107,697.9013491001006
108,697.9232186924474
109,697.9451241904209
110,697.9670456081271
111,697.9889634689133
112,698.0108588163793
113,698.0327132243044
114,698.0545088055169
115,698.0762282197279
116,698.0978546803454
117,698.119371960273
118,698.1407643967028
119,698.1620168949208
120,698.183114931157
121,698.2040445545325
122,698.2247923881669
123,698.2453456295216
124,698.2656920500558
125,698.2858199942592
126,698.3057183781012
127,698.3253766869076
128,698.3447849726488
129,698.3639338506044
130,698.3828144953648
131,698.4014186361328
132,698.4197385513048
133,698.437767062317
134,698.4554975267613
135,698.4729238307941
136,698.4900403808784
137,698.506842094919
138,698.5233243928662
139,698.5394831868844
140,698.5553148711714
141,698.5708163115218
142,698.5859848347061
143,698.6008182177404
144,698.615314677114
145,698.6294728580431
146,698.6432918238072
147,698.6567710452197
148,698.6699103902761
149,698.6827101140319
150,698.6951708487611
151,698.7072935944474
152,698.7190797096561
153,698.7305309028236
154,698.7416492239857
155,698.7524370569442
156,698.7628971118503
157,698.7730324181626
158,698.782846317931
159,698.7923424593487
160,698.8015247905322
161,698.8103975534918
162,698.8189652782634
163,698.8272327771609
164,698.8352051391046
165,698.8428877239708
166,698.8502861569173
167,698.8574063226465
168,698.8642543595922
169,698.8708366540426
170,698.8771598342391
171,698.8832307645068
172,698.8890565394801
173,698.8946444784882
174,698.9000021201629
175,698.905137217319
176,698.9100577321453
177,698.9147718317249
178,698.9192878838921
179,698.9236144534314
180,698.9277602986152
181,698.9317343680807
182,698.9355457980329
183,698.9392039097556
184,698.9427182073965
185,698.9460983759925
186,698.949354279701
187,698.9524959601949
188,698.9555336351772
189,698.9584776969585
190,698.9613387110528
191,698.9641274147455
192,698.9668547156003
193,698.9695316898707
194,698.9721695807756
195,698.9747797965949
196,698.9773739085327
197,698.9799636483128
198,698.9825609054889
199,698.985177724469
200,698.9878263012716
201,698.9905189800298
202,698.9932682492652
203,698.9960867379442
204,698.9989872113149
205,699.0019825665013
206,699.0050858278155
207,699.0083101417365
208,699.0116687715077
209,699.015175091313
210,699.0188425799997
211,699.0226848143271
212,699.0267154617247
213,699.0309482725564
214,699.0353970718934
215,699.0400757508031
216,699.0449982571646
217,699.0501785860214
218,699.055630769482
219,699.0613688661731
220,699.0674069502384
221,699.0737590998644
222,699.0804393852933
223,699.0874618562772
224,699.0948405289356
225,699.1025893719855
226,699.1107222923331
227,699.1192531200271
228,699.1281955925929
229,699.1375633387815
230,699.1473698617764
231,699.1576285218881
232,699.1683525187705
233,699.179554873183
234,699.1912484083398
235,699.2034457308916
236,699.2161592115947
237,699.2294009657259
238,699.2431828333129
239,699.2575163592508
240,699.2724127733786
241,699.2878829705871
242,699.3039374910235
243,699.3205865004537
244,699.3378397708318
245,699.3557066611155
246,699.3741960983518
247,699.3933165590473
248,699.413076050841
249,699.4334820945018
250,699.4545417062792
251,699.47626138064
252,699.4986470734098
253,699.5217041853366
254,699.5454375460952
255,699.5698513987501
256,699.5949493847149
257,699.6207345292482
258,699.6472092275311
259,699.6743752313625
260,699.7022336364954
261,699.7307848706276
262,699.7600286820517
263,699.7899641289472
264,699.8205895692887
265,699.8519026513297
266,699.8839003046108
267,699.9165787314377
268,699.9499333987782
269,699.9839590305363
270,700.0186496001824
271,700.0539983237351
272,700.0899976531083
273,700.1266392698401
274,700.1639140792289
275,700.2018122049092
276,700.2403229839045
277,700.2794349622029
278,700.3191358908996
279,700.359412722949
280,700.4002516105462
281,700.441637903134
282,700.4835561459959
283,700.5259900793661
284,700.5689226379692
285,700.6123359508923
286,700.6562113417147
287,700.700529328835
288,700.7452696259695
289,700.7904111428198
290,700.8359319859329
291,700.8818094597824
292,700.9280200681151
293,700.9745395156092
294,701.0213427099097
295,701.0684037641237
296,701.1156959998722
297,701.1631919510002
298,701.2108633680426
299,701.2586812235421
300,701.3066157183018
301,701.3546362886552
302,701.4027116148296
303,701.4508096304802
304,701.4988975334694
305,701.5469417979637
306,701.594908187925
307,701.642761772077
308,701.6904669404285
309,701.7379874224346
310,701.7852863068717
311,701.8323260634855
312,701.8790685664599
313,701.9254751197516
314,701.9715064843303
315,702.0171229073726
316,702.0622841534687
317,702.1069495379178
318,702.151077962187
319,702.1946279516113
320,702.2375576954081
321,702.2798250890686
322,702.3213877791887
323,702.3622032107878
324,702.4022286771559
325,702.441421372253
326,702.479738445665
327,702.5171370600982
328,702.553574451368
329,702.5890079908104
330,702.6233952500118
331,702.6566940677228
332,702.6888626187942
333,702.7198594849625
334,702.7496437273132
335,702.7781749602557
336,702.8054134268415
337,702.8313200752519
338,702.8558566362607
339,702.8789857014623
340,702.9006708020491
341,702.9208764879152
342,702.9395684068671
343,702.9567133837263
344,702.9722794991019
345,702.9862361676201
346,702.9985542154066
347,703.0092059566372
348,703.0181652689893
349,703.0254076678442
350,703.0309103790973
351,703.0346524104376
352,703.0366146209607
353,703.0367797889796
354,703.0351326778878
355,703.0316600999099
356,703.0263509775551
357,703.019196402559
358,703.0101896920795
359,702.9993264418956
360,702.9866045763538
361,702.9720243948094
362,702.9555886143204
363,702.9373024083676
364,702.9171734413961
365,702.8952118989887
366,702.8714305134927
367,702.8458445849296
368,702.818471997023
369,702.7893332281908
370,702.7584513573632
371,702.7258520644917
372,702.6915636256175
373,702.6556169023798
374,702.6180453258664
375,702.5788848747369
376,702.5381740475785
377,702.4959538294711
378,702.4522676527475
379,702.4071613519466
380,702.3606831129661
381,702.3128834164431
382,702.2638149754165
383,702.2135326673542
384,702.1620934606647
385,702.1095563358379
386,702.0559822013976
387,702.0014338048614
388,701.9459756389227
389,701.8896738430714
390,701.8325961008851
391,701.7748115332215
392,701.7163905875422
393,701.6574049235895
394,701.5979272956356
395,701.5380314315289
396,701.4777919087959
397,701.4172840280846
398,701.3565836842589
399,701.295767235453
400,701.2349113703968
401,701.1740929743253
402,701.1133889937889
403,701.0528763006876
404,700.9926315558449
405,700.9327310724407
406,700.8732506796217
407,700.8142655866206
408,700.7558502477091
409,700.6980782282936
410,700.6410220724392
411,700.5847531720749
412,700.5293416381149
413,700.4748561737267
414,700.421363949978
415,700.3689304840948
416,700.3176195205594
417,700.2674929152736
418,700.2186105230155
419,700.1710300884231
420,700.1248071407401
421,700.079994892567
422,700.0366441428625
423,699.9948031844457
424,699.9545177162397
425,699.9158307604887
426,699.8787825851492
427,699.8434106316286
428,699.8097494480186
429,699.7778306279622
430,699.7476827552837
431,699.7193313545057
432,699.692798847365
433,699.6681045154289
434,699.6452644688984
435,699.6242916216728
436,699.6051956727337
437,699.5879830938974
438,699.5726571239779
439,699.5592177694011
440,699.547661811306
441,699.5379828191616
442,699.5301711709121
443,699.524214079646
444,699.5200956267695
445,699.5177968016568
446,699.5172955477321
447,699.5185668149335
448,699.5215826184905
449,699.5263121039427
450,699.5327216183206
451,699.5407747874046
452,699.5504325989768
453,699.5616534919538
454,699.574393451268
455,699.5886061083263
456,699.6042428468451
457,699.621252913822
458,699.639583535386
459,699.659180037241
460,699.6799859693975
461,699.7019432348656
462,699.7249922219554
463,699.7490719398174
464,699.7741201568249
465,699.800073541388
466,699.8268678047714
467,699.8544378454824
468,699.8827178947997
469,699.9116416630199
470,699.941142486003
471,699.9711534716112
472,700.001607645635
473,700.032438096819
474,700.0635781206012
475,700.0949613611907
476,700.1265219516166
477,700.1581946513868
478,700.1899149814093
479,700.2216193558447
480,700.2532452105769
481,700.284731128008
482,700.3160169579111
483,700.3470439340867
484,700.3777547865874
485,700.408093849277
486,700.4380071625018
487,700.467442570644
488,700.4963498143262
489,700.5246806170376
490,700.5523887659598
491,700.579430186787
492,700.6057630123616
493,700.631347644973
494,700.6561468121836
495,700.6801256160653
496,700.7032515757381
497,700.7254946631257
498,700.7468273318724
499,700.7672245394081
500,700.7866637621977
501,700.8051250042644
502,700.8225907991039
503,700.8390462051394
504,700.854478794885
505,700.8688786380098
506,700.882238278525
507,700.8945527063299
508,700.905819323354
509,700.9160379045137
510,700.9252105536804
511,700.9333416548425
512,700.9404378186501
513,700.9465078245464
514,700.9515625587095
515,700.9556149480533
516,700.9586798905483
517,700.9607741821386
518,700.9619164405236
519,700.9621270260543
520,700.961427959962
521,700.9598428401197
522,700.9573967545286
523,700.95411619271
524,700.9500289551748
525,700.9451640611337
526,700.9395516546022
527,700.9332229090651
528,700.9262099308675
529,700.9185456615083
530,700.9102637790224
531,700.9013985986448
532,700.8919849729721
533,700.882058191843
534,700.8716538821757
535,700.8608079079879
536,700.8495562708241
537,700.8379350107921
538,700.8259801084051
539,700.8137273874183
540,700.8012124188373
541,700.7884704262732
542,700.7755361928083
543,700.7624439695373
544,700.7492273859501
545,700.7359193623201
546,700.7225520242599
547,700.7091566195993
548,700.6957634377364
549,700.6824017316054
550,700.6690996424039
551,700.6558841272338
552,700.6427808898197
553,700.6298143144772
554,700.6170074035009
555,700.6043817181379
556,700.5919573232986
557,700.5797527361457
558,700.567784878697
559,700.5560690345808
560,700.544618810081
561,700.5334460996135
562,700.5225610557593
563,700.5119720639756
564,700.5016857220899
565,700.4917068246779
566,700.4820383524127
567,700.4726814664621
568,700.4636355079973
569,700.454898002864
570,700.4464646714434
571,700.4383294437134
572,700.4304844794982
573,700.4229201938957
574,700.4156252878597
575,700.4085867839123
576,700.4017900669523
577,700.3952189301092
578,700.388855625565
579,700.3826809202416
580,700.3766741562098
581,700.3708133156539
582,700.3650750901903
583,700.35943495433
584,700.3538672428707
585,700.3483452320085
586,700.3428412239539
587,700.3373266348278
588,700.3317720855918
589,700.3261474957391
590,700.3204221794479
591,700.3145649438675
592,700.3085441891916
593,700.3023280101626
594,700.2958842986507
595,700.2891808469653
596,700.2821854515618
597,700.2748660168141
598,700.2671906585292
599,700.2591278068784
600,700.2506463084213
601,700.2417155268934
602,700.2323054424369
603,700.2223867489676
604,700.2119309493739
605,700.200910448256
606,700.1892986419128
607,700.1770700052994
608,700.1642001756826
609,700.1506660327433
610,700.136445774885
611,700.1215189915421
612,700.1058667313131
613,700.0894715657902
614,700.0723176489887
615,700.0543907723138
616,700.0356784150205
617,700.0161697901497
618,699.9958558859439
619,699.9747295027614
620,699.9527852855124
621,699.9300197516527
622,699.9064313147834
623,699.882020303925
624,699.8567889785521
625,699.8307415394786
626,699.8038841356708
627,699.776224867055
628,699.7477737833652
629,699.7185428790666
630,699.688546084373
631,699.6577992523693
632,699.6263201422355
633,699.5941283985693
634,699.5612455268141
635,699.5276948648146
636,699.4935015505415
637,699.4586924860337
638,699.4232962976148
639,699.3873432924323
640,699.3508654113696
641,699.3138961783822
642,699.2764706463169
643,699.238625339277
644,699.2003981915993
645,699.1618284835009
646,699.1229567734524
647,699.0838248273394
648,699.0444755444839
649,699.0049528806088
650,698.9653017678392
651,698.9255680318486
652,698.8857983062658
653,698.8460399444648
654,698.806340928873
655,698.7667497779447
656,698.7273154509583
657,698.6880872508059
658,698.6491147249535
659,698.6104475647562
660,698.5721355033328
661,698.5342282122183
662,698.4967751970321
663,698.459825692414
664,698.4234285564855
665,698.3876321650877
666,698.3524843060472
667,698.3180320737276
668,698.2843217641434
669,698.2513987709306
670,698.2193074824708
671,698.1880911804624
672,698.1577919402196
673,698.1284505329826
674,698.1001063305321
675,698.0727972124106
676,698.0465594760725
677,698.0214277502859
678,697.9974349121101
679,697.9746120077584
680,697.9529881776426
681,697.9325905858761
682,697.9134443545045
683,697.8955725027115
684,697.878995891226
685,697.8637331721213
686,697.8498007441748
687,697.8372127139324
688,697.8259808626018
689,697.8161146188768
690,697.8076210377675
691,697.8005047854726
692,697.7947681302984
693,697.7904109395965
694,697.7874306826745
695,697.7858224396138
696,697.7855789159066
697,697.7866904627987
698,697.7891451031925
699,697.7929285629443
700,697.7980243073582
701,697.8044135826597
702,697.8120754622134
703,697.8209868972409
704,697.8311227717844
705,697.8424559616658
706,697.8549573971811
707,697.868596129275
708,697.8833393989473
709,697.8991527096588
710,697.9159999025143
711,697.9338432340253
712,697.9526434562815
713,697.9723598993902
714,697.9929505560459
715,698.0143721680819
716,698.0365803148244
717,698.0595295030462
718,698.083173258297
719,698.1074642173828
720,698.1323542217664
721,698.1577944116773
722,698.1837353207349
723,698.2101269709112
724,698.2369189676662
725,698.264060595077
726,698.2915009107677
727,698.3191888404178
728,698.3470732716186
729,698.3751031468403
730,698.4032275552793
731,698.4313958233652
732,698.4595576037151
733,698.4876629623328
734,698.5156624638591
735,698.5435072546971
736,698.5711491438595
737,698.5985406814158
738,698.6256352344451
739,698.6523870604269
740,698.6787513780015
741,698.704684435042
742,698.7301435739762
743,698.7550872942901
744,698.7794753121482
745,698.8032686170573
746,698.8264295255109
747,698.8489217315554
748,698.870710354227
749,698.8917619818226
750,698.9120447129753
751,698.9315281945137
752,698.9501836560921
753,698.9679839415944
754,698.984903537324
755,699.0009185970102
756,699.0160069636669
757,699.0301481883525
758,699.043323545889
759,699.0555160476091
760,699.0667104512042
761,699.0768932677415
762,699.0860527659158
763,699.0941789736088
764,699.1012636768327
765,699.107300416156
766,699.1122844807315
767,699.1162129000762
768,699.1190844337688
769,699.1208995592342
770,699.1216604577687
771,699.1213709989371
772,699.1200367234528
773,699.1176648246374
774,699.1142641285394
775,699.1098450727712
776,699.104419684108
777,699.0980015548915
778,699.0906058182869
779,699.0822491224508
780,699.072949603677
781,699.0627268585894
782,699.0516019154475
783,699.0395972046148
784,699.0267365282219
785,699.0130450290486
786,698.9985491586444
787,698.9832766447124
788,698.9672564577768
789,698.9505187771534
790,698.933094956236
791,698.9150174871137
792,698.8963199645352
793,698.8770370492304
794,698.8572044305918
795,698.8368587887062
796,698.816037755707
797,698.794779876406
798,698.7731245681518
799,698.7511120798647
800,698.7287834502013
801,698.7061804648157
802,698.6833456126833
803,698.6603220414545
804,698.6371535118069
805,698.6138843507609
806,698.5905594039222
807,698.5672239866113
808,698.5439238338554
809,698.5207050492232
810,698.4976140525106
811,698.4746975263001
812,698.4520023614328
813,698.4295756014376
814,698.407464385973
815,698.3857158933415
816,698.3643772821429
817,698.3434956321282
818,698.323117884313
819,698.3032907803951
820,698.2840608015239
821,698.2654741064605
822,698.247576469169
823,698.2304132158783
824,698.2140291616513
825,698.1984685464959
826,698.1837749710678
827,698.1699913320241
828,698.1571597570935
829,698.1453215399287
830,698.1345170747984
831,698.1247857911767
832,698.1161660882931
833,698.1086952697224
834,698.1024094781081
835,698.0973436301325
836,698.0935313518576
837,698.0910049145658
838,698.0897951712394
839,698.0899314938166
840,698.0914417113634
841,698.0943520492995
842,698.09868706982
843,698.1044696136591
844,698.1117207433613
845,698.1204596882383
846,698.1307037912102
847,698.1424684577333
848,698.1557671070152
849,698.1706111257027
850,698.187009824219
851,698.2049703959184
852,698.2244978792279
853,698.245595122926
854,698.2682627546856
855,698.2924991529719
856,698.318300422369
857,698.3456603723956
858,698.3745704998809
859,698.4050199749723
860,698.4369956308528
861,698.4704819572377
862,698.5054610977204
863,698.5419128510285
864,698.579814676253
865,698.6191417021165
866,698.6598667403513
867,698.7019603032664
868,698.745390625581
869,698.7901236905952
870,698.8361232607599
871,698.8833509126835
872,698.9317660765955
873,698.9813260802573
874,699.0319861972862
875,699.0836996998336
876,699.136417915525
877,699.1900902885353
878,699.2446644446471
879,699.300086260125
880,699.3562999342311
881,699.4132480652167
882,699.4708717296311
883,699.5291105647935
884,699.5879028542778
885,699.6471856162467
886,699.7068946944752
887,699.7669648518927
888,699.82732986647
889,699.8879226292677
890,699.9486752444662
891,700.0095191312122
892,700.0703851271265
893,700.1312035933281
894,700.1919045208181
895,700.2524176380597
896,700.3126725195726
897,700.3725986953525
898,700.4321257609195
899,700.4911834877979
900,700.5497019342292
901,700.607611555906
902,700.6648433165
903,700.7213287977302
904,700.7770003086956
905,700.8317909941763
906,700.8856349415915
907,700.9384672862899
908,700.990224314851
909,701.0408435660911
910,701.0902639294937
911,701.1384257408193
912,701.1852708746703
913,701.2307428338237
914,701.2747868351635
915,701.3173498920831
916,701.3583808932598
917,701.3978306777288
