frame_number,force
0,482.76752000001744
1,483.18475307283677
2,483.5809277304753
3,483.9371778745029
4,484.238696627335
5,484.4760292466587
6,484.64565594823597
7,484.74984730314674
8,484.7958882155544
9,484.79484919346305
10,484.7601121940371
11,484.70584567783925
12,484.6455989006716
13,484.5911519973135
14,484.5517032791541
15,484.5334088590112
16,484.5392411225433
17,484.569113769666
18,484.6202225938869
19,484.68755956035096
20,484.76456118752674
21,484.8438433980054
22,484.91796014597276
23,484.98011501017965
24,485.02475593909975
25,485.0479904668525
26,485.0477804228548
27,485.0239199224557
28,484.97785061610284
29,484.91239197494014
30,484.83145269263724
31,484.7397576505335
32,484.64259025001047
33,484.54552701276157
34,484.4541435425467
35,484.37369433307447
36,484.308788806639
37,484.2630822466141
38,484.23898275358505
39,484.23737393763787
40,484.25738047400114
41,484.2962410920706
42,484.34937379269326
43,484.4107039706419
44,484.4732724807314
45,484.53006144518497
46,484.57490461643044
47,484.60331756778146
48,484.6130981798608
49,484.60459697215776
50,484.58062186444016
51,484.5460064031157
52,484.5069197349825
53,484.47002345589163
54,484.4415887382152
55,484.42668232428144
56,484.42851201007863
57,484.44799499232005
58,484.483587881346
59,484.5314005934852
60,484.5855972115833
61,484.63905130560886
62,484.6841744747697
63,484.7138010991925
64,484.7220137907138
65,484.7048260639381
66,484.66067224814526
67,484.5906723457035
68,484.4986465871057
69,484.3908632351962
70,484.2755226927617
71,484.16201340848744
72,484.06001118503013
73,483.9785156055663
74,483.92491637843193
75,483.90417142457676
76,483.9181786994907
77,483.9654324375197
78,484.04104032772295
79,484.1371208599043
80,484.2435247206073
81,484.34877713115606
82,484.44113719128336
83,484.5096938554264
84,484.54543201290556
85,484.5421881396285
86,484.49738666590395
87,484.41243808010364
88,484.2927054500302
89,484.14700189752347
90,483.98665543576004
91,483.82425275509104
92,483.6722268904813
93,483.54147072224487
94,483.4401449375448
95,483.37282280620934
96,483.34008198604675
97,483.33860280048884
98,483.3617522195129
99,483.40054355555816
100,483.44480618211946
101,483.48439910134766
102,483.510336393751
103,483.51572386978637
104,483.49641867287164
105,483.4513352667196
106,483.38235992375115
107,483.29390325372384
108,483.19218761316904
109,483.08440416096107
110,482.9778762628641
111,482.879341015759
112,482.7944182581735
113,482.72728521612896
114,482.68052863725705
115,482.6551191635414
116,482.65045155235515
117,482.6644179938037
118,482.69351791789086
119,482.7330325353356
120,482.7772920918027
121,482.82005015559525
122,482.8549658383403
123,482.8761749944006
124,482.87889869847805
125,482.86000755823557
126,482.8184534660429
127,482.7554941773063
128,482.6746561468699
129,482.5814068554658
130,482.48255227013533
131,482.3854360269888
132,482.29706660540694
133,482.2233111678447
134,482.16827301436683
135,482.13393445060876
136,482.12010610529353
137,482.12467183763283
138,482.14406319232614
139,482.1738614842092
140,482.20941901380525
141,482.24640677108584
142,482.2812281283846
143,482.31127690012346
144,482.33504501945356
145,482.35209615098887
146,482.36293477004915
147,482.3688201759386
148,482.37157923144684
149,482.3734441345104
150,482.3768975089895
151,482.3844806201823
152,482.3985345702508
153,482.420890571326
154,482.45257048691326
155,482.49357391534335
156,482.54281037448123
157,482.59819911977064
158,482.656918710758
159,482.71575642566063
160,482.7714960206023
161,482.82128887124793
162,482.8629620453312
163,482.8952212971451
164,482.9177196962658
165,482.93099208776624
166,482.93629185657886
167,482.9353911663092
168,482.93040297236774
169,482.92364726067365
170,482.9175347358714
171,482.91441812452695
172,482.916386309769
173,482.9250270319465
174,482.94121516532334
175,482.96497725345506
176,482.99546067972875
177,483.03102099013415
178,483.06942882353695
179,483.10817609379495
180,483.144834827898
181,483.1774077122381
182,483.20461682318773
183,483.22610084586285
184,483.2425136390919
185,483.25552440762493
186,483.2677138636832
187,483.2823553405127
188,483.30308047488967
189,483.3334610069255
190,483.37657728917713
191,483.4346663152798
192,483.5089338444819
193,483.59957691587704
194,483.7060000985163
195,483.82713694701613
196,483.9617429202252
197,484.1085415567986
198,484.26617830156425
199,484.43302370059484
200,484.60692380765863
201,484.78500088352314
202,484.96357540987077
203,485.13824424757667
204,485.3041284953498
205,485.4562815813498
206,485.59020149272845
207,485.70233792644643
208,485.7904697574566
209,485.85387352164696
210,485.8932877083705
211,485.9107477733753
212,485.90937944429925
213,485.8931967409497
214,485.866897646829
215,485.8356188718813
216,485.80460983004014
217,485.77881271159106
218,485.762383136627
219,485.75823270778716
220,485.76769306346193
221,485.7903764691323
222,485.82424912238923
223,485.86587065602794
224,485.91072242159834
225,485.9535607654831
226,485.98877177077543
227,486.01073927305697
228,486.0142434648549
229,485.9948828893639
230,485.94948413267286
231,485.87645440395283
232,485.7760382706193
233,485.6504452184946
234,485.5038203020667
235,485.3420466938741
236,485.17239002888044
237,485.0030014373449
238,484.84228977847533
239,484.69817911429544
240,484.5773026154877
241,484.48423260759466
242,484.42087131837144
243,484.38610728678685
244,484.37579395816107
245,484.38306424555924
246,484.39897162285325
247,484.41342271897884
248,484.4163165189233
249,484.39874697248774
250,484.3540960777472
251,484.278859805008
252,484.17309549086804
253,484.04043390924477
254,483.88765217645465
255,483.72385842049766
256,483.5593960870131
257,483.4046223114384
258,483.26873620175047
259,483.15882305775534
260,483.0792388052075
261,483.0313911692009
262,483.0138994350552
263,483.023054980364
264,483.05347027956986
265,483.0987969807172
266,483.1524133681015
267,483.20801702103284
268,483.26008901036045
269,483.30421064064006
270,483.3372221949608
271,483.3572284285918
272,483.3634759508154
273,483.3561436838803
274,483.336094694359
275,483.3046332022308
276,483.2632920960952
277,483.2136518192862
278,483.1571789062449
279,483.09507903471706
280,483.02817368920597
281,482.9568208420594
282,482.88090923932475
283,482.7999596743339
284,482.71335324282387
285,482.62067039298404
286,482.5220745233411
287,482.41863408576495
288,482.31247701663114
289,482.2067178506068
290,482.105164770239
291,482.0118679990661
292,481.9305976939015
293,481.86434068130546
294,481.8148894909701
295,481.7825750733651
296,481.7661758869471
297,481.763024276507
298,481.76931963532803
299,481.78063264052656
300,481.79254320753347
301,481.80131695890634
302,481.80451099468587
303,481.8014064392254
304,481.7931813830992
305,481.7827675876856
306,481.77438943122587
307,481.7728571748898
308,481.78274851863614
309,481.807635662308
310,481.8494972042625
311,481.90840711369634
312,481.98252886631394
313,482.0683809809598
314,482.1613060138632
315,482.2560696799369
316,482.34751139106726
317,482.43115256921044
318,482.5036729315872
319,482.5631993161224
320,482.6093877241624
321,482.6432971480137
322,482.6670668003093
323,482.6834317695564
324,482.69514427683464
325,482.70439686734727
326,482.7123530156727
327,482.71887017250145
328,482.7224618053011
329,482.7205080299125
330,482.7096942286028
331,482.68662503868853
332,482.6485226858802
333,482.59388719120665
334,482.5229951740249
335,482.43815030656566
336,482.34365035841415
337,482.24547833327324
338,482.150754188625
339,482.0670096554175
340,482.00138069263295
341,481.9598439574075
342,481.9466277899928
343,481.96388023959776
344,482.01159434776105
345,482.0877257795444
346,482.18842550397244
347,482.308344192393
348,482.44101141636486
349,482.57931670186
350,482.7161033052437
351,482.8448350360648
352,482.9602402157777
353,483.0588124977761
354,483.13907375410656
355,483.2015627049572
356,483.2485699884957
357,483.28367347588534
358,483.3111404841004
359,483.33527563357836
360,483.3598133700855
361,483.3874642566784
362,483.41969668183145
363,483.4567724507253
364,483.4979941628015
365,483.54209644475264
366,483.58771020814504
367,483.6338197496555
368,483.6801195002072
369,483.7271884520242
370,483.7764432646108
371,483.82988254588173
372,483.8896711029801
373,483.9576330326615
374,484.0347380368787
375,484.1206770179512
376,484.21361863149525
377,484.31021097024785
378,484.4058477094538
379,484.4951684691111
380,484.57272242062
381,484.6336996544697
382,484.6746241361458
383,484.69390312155684
384,484.6921464463043
385,484.67220999209377
386,484.6389725294683
387,484.5989008445852
388,484.5594724399239
389,484.52851072185734
390,484.51347074982885
391,484.5207146113229
392,484.5548309442759
393,484.61806880801083
394,484.70996227793046
395,484.82721243436157
396,484.9638611750408
397,485.1117388724056
398,485.26111691341765
399,485.40147566305853
400,485.52231737625306
401,485.6139880985044
402,485.66848380168693
403,485.6801883970415
404,485.6464537128019
405,485.567927059697
406,485.44856897182103
407,485.29535394971475
408,485.1176847640328
409,484.9265745259502
410,484.7336727232087
411,484.5502369753581
412,484.38616794127853
413,484.2492145408503
414,484.14442698373296
415,484.073906773739
416,484.03687977962784
417,484.0300838569323
418,484.04840591168505
419,484.0856422316854
420,484.1352281254083
421,484.1908109285486
422,484.24660449653584
423,484.29752483326985
424,484.3391538056915
425,484.3676214561148
426,484.3795259108696
427,484.3719903332623
428,484.34288412247855
429,484.2911507771469
430,484.2171325185365
431,484.1227788772409
432,484.01166547861015
433,483.888808065929
434,483.7603052556864
435,483.63286239099045
436,483.51324618294035
437,483.4077170539607
438,483.32149085303905
439,483.2582861904145
440,483.2200114456164
441,483.2066326582592
442,483.21623605449383
443,483.2452648020758
444,483.28888808871596
445,483.3414570796743
446,483.39699872186026
447,483.4496814446125
448,483.49417443320783
449,483.5258462037536
450,483.5408104245755
451,483.5358883053439
452,483.50857836932005
453,483.45710379516004
454,483.38056894116187
455,483.27921859125934
456,483.15475798297433
457,483.0106577113638
458,482.852342460606
459,482.6871587464969
460,482.5240413122454
461,482.37284845604097
462,482.2434080207417
463,482.1443947909385
464,482.0822195823036
465,482.0601278553294
466,482.0776787077889
467,482.1307098156189
468,482.21180234431
469,482.31116809606374
470,482.41781385816796
471,482.5208007981875
472,482.6104089514843
473,482.67904309980463
474,482.7217752482656
475,482.7364951057742
476,482.72371366404303
477,482.68612018567364
478,482.628019241098
479,482.5547677188389
480,482.4722942533188
481,482.3867273967067
482,482.30410846026274
483,482.23014447563537
484,482.1699695338859
485,482.127908207906
486,482.1072493490635
487,482.1100371876553
488,482.1368823645455
489,482.18680328720376
490,482.2571304352937
491,482.3435280909713
492,482.44018738227675
493,482.540213223693
494,482.63618091953606
495,482.72080039239387
496,482.787611236477
497,482.8316374225114
498,482.8499441002394
499,482.84204953834586
500,482.810149503131
501,482.7591123110864
502,482.6962066504318
503,482.63053926582256
504,482.5722131892535
505,482.53127125203906
506,482.51655381933654
507,482.53464707880084
508,482.5890979435678
509,482.6800161370319
510,482.80409725264974
511,482.9550179159472
512,483.1241017201598
513,483.30114140565183
514,483.47528020346266
515,483.6358836420199
516,483.7733552752369
517,483.87985955330953
518,483.94991204201455
519,483.98078493537605
520,483.97267071913245
521,483.92857090469465
522,483.853930007556
523,483.7560879922288
524,483.64364616264425
525,483.52582605313626
526,483.4118637834869
527,483.3104425927703
528,483.229139999839
529,483.1738684083303
530,483.1483278511579
531,483.15355268539054
532,483.18767598857704
533,483.24601462853184
534,483.32150291783046
535,483.40542455347327
536,483.48834697303045
537,483.56114311534293
538,483.6159757677989
539,483.64711873173025
540,483.6515050725342
541,483.62893176909637
542,483.58191369246083
543,483.5152532029463
544,483.43543967040955
545,483.3499894425207
546,483.2667947199225
547,483.1935106784431
548,483.13699832752235
549,483.1028422542643
550,483.09495399368575
551,483.11525749366507
552,483.1634580634816
553,483.2369243191994
554,483.330734287976
555,483.4379275721666
556,483.5499774699866
557,483.6574735958817
558,483.7509815173204
559,483.82200070084957
560,483.8638865150515
561,483.8725782245113
562,483.847006108376
563,483.78911822418803
564,483.70353625570147
565,483.5968997651299
566,483.47699072229295
567,483.35175843810947
568,483.22839010667144
569,483.11257582067844
570,483.0080841452184
571,482.9166997306885
572,482.83849528655844
573,482.77234012298095
574,482.7165085039114
575,482.6692489216896
576,482.62920029842536
577,482.5955823884341
578,482.568140424525
579,482.54688526206616
580,482.5317285836146
581,482.522144986616
582,482.5169799162566
583,482.5144688328868
584,482.51246481522554
585,482.50881694693777
586,482.50181510548214
587,482.49061722828185
588,482.47558728983364
589,482.4584767542048
590,482.4423793393993
591,482.4314057207153
592,482.43008802429847
593,482.4426212581921
594,482.4721227461025
595,482.5200876651041
596,482.5861457714752
597,482.66813426188867
598,482.76243059533454
599,482.86444068601656
600,482.96911651045775
601,483.0713938053889
602,483.16649132099656
603,483.2500779662181
604,483.3183675547004
605,483.3682178595557
606,483.39728359835055
607,483.404224443786
608,483.3889296716731
609,483.352697275296
610,483.2982928292016
611,483.2298249539894
612,483.1524213815978
613,483.0717518581218
614,482.99348894830024
615,482.92281278381637
616,482.86405221822537
617,482.8205131006851
618,482.79448097854896
619,482.787321809782
620,482.79957021043305
621,482.83091429101336
622,482.88005929568664
623,482.9445434734302
624,483.02063299601105
625,483.1034053882768
626,483.1870614320793
627,483.2654332035519
628,483.33261596928645
629,483.38364231589514
630,483.4151135123824
631,483.42569205853914
632,483.41635644889226
633,483.390347384173
634,483.3527905913332
635,483.31004152986867
636,483.2688472153941
637,483.2354563767908
638,483.2148231566115
639,483.2100325572989
640,483.2220283586126
641,483.2496591209464
642,483.2899970428215
643,483.3388467501251
644,483.3913514948662
645,483.4426181224426
646,483.488309669247
647,483.52517532234634
648,483.55148111356084
649,483.5672762518665
650,483.57441435797676
651,483.57628003283725
652,483.5772472462949
653,483.5819763256117
654,483.5946943732938
655,483.6185820828528
656,483.655328459335
657,483.7048569840547
658,483.765207284853
659,483.83257553832016
660,483.9015429908406
661,483.9655210777975
662,484.01740542021696
663,484.05038126138743
664,484.0587861304416
665,484.0389166462184
666,483.98965807574115
667,483.91282258759327
668,483.8131188801491
669,483.69774248641966
670,483.575651004399
671,483.4566397248048
672,483.3503448469422
673,483.2652880396665
674,483.2080583017698
675,483.1827093081085
676,483.19043129758415
677,483.2295348864662
678,483.29574929984466
679,483.38278439441564
680,483.4830571590131
681,483.5884691480728
682,483.69114485149004
683,483.78407984097964
684,483.8616756184522
685,483.9201441805898
686,483.9577609025099
687,483.97494978618954
688,483.9742022576118
689,483.9598419199054
690,483.93764756151944
691,483.91435220783296
692,483.89705275263225
693,483.892571880445
694,483.9068031786367
695,483.9440693049982
696,484.0065529801152
697,484.0938968068416
698,484.2030706563543
699,484.32856570356176
700,484.4629129577178
701,484.59746540048354
702,484.7233373851367
703,484.8323624753937
704,484.91791673370477
705,484.97547295472106
706,485.0028082385643
707,484.99987091511275
708,484.96839769004663
709,484.9114240779271
710,484.8328269960756
711,484.7369849274688
712,484.6285697542981
713,484.5124272276659
714,484.393477922348
715,484.2765793756489
716,484.1663250941542
717,484.0668033677781
718,483.98137400995483
719,483.9125181782496
720,483.8617756994304
721,483.82973998900246
722,483.81607035177706
723,483.8195124084685
724,483.837958750583
725,483.86859266541063
726,483.9081307108144
727,483.95314569266066
728,484.00043293546565
729,484.04737092364485
730,484.09221274847374
731,484.1342428320926
732,484.1737656796836
733,484.21195202235884
734,484.2506106718826
735,484.2919441981339
736,484.3382926926626
737,484.3918272436056
738,484.4541732073156
739,484.52601332056116
740,484.6067771172271
741,484.69451655138676
742,484.78601486365903
743,484.87712358154664
744,484.9632888869631
745,485.04020025375115
746,485.1044627013438
747,485.1541695531372
748,485.18925236851345
749,485.21151981475975
750,485.2243656390606
751,485.2322069820048
752,485.239774697618
753,485.25139435844363
754,485.27037449596213
755,485.29857660416735
756,485.33619554375775
757,485.3817423150528
758,485.43220596390245
759,485.4833783383469
760,485.5303365752361
761,485.5680662432349
762,485.5921593012445
763,485.5994578092786
764,485.58848803123703
765,485.5595768177959
766,485.5146453450565
767,485.4567737322525
768,485.3896736529234
769,485.3171903584837
770,485.24290603186523
771,485.1698603525353
772,485.10036366322703
773,485.0358680208486
774,484.97688046193423
775,484.9229328056458
776,484.8726403923427
777,484.8238741496117
778,484.774038715262
779,484.72041262102573
780,484.660485467198
781,484.5922308879856
782,484.5142818251558
783,484.4260154973452
784,484.32758799106625
785,484.2199632641708
786,484.1049552279919
787,483.9852576476645
788,483.86440257703015
789,483.74659390098833
790,483.6364084931599
791,483.53840482332987
792,483.45669357912016
793,483.39451574614003
794,483.35386766171456
795,483.3352133891678
796,483.3373200008913
797,483.35724240081885
798,483.3904786439336
799,483.4313050743754
800,483.4732704960333
801,483.50979156736594
802,483.53477345360056
803,483.54318647993904
804,483.5315414615569
805,483.49820903411324
806,483.4435347738899
807,483.3697328672564
808,483.2805886099751
809,483.1810323137587
810,483.07665091145736
811,482.97319281275526
812,482.87610662143084
813,482.79013601664684
814,482.71898097657163
815,482.66503996530474
816,482.6292631630303
817,482.6111571566676
818,482.60896991679726
819,482.6200424295212
820,482.64125551647487
821,482.6694644964759
822,482.70182460107657
823,482.7359565632715
824,482.7699575506107
825,482.8023040241745
826,482.83170878168056
827,482.85698960671766
828,482.8769936187483
829,482.89060404213154
830,482.8968344148311
831,482.89498960352563
832,482.88484441442233
833,482.86677083776937
834,482.8417562171525
835,482.81130066762546
836,482.77723378921723
837,482.74151449802923
838,482.7060660835522
839,482.6726678907439
840,482.6428966232281
841,482.6180969963808
842,482.5993639621687
843,482.5875280398495
844,482.5831407057332
845,482.5864564541561
846,482.59741190317817
847,482.6156174540518
848,482.6403929951815
849,482.67087607424315
850,482.7062014387541
851,482.74570963027764
852,482.7891175973526
853,482.83659391808305
854,482.8887138418292
855,482.9462993859388
856,483.01016856055116
857,483.08083476090195
858,483.1582153770417
859,483.24141632019644
860,483.32864454803126
861,483.41726431846064
862,483.5039715729814
863,483.58503959364083
864,483.6565991789442
865,483.71494011761774
866,483.7568282563334
867,483.77981666481975
868,483.7825103541777
869,483.7647431806521
870,483.72764500911234
871,483.67360172281104
872,483.60612581895884
873,483.52966112803483
874,483.4493454613253
875,483.3707429675408
876,483.29953316641866
877,483.24113116373115
878,483.20024009699216
879,483.18039337453104
880,483.18358958160695
881,483.21011966671176
882,483.25862933128946
883,483.32638090343283
884,483.4096242926594
885,483.5039813220459
886,483.6047812017261
887,483.7073293319213
888,483.8071269565956
889,483.90007690499243
890,483.9827063072952
891,484.05241106096054
892,484.1076896176325
893,484.1483048358086
894,484.1753102702949
895,484.1909046752271
896,484.1981207117327
