frame_number,force
0,697.2309600065498
1,697.273983169865
2,697.3169001845237
3,697.3596056501718
4,697.4019956503228
5,697.4439684640804
6,697.4854252457885
7,697.5262706674692
8,697.566413521164
9,697.6057672790479
10,697.64425060882
11,697.6817878413278
12,697.7183093871893
13,697.7537520991439
14,697.7880595768272
15,697.8211824108625
16,697.8530783636896
17,697.8837124851545
18,697.9130571614461
19,697.9410920966567
20,697.9678042272019
21,697.9931875704268
22,698.0172430097473
23,698.0399780195615
24,698.0614063340515
25,698.0815475650861
26,698.1004267757955
27,698.1180740175935
28,698.1345238388845
29,698.14981477321
30,698.1639888136551
31,698.1770908797283
32,698.1891682830311
33,698.2002701988268
34,698.2104471517088
35,698.2197505242841
36,698.2282320973075
37,698.2359436276304
38,698.2429364672805
39,698.249261224269
40,698.2549674642212
41,698.2601034512918
42,698.2647159263057
43,698.2688499197396
44,698.2725485976454
45,698.2758531397296
46,698.2788026497238
47,698.2814340985233
48,698.2837823006606
49,698.2858799246472
50,698.2877575370678
51,698.2894436786451
52,698.2909649682524
53,698.2923462290871
54,698.2936106305992
55,698.2947798401616
56,698.2958741792733
57,698.2969127799059
58,698.2979137373316
59,698.2988942564522
60,698.2998707892393
61,698.30085916122
62,698.3018746849865
63,698.3029322587574
64,698.3040464483063
65,698.3052315507801
66,698.306501638507
67,698.307870579874
68,698.3093520337247
69,698.3109594144261
70,698.3127058265966
71,698.3146039703743
72,698.3166660192745
73,698.318903473207
74,698.3213269894743
75,698.3239461948867
76,698.326769482724
77,698.3298037993513
78,698.3330544269168
79,698.3365247704603
80,698.340216159362
81,698.3441276738066
82,698.3482560067093
83,698.3525953704926
84,698.3571374564007
85,698.3618714519173
86,698.3667841198237
87,698.3718599409364
88,698.3770813214552
89,698.3824288643854
90,698.3878817021599
91,698.393417884639
92,698.399014813917
93,698.4046497156199
94,698.410300135939
95,698.4159444544285
96,698.4215624041469
97,698.4271355922858
98,698.4326480152014
99,698.4380865614527
100,698.4434414955373
101,698.4487069141916
102,698.4538811666295
103,698.4589672296513
104,698.4639730278775
105,698.4689116885556
106,698.4738017199968
107,698.4786671034093
108,698.4835372900939
109,698.488447099374
110,698.493436516391
111,698.4985503920707
112,698.5038380499236
113,698.5093528063994
114,698.5151514136787
115,698.5212934356674
116,698.5278405689234
117,698.5348559201351
118,698.5424032510949
119,698.5505462015022
120,698.5593474997496
121,698.5688681720553
122,698.5791667607089
123,698.5902985623457
124,698.602314896656
125,698.615262414815
126,698.6291824557255
127,698.6441104573021
128,698.6600754294117
129,698.677099494309
130,698.6951974991039
131,698.714376703197
132,698.7346365424205
133,698.7559684712704
134,698.7783558847117
135,698.801774120833
136,698.8261905448245
137,698.8515647135125
138,698.8778486183799
139,698.9049870039532
140,698.9329177576982
141,698.9615723668154
142,698.9908764363383
143,699.0207502617426
144,699.0511094482133
145,699.081865568124
146,699.1129268480527
147,699.1441988763225
148,699.1755853213577
149,699.2069886505145
150,699.2383108389971
151,699.2694540589544
152,699.3003213395738
153,699.3308171898684
154,699.3608481769271
155,699.3903234534969
156,699.4191552296229
157,699.4472591839053
158,699.4745548113268
159,699.5009657066937
160,699.5264197848786
161,699.5508494405657
162,699.5741916510062
163,699.5963880258229
164,699.617384808579
165,699.6371328358326
166,699.6555874604204
167,699.672708445855
168,699.6884598374352
169,699.7028098138824
170,699.715730522621
171,699.7271979026452
172,699.7371915003305
173,699.7456942846673
174,699.7526924690955
175,699.758175347375
176,699.7621351503266
177,699.7645669286837
178,699.7654684652127
179,699.7648402172921
180,699.7626852894858
181,699.7590094342476
182,699.7538210777011
183,699.747131366299
184,699.7389542290185
185,699.7293064490096
186,699.7182077386627
187,699.7056808124664
188,699.6917514516366
189,699.6764485530213
190,699.6598041534012
191,699.6418534202911
192,699.6226346016886
193,699.602188929137
194,699.5805604705539
195,699.5577959315348
196,699.5339444062922
197,699.509057081754
198,699.4831869002984
199,699.4563881878724
200,699.4287162546931
201,699.4002269756755
202,699.3709763578021
203,699.3410201020437
204,699.3104131676167
205,699.2792093459182
206,699.2474608508426
207,699.215217931899
208,699.1825285166601
209,699.1494378893473
210,699.115988412412
211,699.0822192974507
212,699.0481664306346
213,699.0138622564178
214,698.9793357218402
215,698.9446122822039
216,698.9097139672695
217,698.8746595055038
218,698.8394645022414
219,698.8041416658257
220,698.7687010743706
221,698.7331504754134
222,698.6974956114308
223,698.6617405652119
224,698.625888119752
225,698.5899401276473
226,698.5538978852375
227,698.5177625071357
228,698.4815352971709
229,698.4452181119258
230,698.4088137128772
231,698.3723261026768
232,698.3357608407863
233,698.2991253342201
234,698.2624291007033
235,698.2256840031896
236,698.188904455196
237,698.1521075958462
238,698.1153134330876
239,698.0785449540889
240,698.0418282027091
241,698.005192324133
242,697.9686695764352
243,697.9322953089284
244,697.8961079079938
245,697.860148712084
246,697.8244618980523
247,697.789094340908
248,697.7540954490147
249,697.7195169769802
250,697.6854128188203
251,697.651838784259
252,697.6188523611709
253,697.5865124667245
254,697.5548791883206
255,697.524013513385
256,697.4939770456477
257,697.464831705406
258,697.4366394119656
259,697.4094617471127
260,697.3833595987467
261,697.3583927839918
262,697.3346196515618
263,697.3120966639685
264,697.290877961182
265,697.2710149085176
266,697.252555633006
267,697.235544554408
268,697.2200219191488
269,697.2060233470746
270,697.1935794014075
271,697.1827151916082
272,697.1734500175758
273,697.1657970621442
274,697.159763137373
275,697.1553484889021
276,697.1525466614739
277,697.151344427125
278,697.1517217755196
279,697.1536519642439
280,697.1571016260488
281,697.1620309295718
282,697.1683937893093
283,697.1761381196613
284,697.1852061273564
285,697.1955346369676
286,697.2070554455214
287,697.2196957039515
288,697.2333783247975
289,697.248022416578
290,697.2635437453436
291,697.2798552230417
292,697.2968674211631
293,697.3144891075717
294,697.3326278047502
295,697.351190368375
296,697.3700835854776
297,697.3892147911376
298,697.4084925017667
299,697.4278270617704
300,697.4471312989363
301,697.4663211826919
302,697.4853164787887
303,697.5040413939042
304,697.5224252036812
305,697.5404028575205
306,697.5579155529264
307,697.5749112714319
308,697.5913452673797
309,697.6071805004818
310,697.6223880031426
311,697.6369471737231
312,697.6508459872756
313,697.6640811162389
314,697.6766579555839
315,697.6885905498482
316,697.6999014229704
317,697.710621315396
318,697.7207888361037
319,697.7304500395928
320,697.7396579392337
321,697.7484719686021
322,697.7569574016728
323,697.7651847415734
324,697.7732290867218
325,697.7811694829778
326,697.789088270682
327,697.7970704353734
328,697.8052029700259
329,697.8135742550606
330,697.8222734608408
331,697.8313899760724
332,697.8410128641983
333,697.8512303482923
334,697.8621293234722
335,697.8737948950583
336,697.8863099406507
337,697.8997546944698
338,697.9142063523242
339,697.9297386956925
340,697.9464217338965
341,697.9643213640293
342,697.9834990488569
343,698.0040115131178
344,698.0259104585858
345,698.0492422981905
346,698.0740479096987
347,698.1003624100648
348,698.1282149521667
349,698.157628545485
350,698.1886199009899
351,698.2211992986845
352,698.2553704750228
353,698.2911305274762
354,698.3284698348577
355,698.3673719940125
356,698.4078137753193
357,698.4497651006815
358,698.4931890483198
359,698.5380418887665
360,698.5842731560728
361,698.6318257577445
362,698.6806361267112
363,698.7306344185093
364,698.7817447563319
365,698.8338855254742
366,698.886969717277
367,698.9409053212619
368,698.9955957630312
369,699.0509403847958
370,699.106834965056
371,699.1631722735694
372,699.2198426567312
373,699.2767346466961
374,699.3337355855692
375,699.3907322547462
376,699.4476114996004
377,699.5042608409814
378,699.5605690664665
379,699.6164267951069
380,699.6717270096535
381,699.7263655508282
382,699.7802415695804
383,699.833257934813
384,699.8853215948033
385,699.936343890482
386,699.9862408186814
387,700.0349332439679
388,700.0823470586017
389,700.1284132912598
390,700.1730681663079
391,700.2162531164586
392,700.2579147524655
393,700.2980047940636
394,700.3364799665919
395,700.3733018673597
396,700.408436804836
397,700.4418556126188
398,700.4735334392874
399,700.5034495146014
400,700.5315868920908
401,700.5579321682466
402,700.5824751795501
403,700.605208680249
404,700.626128005475
405,700.6452307254395
406,700.6625162969315
407,700.67798571851
408,700.6916411959116
409,700.7034858245283
410,700.7135232965844
411,700.7217576414503
412,700.7281930075449
413,700.7328334934052
414,700.7356830344559
415,700.7367453511046
416,700.7360239626225
417,700.7335222695232
418,700.7292437049961
419,700.7231919536046
420,700.71537123292
421,700.7057866309599
422,700.6944444893572
423,700.6813528196589
424,700.6665217387803
425,700.6499639099203
426,700.6316949769445
427,700.6117339824424
428,700.5901037612712
429,700.5668313020053
430,700.5419480688544
431,700.5154902770175
432,700.4874991153699
433,700.4580209116608
434,700.4271072366049
435,700.3948149438803
436,700.3612061433646
437,700.3263481059505
438,700.2903131005612
439,700.2531781670033
440,700.215024831047
441,700.1759387697775
442,700.1360094353677
443,700.0953296442078
444,700.0539951367097
445,700.0121041119604
446,699.9697567411162
447,699.927054663828
448,699.8841004727967
449,699.8409971924467
450,699.79784775834
451,699.7547545039413
452,699.7118186605835
453,699.6691398752193
454,699.6268157491385
455,699.5849413994406
456,699.543609043619
457,699.5029076062243
458,699.4629223457233
459,699.4237344998132
460,699.3854209484065
461,699.3480538945615
462,699.3117005644178
463,699.2764229278446
464,699.2422774421763
465,699.2093148219262
466,699.1775798375021
467,699.1471111456173
468,699.1179411535016
469,699.09009591856
470,699.0635950851854
471,699.0384518608513
472,699.0146730337375
473,698.9922590333946
474,698.9712040344434
475,698.951496101716
476,698.9331173741275
477,698.9160442838736
478,698.9002478069546
479,698.8856937404936
480,698.8723430020666
481,698.8601519464831
482,698.8490726961098
483,698.8390534817121
484,698.8300389916564
485,698.8219707279547
486,698.8147873680588
487,698.8084251316463
488,698.8028181518483
489,698.7978988501201
490,698.7935983132492
491,698.7898466702611
492,698.7865734666482
493,698.7837080332638
494,698.7811798470535
495,698.778918880377
496,698.7768559351292
497,698.7749229574802
498,698.7730533290617
499,698.7711821308524
500,698.7692463765966
501,698.7671852131438
502,698.7649400856187
503,698.7624548659213
504,698.7596759436865
505,698.7565522794346
506,698.7530354204221
507,698.7490794809804
508,698.7446410908369
509,698.7396793166414
510,698.7341555632576
511,698.7280334620932
512,698.7212787538452
513,698.7138591727561
514,698.7057443391054
515,698.6969056662166
516,698.687316287433
517,698.6769510069709
518,698.665786276353
519,698.6538001957433
520,698.6409725375804
521,698.6272847889716
522,698.6127202095544
523,698.5972639024029
524,698.5809028959274
525,698.5636262339959
526,698.5454250703126
527,698.5262927624698
528,698.5062249614838
529,698.4852196937595
530,698.4632774338376
531,698.4404011672456
532,698.416596442661
533,698.3918714115287
534,698.3662368522752
535,698.3397061761557
536,698.3122954126068
537,698.2840231734832
538,698.2549105976094
539,698.2249812793784
540,698.1942611869847
541,698.1627785766912
542,698.1305639094119
543,698.0976497753024
544,698.0640708309988
545,698.0298637522469
546,697.9950672021137
547,697.9597218127897
548,697.9238701780746
549,697.8875568537392
550,697.8508283631244
551,697.8137332048537
552,697.7763218583102
553,697.73864678091
554,697.7007623897113
555,697.6627250190182
556,697.6245928457895
557,697.5864257760417
558,697.548285288014
559,697.5102342310786
560,697.472336582305
561,697.4346571645024
562,697.3972613303656
563,697.3602146172875
564,697.3235823768749
565,697.2874293827354
566,697.2518194200402
567,697.2168148607882
568,697.1824762294998
569,697.1488617651199
570,697.1160269858653
571,697.0840242642363
572,697.0529024192504
573,697.0227063321908
574,696.9934765911275
575,696.965249168752
576,696.938055138088
577,696.9119204313538
578,696.8868656481981
579,696.8629059200408
580,696.8400508365057
581,696.8183044376948
582,696.7976652730065
583,696.7781265241495
584,696.7596761873377
585,696.7422973077075
586,696.7259682582162
587,696.710663055745
588,696.6963517081539
589,696.6830005866693
590,696.6705728177903
591,696.6590286882674
592,696.6483260564822
593,696.6384207642101
594,696.6292670441927
595,696.6208179207342
596,696.613025602093
597,696.6058418642169
598,696.599218425181
599,696.5931073089913
600,696.5874611968204
601,696.5822337635117
602,696.5773799973307
603,696.5728565014232
604,696.5686217761647
605,696.5646364822483
606,696.5608636846623
607,696.557269077674
608,696.553821190838
609,696.5504915761587
610,696.5472549768218
611,696.5440894781905
612,696.5409766419477
613,696.5379016243094
614,696.5348532790331
615,696.5318242454791
616,696.5288110216508
617,696.5258140225374
618,696.5228376251414
619,696.5198902024671
620,696.5169841485185
621,696.5141358947349
622,696.5113659159656
623,696.5086987221492
624,696.5061628308521
625,696.5037907156143
626,696.501618725301
627,696.4996869700357
628,696.4980391696224
629,696.4967224607685
630,696.4957871602641
631,696.49528648274
632,696.4952762135354
633,696.4958143391854
634,696.496960639852
635,696.4987762494823
636,696.5013231903188
637,696.5046638884678
638,696.508860676882
639,696.5139752919267
640,696.5200683699389
641,696.5271989506133
642,696.5354239942283
643,696.54479791952
644,696.5553721686913
645,696.5671948058905
646,696.580310155432
647,696.5947584855776
648,696.6105757424449
649,696.6277933366871
650,696.6464379835692
651,696.6665315955299
652,696.6880912255191
653,696.7111290590749
654,696.7356524524951
655,696.7616640129507
656,696.7891617142225
657,696.8181390396862
658,696.8485851426296
659,696.8804850130131
660,696.9138196399468
661,696.9485661611618
662,696.9846979944484
663,697.0221849500583
664,697.0609933257995
665,697.1010859876674
666,697.1424224393779
667,697.1849588851185
668,697.2286482909303
669,697.2734404505719
670,697.3192820614476
671,697.366116815965
672,697.4138855138285
673,697.4625262008609
674,697.511974339386
675,697.5621630138523
676,697.6130231733966
677,697.6644839106334
678,697.716472773645
679,697.7689161067349
680,697.8217394152589
681,697.8748677501515
682,697.9282261080023
683,697.9817398425369
684,698.035335083192
685,698.0889391564311
686,698.142481005946
687,698.1958916091079
688,698.2491043885325
689,698.3020556186833
690,698.3546848276189
691,698.4069351933152
692,698.4587539328126
693,698.5100926810783
694,698.5609078549937
695,698.6111609960301
696,698.6608190829238
697,698.7098548036445
698,698.7582467750167
699,698.8059796987557
700,698.8530444440668
701,698.8994380489322
702,698.9451636344752
703,698.9902302293415
704,699.0346525040477
705,699.0784504186497
706,699.1216487904048
707,699.1642767908712
708,699.2063673839214
709,699.2479567174371
710,699.2890834820186
711,699.3297882500368
712,699.3701128079578
713,699.4100994940151
714,699.4497905518392
715,699.4892275087088
716,699.5284505852336
717,699.5674981418791
718,699.6064061667115
719,699.6452078076483
720,699.6839329510426
721,699.7226078466118
722,699.7612547770179
723,699.7998917694492
724,699.8385323466458
725,699.8771853158464
726,699.9158545958377
727,699.9545390842263
728,699.9932325686774
729,700.0319236867291
730,700.0705959388589
731,700.1092277589132
732,700.1477926450412
733,700.1862593530124
734,700.2245921521557
735,700.2627511421239
736,700.3006926265858
737,700.3383695382269
738,700.3757319081386
739,700.4127273717847
740,700.4493017035101
741,700.4853993720259
742,700.5209641098028
743,700.5559394891171
744,700.5902694967646
745,700.6238990988671
746,700.6567747870556
747,700.6888450973196
748,700.7200610927551
749,700.7503768015863
750,700.7797496026623
751,700.8081405520602
752,700.8355146458955
753,700.8618410157289
754,700.8870930543526
755,700.9112484713623
756,700.9342892794222
757,700.9562017131872
758,700.9769760834703
759,700.9966065696583
760,701.0150909539008
761,701.0324303014294
762,701.0486285926262
763,701.0636923140488
764,701.077630017141
765,701.0904518543573
766,701.1021691026876
767,701.1127936842098
768,701.1223376925717
769,701.1308129334873
770,701.1382304865856
771,701.1446002952746
772,701.1499307906087
773,701.1542285547109
774,701.1574980294871
775,701.1597412770735
776,701.1609577987299
777,701.1611444178651
778,701.1602952307938
779,701.1584016266097
780,701.1554523756209
781,701.1514337837573
782,701.1463299082155
783,701.1401228281651
784,701.1327929640119
785,701.1243194388305
786,701.1146804752841
787,701.1038538206002
788,701.091817191407
789,701.0785487296769
790,701.064027460536
791,701.0482337419799
792,701.0311496955239
793,701.0127596059328
794,700.993050278207
795,700.9720113415324
796,700.9496354925705
797,700.9259186732482
798,700.9008601804585
799,700.8744627070129
800,700.8467323151544
801,700.8176783458624
802,700.7873132688177
803,700.7556524791584
804,700.7227140479381
805,700.6885184333082
806,700.6530881589155
807,700.6164474651989
808,700.5786219384881
809,700.5396381219833
810,700.4995231117974
811,700.45830414074
812,700.4160081530636
813,700.3726613749117
814,700.3282888870594
815,700.2829142081036
816,700.2365588972496
817,700.1892421862811
818,700.140980650354
819,700.0917879269144
820,700.0416744912354
821,699.9906474959027
822,699.9387106803908
823,699.885864355686
824,699.8321054675355
825,699.7774277401933
826,699.7218219005872
827,699.6652759806818
828,699.6077756933477
829,699.5493048743132
830,699.4898459802291
831,699.4293806313185
832,699.3678901870762
833,699.3053563446834
834,699.2417617510038
835,699.1770906192218
836,699.1113293405595
837,699.0444670812216
838,698.9764963555427
839,698.9074135677641
840,698.8372195160498
841,698.7659198529814
842,698.6935254970322
843,698.6200529894953
844,698.5455247911793
845,698.4699695132823
846,698.393422077626
847,698.3159238030581
848,698.2375224171685
849,698.1582719949881
850,698.0782328283568
851,697.997471230668
852,697.9160592817514
853,697.8340745172783
854,697.7515995669482
855,697.6687217460993
856,697.5855326060229
857,697.5021274487208
858,697.4186048119716
859,697.3350659304533
860,697.251614178456
861,697.1683544995469
862,697.0853928285109
863,697.002835510802
864,696.9207887243656
865,696.8393579079079
866,696.7586471987116
867,696.6787588823189
868,696.5997928564273
869,696.5218461123859
870,696.4450122393191
871,696.3693809574473
872,696.2950376883164
873,696.2220631702297
874,696.1505331268949
875,696.0805179958585
876,696.0120827207712
877,695.9452866083525
878,695.8801832478823
879,695.8168204887955
880,695.7552404706069
881,695.6954796986001
882,695.6375691582953
883,695.5815344619674
884,695.5273960217037
885,695.4751692451423
886,695.424864751144
887,695.3764886026526
888,695.330042553355
889,695.2855243040993
890,695.2429277643965
891,695.2022433135212
892,695.163458055021
893,695.1265560583887
894,695.091518582382
895,695.0583242759341
896,695.0269493547518
897,694.9973677544281
898,694.9695512635225
899,694.9434696416614
900,694.9190907277534
901,694.896380542272
902,694.8753033863128
903,694.8558219398727
904,694.8378973628946
905,694.821489404427
906,694.8065565264388
907,694.7930560482666
908,694.7809443152612
909,694.7701768920091
910,694.7607087780228
911,694.7524946428249
912,694.7454890773581
913,694.7396468585493
914,694.7349232232555
915,694.7312741472363
916,694.7286566248616
917,694.727028946119
